SpectraSmart Spectrum 2.9.0.0
--------- Device Information -----------
Spectrum Name :  反射率_0
Saving Time :  2024/04/25 22:55:32
Spectro-Module Model Name : SE2030-DUVN
Spectro-Module Serial Number : OS361AC55029948
Wavelength Start : 200
Wavelength End : 1025
Wavelength Unit : Wavelength(nm)
Spectrum Unit : Reflectance(%)
-----------Spectrum Setting ------------
Integration Time : 20ms
Average : 10
Boxcar : 0
Background removal :  enabled
linearity correction :  enabled
SC :  disabled
Intensity correction :  disabled
DWT denoise :  enabled
savitzky-golay :  disabled
FFT :  disabled
Running average :  disabled
Kalman :  disabled
High pass :  disabled
---------------BEGIN--------------------
Wavelength(nm)             Reflectance(%)
200.29               0
200.75        79.46915
201.21        74.86571
201.67        70.52657
202.13        67.57088
202.58        65.95844
203.04         65.8017
203.50        66.75705
203.96        68.07479
204.42        69.29337
204.88        70.35759
205.34        71.29435
205.80        72.37749
206.26        74.00116
206.72        76.89085
207.18        82.08795
207.64        86.88528
208.10        84.35107
208.55        77.94949
209.01        73.69733
209.47        72.21296
209.93        72.29923
210.39        73.61811
210.85        74.65727
211.31        72.45657
211.77        66.64707
212.23        58.51384
212.69        51.43727
213.14        50.67775
213.60        56.77065
214.06        68.22733
214.52         80.9712
214.98        88.66486
215.44        89.65273
215.90         85.8887
216.36        80.02615
216.81        75.78548
217.27        74.41777
217.73        74.62373
218.19         74.7953
218.65        72.77026
219.11        67.58955
219.57        58.66211
220.02        46.93275
220.48        39.18306
220.94        39.48905
221.40         46.6064
221.86        53.86838
222.32        54.06006
222.77         47.9592
223.23        39.52305
223.69        32.87826
224.15        32.30993
224.61        37.19174
225.06        45.20832
225.52        53.11962
225.98        56.83593
226.44          55.617
226.90        51.28438
227.36        45.94803
227.81         42.4153
228.27         41.7029
228.73         42.6875
229.19        44.68725
229.65        46.69657
230.10        48.23773
230.56        49.60654
231.02        50.76023
231.48        51.61381
231.93        52.17739
232.39        52.42503
232.85        52.42503
233.31        52.38954
233.77        52.33081
234.22        52.18357
234.68        51.81448
235.14        50.94674
235.60        49.63474
236.05        48.18246
236.51        46.78664
236.97        45.55529
237.43        44.52534
237.88        43.66225
238.34        43.34231
238.80        44.57113
239.26        47.65144
239.71        52.41509
240.17        57.41169
240.63        60.60263
241.08        61.46343
241.54        60.32345
242.00        58.44811
242.46        57.72985
242.91        59.19264
243.37        63.99707
243.83        79.56367
244.28        128.3839
244.74        179.4422
245.20        147.1983
245.66        118.8515
246.11        108.8273
246.57        107.0617
247.03        110.5651
247.48        117.2474
247.94        85.73612
248.40        71.02852
248.85        69.96004
249.31        71.21106
249.77         73.2419
250.22        76.20943
250.68        80.84627
251.14        86.90128
251.59        89.68131
252.05        85.42023
252.51        76.85508
252.96         68.1581
253.42        63.21148
253.88        61.54822
254.33        61.75954
254.79        64.40049
255.25        69.47007
255.70        75.66685
256.16        82.28423
256.62        86.88486
257.07        87.09567
257.53        83.89867
257.99        78.25193
258.44        72.49117
258.90        70.18685
259.35        70.40302
259.81         71.7907
260.27        72.05802
260.72        69.01623
261.18        63.60438
261.63        56.92406
262.09        50.99777
262.55         47.4646
263.00        46.17096
263.46        46.27478
263.91        46.54459
264.37        45.98668
264.83        44.42243
265.28        42.16719
265.74        39.93066
266.19        38.51277
266.65        38.16181
267.11        38.42066
267.56        38.70149
268.02        38.33779
268.47        37.20798
268.93        35.56705
269.38        33.77414
269.84        32.65683
270.30        32.42596
270.75        32.82974
271.21        33.40478
271.66         33.4663
272.12        32.84255
272.57        31.75923
273.03        30.58905
273.48        29.80096
273.94        29.53875
274.39        29.59752
274.85        29.73637
275.31        29.59787
275.76        29.09402
276.22        28.38319
276.67        27.63922
277.13        27.19802
277.58        27.06378
278.04        27.14728
278.49        27.21077
278.95        26.99374
279.40        26.42951
279.86        25.67812
280.31        24.89071
280.77        24.40431
281.22        24.23248
281.68        24.27903
282.13        24.37905
282.59        24.34095
283.04        24.11108
283.50        23.79699
283.95        23.43164
284.41        23.08322
284.86        22.77735
285.32        22.50226
285.77        22.31123
286.22        22.34878
286.68         22.5962
287.13         22.9795
287.59        23.33243
288.04        23.39567
288.50        23.14675
288.95        22.65026
289.41        22.07874
289.86        21.59069
290.32        21.29346
290.77        21.12857
291.22        21.09056
291.68        21.12948
292.13        21.23389
292.59        21.42709
293.04        21.72519
293.50        22.14914
293.95        22.67579
294.40        23.25532
294.86        23.82556
295.31        24.30795
295.77        24.69001
296.22        25.00226
296.68          25.267
297.13        25.49396
297.58        25.72203
298.04        25.97131
298.49        26.30957
298.95         26.8771
299.40        27.67464
299.85        28.64636
300.31        29.66524
300.76        30.53692
301.21        31.18357
301.67        31.67601
302.12        32.02447
302.58        32.31232
303.03        32.55752
303.48        32.75813
303.94        33.00363
304.39        33.39274
304.84         33.9437
305.30        34.62105
305.75        35.28473
306.20        35.72839
306.66        35.92801
307.11        35.92659
307.57        35.86564
308.02        35.87749
308.47        36.03366
308.93        36.29327
309.38         36.5984
309.83         36.8942
310.29         37.1466
310.74         37.3576
311.19        37.54193
311.65        37.71751
312.10        37.88174
312.55        38.03137
313.00        38.10495
313.46        38.01607
313.91        37.75389
314.36         37.3704
314.82        37.01073
315.27        36.87463
315.72        37.00621
316.18        37.33636
316.63        37.72484
317.08        37.91378
317.53         37.8294
317.99        37.53845
318.44        37.16751
318.89        36.92125
319.35        36.84613
319.80        36.88866
320.25        36.93659
320.70        36.81163
321.16         36.4777
321.61        36.00357
322.06        35.50695
322.51        35.15987
322.97        34.98825
323.42        34.94433
323.87        34.92469
324.32        34.76252
324.78        34.41393
325.23        33.94778
325.68        33.44144
326.13        33.02436
326.59        32.73149
327.04        32.54264
327.49         32.4257
327.94        32.33222
328.39        32.24312
328.85        32.16915
329.30        32.13323
329.75        32.11957
330.20        32.12655
330.66        32.12799
331.11         32.1525
331.56        32.20406
332.01        32.27552
332.46        32.34665
332.92        32.38438
333.37        32.37783
333.82        32.30362
334.27        32.18545
334.72        32.00817
335.17        31.75092
335.63         31.4276
336.08        31.05762
336.53        30.74234
336.98        30.64726
337.43        30.79245
337.88         31.1298
338.34        31.47577
338.79        31.57555
339.24        31.34214
339.69         30.8523
340.14        30.28614
340.59        29.96697
341.05        29.97749
341.50        30.21373
341.95        30.53135
342.40        30.71838
342.85         30.7163
343.30        30.60505
343.75        30.41316
344.20         30.1911
344.66        29.97348
345.11        29.70978
345.56         29.4721
346.01        29.37134
346.46        29.41125
346.91        29.57703
347.36        29.71269
347.81        29.56304
348.26         29.1035
348.72        28.45034
349.17        27.79625
349.62        27.53663
350.07        27.75928
350.52        28.32194
350.97        29.01877
351.42        29.53713
351.87        29.77586
352.32        29.81836
352.77        29.71308
353.22        29.54111
353.67        29.34447
354.13        29.10209
354.58        28.83054
355.03        28.60311
355.48        28.43755
355.93         28.3358
356.38        28.26774
356.83        28.16897
357.28        28.01971
357.73         27.8338
358.18        27.63122
358.63        27.44351
359.08        27.28308
359.53        27.14776
359.98        27.01539
360.43        26.85367
360.88        26.65948
361.33        26.43869
361.78        26.24612
362.23        26.16928
362.68        26.21258
363.13        26.33697
363.58        26.44398
364.03         26.3819
364.48        26.12242
364.93        25.72022
365.38        25.26474
365.83        24.90158
366.28         24.6772
366.73        24.54879
367.18        24.48755
367.63        24.44345
368.08        24.39143
368.53        24.35157
368.98        24.30152
369.43        24.19893
369.88        24.04338
370.33        23.84771
370.78        23.65173
371.23        23.52987
371.68        23.50204
372.13        23.54026
372.58        23.62964
373.03        23.74123
373.48        23.84886
373.93        23.95285
374.38        24.00791
374.83        23.94643
375.28        23.76375
375.72        23.47294
376.17        23.16372
376.62        22.94438
377.07        22.84872
377.52        22.84559
377.97        22.89569
378.42        22.92986
378.87        22.92128
379.32         22.8908
379.77        22.83661
380.22        22.75425
380.67        22.64597
381.11        22.50839
381.56        22.35592
382.01        22.22495
382.46        22.12629
382.91        22.05561
383.36         21.9959
383.81         21.9153
384.26        21.81019
384.71        21.69628
385.15        21.58331
385.60        21.50175
386.05        21.44347
386.50        21.38441
386.95        21.32625
387.40        21.27397
387.85        21.23045
388.29        21.20465
388.74        21.16616
389.19        21.02993
389.64        20.79591
390.09        20.47849
390.54        20.20203
390.98        20.17609
391.43        20.43567
391.88        20.88671
392.33        21.33145
392.78        21.47965
393.23        21.29418
393.67        20.87873
394.12        20.42949
394.57        20.14771
395.02         20.0834
395.47        20.16365
395.91        20.33232
396.36         20.4622
396.81        20.50914
397.26        20.50087
397.71        20.45255
398.15        20.36109
398.60        20.26592
399.05        20.17209
399.50        20.06768
399.95        19.88282
400.39        19.70799
400.84        19.48879
401.29        19.32257
401.74        19.34234
402.18        19.57658
402.63        19.95248
403.08        20.34567
403.53          20.556
403.97        20.53493
404.42        20.34288
404.87        20.05916
405.32        19.82737
405.76        19.70108
406.21        19.64562
406.66        19.65224
407.11         19.7156
407.55        19.82823
408.00        19.99185
408.45        20.15975
408.90        20.22366
409.34        20.15451
409.79         19.9837
410.24        19.79004
410.68        19.68837
411.13        19.70925
411.58        19.82301
412.03        19.98071
412.47        20.09693
412.92        20.12726
413.37        20.09855
413.81        20.05126
414.26        20.06501
414.71        20.14461
415.15        20.26407
415.60        20.35495
416.05        20.32982
416.49        20.17487
416.94        19.93845
417.39        19.68341
417.83        19.51418
418.28        19.47117
418.73         19.5105
419.17        19.61681
419.62        19.76247
420.07        19.92674
420.51        20.11886
420.96        20.27256
421.41        20.27507
421.85        20.10713
422.30        19.82811
422.74        19.53684
423.19        19.41924
423.64        19.49013
424.08        19.71157
424.53         19.9723
424.98        20.10739
425.42        20.07577
425.87         19.9194
426.31        19.71816
426.76        19.65158
427.21        19.72769
427.65        19.75933
428.10        19.79357
428.54        20.03064
428.99        20.45849
429.44        20.97946
429.88        21.38733
430.33        21.43213
430.77        21.08456
431.22        20.43106
431.66        19.74628
432.11        19.53472
432.56        19.84308
433.00        20.40101
433.45        20.95247
433.89        21.36721
434.34        21.46029
434.78        20.97245
435.23        20.28243
435.67        20.22664
436.12         20.7512
436.57        21.04869
437.01        20.99954
437.46        20.96942
437.90        20.98099
438.35         20.9278
438.79        20.82709
439.24        20.76316
439.68        20.76219
440.13        20.71874
440.57        20.66511
441.02         20.9334
441.46        21.36001
441.91        21.20139
442.35        20.59314
442.80        20.34924
443.24        20.44843
443.69        20.57278
444.13        20.63545
444.58        20.49154
445.02        20.21769
445.47        20.26486
445.91        20.55917
446.36        20.60601
446.80        20.37708
447.24        20.15601
447.69        20.02198
448.13        19.96772
448.58        20.01817
449.02        20.16739
449.47        20.34412
449.91        20.42824
450.36        20.39515
450.80        20.27773
451.25        20.14357
451.69        20.08553
452.13        20.13135
452.58        20.23652
453.02        20.36615
453.47        20.47042
453.91        20.53249
454.36        20.57331
454.80        20.58425
455.24        20.54472
455.69          20.469
456.13        20.35573
456.58        20.26502
457.02        20.25664
457.46         20.3497
457.91        20.51715
458.35        20.70583
458.79        20.82654
459.24        20.86658
459.68        20.83534
460.13        20.78637
460.57        20.75664
461.01         20.7788
461.46        20.83367
461.90        20.90248
462.34        20.95319
462.79        20.97079
463.23        20.95841
463.68        20.95131
464.12        21.01344
464.56        21.15133
465.01         21.3585
465.45        21.51889
465.89        21.54092
466.34         21.4292
466.78        21.10032
467.22        20.72532
467.67        20.79015
468.11        21.23211
468.55        21.42133
468.99        21.30568
469.44        21.23445
469.88        21.28253
470.32        21.51171
470.77        21.82914
471.21        21.92119
471.65        21.75381
472.10         21.5592
472.54        21.41439
472.98        21.36655
473.42        21.44544
473.87        21.63898
474.31        21.88049
474.75        22.06201
475.20        22.15772
475.64        22.18714
476.08        22.18344
476.52        22.19649
476.97        22.24479
477.41        22.31508
477.85        22.38663
478.29        22.47309
478.74        22.57658
479.18        22.58503
479.62        22.52453
480.06        22.81742
480.50        22.99436
480.95        23.12434
481.39        23.04964
481.83        23.00892
482.27        23.01405
482.72        22.84838
483.16        22.60608
483.60        22.76146
484.04        23.32676
484.48        23.57665
484.93        23.78318
485.37        24.33779
485.81           25.07
486.25        24.93075
486.69        32.75692
487.14        25.94686
487.58        17.09034
488.02        21.18286
488.46        24.31327
488.90        24.42419
489.34        24.85471
489.79        24.59065
490.23        25.62902
490.67        26.22515
491.11        26.14073
491.55        26.20092
491.99        26.29018
492.43        26.25379
492.88        26.14967
493.32        26.22992
493.76        26.33344
494.20        26.60014
494.64        26.95769
495.08        27.36637
495.52        27.79318
495.96         28.2272
496.41        28.57752
496.85        28.80637
497.29        28.91752
497.73        28.63262
498.17         28.2938
498.61        28.60717
499.05        29.55682
499.49        29.72873
499.93        29.83305
500.37        29.92303
500.82        29.94922
501.26         30.2564
501.70        30.70039
502.14        31.01233
502.58        31.12212
503.02        31.21418
503.46        31.28551
503.90        31.20029
504.34        31.02592
504.78        30.94667
505.22        30.99854
505.66        31.14319
506.10        31.34795
506.54        31.50607
506.98        31.58251
507.42        31.69077
507.86        31.89286
508.30        31.82208
508.74        32.21946
509.18        32.46787
509.62        32.72332
510.06         32.8715
510.50         32.8986
510.94        32.83503
511.38        32.73821
511.82        32.71736
512.26         32.7994
512.70        32.95066
513.14         33.1374
513.58        33.30167
514.02        33.41169
514.46        33.47943
514.90        33.50473
515.34        33.45642
515.78        33.31567
516.22        33.22396
516.66        33.21257
517.10        32.95288
517.54        32.45095
517.98        33.07954
518.42        32.86645
518.86          33.134
519.30        33.27792
519.74        33.47241
520.18        33.66003
520.62         33.7258
521.06        33.67367
521.50        33.52161
521.93        33.32281
522.37        33.17216
522.81        33.10216
523.25        33.09261
523.69        33.12915
524.13        33.18728
524.57        33.25132
525.01        33.32204
525.45        33.38876
525.89        33.43358
526.32        33.44247
526.76        33.41279
527.20        33.33149
527.64        33.19356
528.08        33.01329
528.52        32.77391
528.96        32.49681
529.40        32.30364
529.83         32.2283
530.27         31.9167
530.71        31.98747
531.15        31.90914
531.59        31.86242
532.03        31.82917
532.46        31.83838
532.90        31.92918
533.34         32.0856
533.78        32.28233
534.22        32.44309
534.66        32.46133
535.09        32.31602
535.53        32.05849
535.97        31.75847
536.41        31.53543
536.85        31.43052
537.28        31.41842
537.72        31.46942
538.16        31.53459
538.60        31.59499
539.04        31.64045
539.47        31.68315
539.91        31.82325
540.35         32.0281
540.79        32.15243
541.22        32.19318
541.66         32.2785
542.10        32.41026
542.54        32.50933
542.97        32.59787
543.41        32.76328
543.85         33.0082
544.29        33.32067
544.72        33.63467
545.16        33.86123
545.60        33.97973
546.04        34.00954
546.47        34.04818
546.91        34.26355
547.35        34.67017
547.79        35.22224
548.22        35.76476
548.66        36.03168
549.10        35.99445
549.53        35.79199
549.97        35.59633
550.41        35.58786
550.84        35.82676
551.28        36.27096
551.72        36.82025
552.15        37.28455
552.59         37.5955
553.03        37.80424
553.46        37.93945
553.90        38.07938
554.34        38.24619
554.77        38.39231
555.21        38.51413
555.65        38.66538
556.08        38.85211
556.52        38.83411
556.96        39.07429
557.39        39.19357
557.83         39.3423
558.27        39.49466
558.70        39.65828
559.14        39.84018
559.57         40.0242
560.01        40.20668
560.45        40.34958
560.88        40.42599
561.32        40.44206
561.75        40.32402
562.19        40.17048
562.63        40.13936
563.06        40.24603
563.50         40.4315
563.93        40.63869
564.37        40.81651
564.80        40.93024
565.24        41.01509
565.68        41.08112
566.11        41.14749
566.55        41.25212
566.98        41.37506
567.42        41.54077
567.85        41.78104
568.29        42.11387
568.72         42.4071
569.16        42.70925
569.60        43.14988
570.03        43.52025
570.47        43.55456
570.90        43.37148
571.34        42.46629
571.77        43.15697
572.21        43.19488
572.64        43.12868
573.08        42.54407
573.51        41.37097
573.95        43.11517
574.38        45.56559
574.82        44.83183
575.25        44.20721
575.69        42.83381
576.12        42.40044
576.56        41.88824
576.99        43.16167
577.42        44.95008
577.86        44.89494
578.29        44.35781
578.73         46.4664
579.16        42.88292
579.60        39.23254
580.03        41.07349
580.47        43.79414
580.90        44.40312
581.33        43.68268
581.77        43.09982
582.20        46.80252
582.64        46.16105
583.07        39.19961
583.51        38.51861
583.94        38.14198
584.37        39.92487
584.81        41.64054
585.24        43.53934
585.68        44.41274
586.11        43.24511
586.54        40.34756
586.98        39.14508
587.41        39.50169
587.85        41.49405
588.28        42.90105
588.71        40.44107
589.15        39.31354
589.58        40.44307
590.01        40.49654
590.45        41.27811
590.88        41.75182
591.31        41.30086
591.75        40.96546
592.18        41.01184
592.61        41.92022
593.05        42.61797
593.48        44.28958
593.91        44.32854
594.35        41.00019
594.78         40.3685
595.21        40.48067
595.65        42.46026
596.08        44.07232
596.51        42.32066
596.94         41.4614
597.38        42.08824
597.81        43.98395
598.24        45.52959
598.68        44.85314
599.11        44.73919
599.54        46.72156
599.97        47.74692
600.41        45.20826
600.84        45.66565
601.27        46.88733
601.70        46.56285
602.14        46.95098
602.57        46.75634
603.00        47.66169
603.43        49.34072
603.87        51.07443
604.30        51.13116
604.73        49.85651
605.16        49.36473
605.60        50.65857
606.03        51.98724
606.46        53.03035
606.89        53.29161
607.32        52.30296
607.76        52.48429
608.19        54.66468
608.62        54.25841
609.05        53.55461
609.48        54.37685
609.92        54.87791
610.35        54.85261
610.78        56.90164
611.21        57.74324
611.64        55.46585
612.07        56.36525
612.50        57.01965
612.94        57.71999
613.37        57.59748
613.80        57.93991
614.23        58.78632
614.66        58.85571
615.09        59.40207
615.52        59.57933
615.96        59.62912
616.39        60.04995
616.82        59.28906
617.25         59.5447
617.68        60.26116
618.11        61.16712
618.54        61.92962
618.97         61.7154
619.40        60.88962
619.84        61.09881
620.27        62.31157
620.70        62.94814
621.13        63.40448
621.56        62.93807
621.99        62.00746
622.42        62.95247
622.85        64.55489
623.28        64.25146
623.71        63.80368
624.14        63.54312
624.57        63.38731
625.00        63.37196
625.43        63.37383
625.86        62.83064
626.29         62.9205
626.72        63.30407
627.15         63.0015
627.58        62.96341
628.01        62.71246
628.44        62.97463
628.87         62.7142
629.30        62.42295
629.73        62.07182
630.16        62.50763
630.59        61.56623
631.02        61.17798
631.45        60.72391
631.88        60.27152
632.31        59.82076
632.74        59.39277
633.17        59.00958
633.60        58.64077
634.03        58.28615
634.46         57.9655
634.89        57.62883
635.32        57.23999
635.75        56.78761
636.18        56.28624
636.61        55.78476
637.04        55.36133
637.47        55.02563
637.89        54.75281
638.32         54.4779
638.75        54.13315
639.18        53.70518
639.61        53.23468
640.04        52.74675
640.47        52.27186
640.90        51.83217
641.33        51.41895
641.76          51.057
642.18        50.86198
642.61        50.84177
643.04          50.849
643.47        50.79346
643.90        51.18683
644.33        50.94621
644.76        50.95317
645.18        50.91999
645.61        50.91314
646.04        50.94118
646.47        50.98131
646.90        51.09308
647.33        51.33385
647.75        51.72299
648.18        52.27904
648.61        52.84264
649.04        53.15608
649.47        53.18788
649.89        52.92382
650.32        52.69063
650.75        53.10472
651.18        54.16288
651.61        55.34649
652.03        56.29696
652.46        56.85205
652.89        57.26575
653.32        57.10688
653.74        56.75073
654.17        58.72136
654.60        60.02429
655.03        58.59692
655.46        59.96198
655.88        63.81291
656.31        67.90536
656.74        149.2596
657.16        95.91307
657.59        33.94869
658.02        26.63585
658.45        47.46804
658.87        61.14126
659.30        64.64622
659.73        64.60028
660.15         62.2626
660.58        64.86419
661.01        66.65974
661.44        64.96696
661.86        64.58474
662.29        64.80294
662.72        65.82484
663.14        67.37101
663.57        67.47096
664.00         66.4031
664.42         66.3046
664.85        67.27856
665.27        67.99889
665.70        68.23622
666.13        68.35873
666.55        68.33771
666.98        68.07804
667.41         67.7547
667.83        67.69767
668.26        67.97662
668.69        68.45426
669.11        68.93037
669.54        69.40282
669.96        69.16345
670.39        68.88259
670.82        68.51858
671.24        68.28465
671.67        68.38205
672.09        68.63706
672.52        69.49502
672.94        70.13528
673.37        69.54446
673.80        69.47162
674.22         69.6311
674.65        69.71385
675.07        69.69741
675.50        69.60808
675.92        69.52429
676.35        69.61789
676.77        69.90974
677.20        70.27713
677.62         70.6563
678.05        70.91959
678.47        71.00558
678.90        71.08301
679.32        71.05553
679.75        70.94757
680.17        70.99514
680.60        71.34979
681.02        71.39311
681.45        71.36121
681.87        71.10961
682.30        70.92465
682.72        70.88876
683.15        70.95408
683.57        71.16274
684.00        71.50626
684.42        72.00911
684.85        72.26249
685.27        72.24802
685.70        72.06602
686.12        71.81008
686.54         71.6747
686.97        71.70139
687.39        71.85176
687.82        72.04359
688.24         72.1999
688.66         72.2718
689.09        72.28167
689.51        72.30293
689.94        72.44128
690.36        72.69911
690.78        73.00341
691.21        73.29291
691.63        73.43398
692.06         73.3871
692.48        73.55689
692.90        73.33523
693.33          73.358
693.75        73.45063
694.17        73.61477
694.60        73.82175
695.02        73.95428
695.44        74.04584
695.87        74.24003
696.29        74.54758
696.71        74.29638
697.14        73.71844
697.56        74.22868
697.98        75.53986
698.41        75.41682
698.83        74.63199
699.25        74.16862
699.68        74.34145
700.10         74.4036
700.52        74.36954
700.94        74.64619
701.37        75.13038
701.79        75.53779
702.21        75.76905
702.64        75.91084
703.06        75.93937
703.48        75.81285
703.90        75.56058
704.33        75.19622
704.75        74.82217
705.17        74.69726
705.59        74.88276
706.01        75.19245
706.44        75.48218
706.86        76.16427
707.28        76.16411
707.70        76.31313
708.12        76.34499
708.55        76.32528
708.97        76.25692
709.39        76.13911
709.81        76.03996
710.23         76.0548
710.66        76.20417
711.08        76.49889
711.50        76.79928
711.92        76.89362
712.34         76.7406
712.76        76.38884
713.19        76.01128
713.61        75.92376
714.03         76.1794
714.45        76.68781
714.87        77.22179
715.29        77.41925
715.71        77.20453
716.13        76.69695
716.56        76.12411
716.98        75.88471
717.40        76.07157
717.82        76.56079
718.24        77.15474
718.66        77.51956
719.08        77.55668
719.50        77.37138
719.92        77.08611
720.34        76.91499
720.76         76.9256
721.19        76.91991
721.61        77.09784
722.03        77.24685
722.45        77.40547
722.87        77.58859
723.29        77.77425
723.71        77.91045
724.13        77.98047
724.55        77.98923
724.97        77.97037
725.39        77.95474
725.81        77.95267
726.23        78.02282
726.65        78.15979
727.07         78.0198
727.49        78.12649
727.91        78.08016
728.33        78.07181
728.75        78.13625
729.17        78.27901
729.59        78.48191
730.01        78.71154
730.43        78.86976
730.85        78.96806
731.27        79.17057
731.69        79.40128
732.10        79.41101
732.52        79.17507
732.94        78.84017
733.36        78.59908
733.78        78.55188
734.20        78.72517
734.62        79.50239
735.04        80.55743
735.46        80.35137
735.88         79.2333
736.30        79.48839
736.72         81.0328
737.13        81.60905
737.55         80.9357
737.97        80.74795
738.39        81.10715
738.81        80.45136
739.23        79.22626
739.65        80.05634
740.06        82.40649
740.48        82.62352
740.90         80.8239
741.32        80.02821
741.74        80.51036
742.16        80.76933
742.57         80.8531
742.99        81.60407
743.41        82.78755
743.83        83.53149
744.25        83.68254
744.67        83.46671
745.08        83.10293
745.50         82.9463
745.92        83.10996
746.34        83.45451
746.75        83.86507
747.17         84.1046
747.59         84.1346
748.01        84.17439
748.42        84.29927
748.84        84.33938
749.26        84.49087
749.68        85.19624
750.09         86.2674
750.51        87.21931
750.93        87.71243
751.35        87.12594
751.76        85.83368
752.18         85.2823
752.60        85.50906
753.01        85.75246
753.43        85.40794
753.85        85.59455
754.27        86.14063
754.68        86.86826
755.10        87.57791
755.52        87.94859
755.93        87.98096
756.35        88.03286
756.77        88.19592
757.18        88.29878
757.60        88.44538
758.02        88.92451
758.43        89.17161
758.85        89.58633
759.26        87.01224
759.68        86.33379
760.10        88.05106
760.51        88.95529
760.93        89.09041
761.34         87.9437
761.76         87.4801
762.18        86.86243
762.59        86.95781
763.01        86.98002
763.42        88.79049
763.84        89.54513
764.26        89.65921
764.67         89.6319
765.09        89.51574
765.50         89.2228
765.92        88.71333
766.33        87.56671
766.75        86.19148
767.16         85.7121
767.58        85.98976
768.00        87.72499
768.41        90.32805
768.83        91.84502
769.24        91.68272
769.66        90.70994
770.07        89.47817
770.49        87.75869
770.90        86.14958
771.32        87.20645
771.73         90.1213
772.15        89.83401
772.56        86.80416
772.97        86.17469
773.39        87.89716
773.80        88.59457
774.22        87.97256
774.63        87.76967
775.05        88.00027
775.46        88.17726
775.88        88.23196
776.29        88.16935
776.70        88.03762
777.12        88.06716
777.53         88.2935
777.95        88.57328
778.36        88.77428
778.77        88.66661
779.19        88.27102
779.60        87.69205
780.02        87.14736
780.43        87.08826
780.84        87.67345
781.26        88.17435
781.67        88.56931
782.09        90.15206
782.50        92.13403
782.91        91.03963
783.33        87.75018
783.74        86.60602
784.15        87.83921
784.57        88.72729
784.98        88.87164
785.39        88.92863
785.81        88.83427
786.22        88.41196
786.63        87.98988
787.04        88.06148
787.46        88.67966
787.87        89.72295
788.28        90.84517
788.70        91.35345
789.11        91.09074
789.52        90.45148
789.93        89.70534
790.35        88.87456
790.76        88.24668
791.17        88.52438
791.58        89.48526
792.00        89.96767
792.41        89.79797
792.82        89.64012
793.23        89.71105
793.65         89.5228
794.06        89.34599
794.47        90.61201
794.88        92.46471
795.29         92.0016
795.71        89.26905
796.12        86.88275
796.53        85.51344
796.94        85.06995
797.35        85.66557
797.76        87.12799
798.18        88.78627
798.59        89.88536
799.00        90.02137
799.41        89.15041
799.82        87.76608
800.23        86.90465
800.64        86.80732
801.06        87.06796
801.47        87.58563
801.88        88.08762
802.29        88.43974
802.70        88.76791
803.11        89.02382
803.52        89.08665
803.93        88.96809
804.34        88.65647
804.75        88.30431
805.17        88.30727
805.58        88.79066
805.99        89.24598
806.40        89.50681
806.81        90.28446
807.22        91.01718
807.63        89.56944
808.04        86.70613
808.45         85.5247
808.86        86.30807
809.27        87.51807
809.68        88.62828
810.09        89.32827
810.50        89.34615
810.91        88.80981
811.32        88.02475
811.73        87.48481
812.14        87.33779
812.55        87.38456
812.96        87.59885
813.37        87.92879
813.78        88.30383
814.19        88.81026
814.60        89.16808
815.01        88.91968
815.42        88.02725
815.83         86.5866
816.24        85.14387
816.65        84.66748
817.05        85.43861
817.46        87.14301
817.87        89.09603
818.28        90.06467
818.69        89.69607
819.10        88.28819
819.51        86.55888
819.92        85.73343
820.33        86.13926
820.74         87.4062
821.14        88.86007
821.55        89.30582
821.96        88.50582
822.37        86.90279
822.78        85.15568
823.19        84.22113
823.60        84.34801
824.00        85.28736
824.41        86.55991
824.82        87.46532
825.23        87.69875
825.64        87.50133
826.04        87.08476
826.45        86.76283
826.86         86.6371
827.27         86.5536
827.68        86.51466
828.08        86.59418
828.49        86.71707
828.90        86.97196
829.31        87.21169
829.72        87.13656
830.12        86.72549
830.53        86.05453
830.94         85.4438
831.35        85.33546
831.75        85.85354
832.16         86.8058
832.57        87.94643
832.97        88.75116
833.38        88.95301
833.79        88.70184
834.20        88.24107
834.60        87.94547
835.01        87.94474
835.42        88.10894
835.82        88.27679
836.23        88.09853
836.64        87.54916
837.04        86.78919
837.45        86.04348
837.86        85.65383
838.26        85.71464
838.67        86.07095
839.08        86.58483
839.48        86.99599
839.89        87.15888
840.29        87.16143
840.70        87.01452
841.11        86.71552
841.51        86.30216
841.92        85.74654
842.33        85.19331
842.73        84.90236
843.14        84.89324
843.54        85.15485
843.95        85.46468
844.35        85.51132
844.76        85.20924
845.17        84.67789
845.57        84.11497
845.98          83.836
846.38         83.9142
846.79        84.21826
847.19        84.64722
847.60        84.91619
848.00        84.97852
848.41        84.90297
848.81        84.77835
849.22        84.66204
849.62        84.64397
850.03        84.69211
850.43        84.89001
850.84        85.27893
851.24         85.8913
851.65        86.49774
852.05        87.15436
852.46        87.75761
852.86        88.26274
853.27        88.74382
853.67        88.75704
854.07        87.75845
854.48        85.84204
854.88        83.21964
855.29        80.80077
855.69         79.8932
856.10        80.73515
856.50        83.19287
856.90        86.37186
857.31        88.19552
857.71        88.00718
858.12        86.32361
858.52        84.17449
858.92        82.95221
859.33        82.94461
859.73        83.77778
860.13        85.08531
860.54         86.0964
860.94          86.565
861.34        86.69367
861.75        86.61354
862.15        86.61125
862.55        86.73865
862.96        86.84831
863.36        86.94631
863.76        87.02369
864.17        87.06981
864.57        87.16946
864.97        87.29868
865.38        87.38573
865.78        87.46959
866.18        87.49485
866.58         87.5373
866.99         87.7138
867.39        88.11524
867.79        88.74084
868.19        89.33934
868.60        89.43253
869.00        88.93201
869.40        87.94458
869.80        87.09682
870.21        87.35654
870.61        89.00103
871.01        91.74098
871.41        94.66222
871.81        96.21445
872.22        95.98994
872.62        94.43291
873.02        92.56794
873.42        92.06309
873.82        93.19542
874.22        95.43991
874.63        97.98405
875.03        98.98898
875.43        97.74025
875.83         95.3224
876.23        92.61255
876.63        91.55286
877.03        92.53269
877.44        95.82498
877.84        99.53889
878.24        104.4742
878.64        103.6049
879.04        100.6364
879.44         97.7702
879.84        96.33094
880.24        97.95971
880.64        99.97292
881.04        102.5337
881.44        104.1502
881.84         103.603
882.24        101.5787
882.65        99.41994
883.05        98.72489
883.45        99.77702
883.85        102.1605
884.25        104.9728
884.65        106.5403
885.05        106.3094
885.45        104.8998
885.85        103.1581
886.25        102.2152
886.65        102.3339
887.05        103.1069
887.45        104.2052
887.85        105.0594
888.25        105.4216
888.65        105.5384
889.04        105.3903
889.44        104.9693
889.84        104.3259
890.24        103.4131
890.64        102.5592
891.04        102.3009
891.44        102.7003
891.84        103.6378
892.24        104.6308
892.64        104.7804
893.04        103.9568
893.44        102.5906
893.83        101.2374
894.23        100.7066
894.63        101.1501
895.03        102.2235
895.43        103.8392
895.83        105.7989
896.23        107.8376
896.63        109.9732
897.02        111.5363
897.42         111.457
897.82        109.6717
898.22        106.5857
898.62        103.3344
899.01        101.6054
899.41        101.7701
899.81        103.2652
900.21         105.318
900.61        106.6398
901.00        106.8137
901.40        106.2695
901.80        105.3001
902.20        104.3431
902.59        103.6049
902.99        102.9295
903.39        102.3879
903.79         102.145
904.18        102.2384
904.58        102.6951
904.98        103.4483
905.38        104.3529
905.77        105.2691
906.17        106.1363
906.57        106.8181
906.96        107.1954
907.36        107.1997
907.76        106.8966
908.15        106.3206
908.55        105.4318
908.95        104.3609
909.34        103.1501
909.74        102.1245
910.14        101.5816
910.53         101.623
910.93        102.2286
911.33        103.2024
911.72         104.158
912.12        104.8329
912.52        105.2029
912.91         105.446
913.31        105.8781
913.70        106.6124
914.10        107.5926
914.49        108.4207
914.89        108.0202
915.29        106.2323
915.68        103.4969
916.08        101.1155
916.47        100.2537
916.87        100.9967
917.26        102.9618
917.66        105.1093
918.05        105.7342
918.45        104.4295
918.84        101.8136
919.24        99.04279
919.64        97.81702
920.03        98.57388
920.42        100.7718
920.82        103.5825
921.21        105.6709
921.61        106.3602
922.00        106.1079
922.40        105.2371
922.79        104.1328
923.19        103.0085
923.58        101.7847
923.98        100.5777
924.37        99.62761
924.77        99.21638
925.16        99.12239
925.55        99.78515
925.95        101.0748
926.34        102.9687
926.74        105.1282
927.13        107.0242
927.52         107.618
927.92        106.8485
928.31        105.0463
928.70        102.7484
929.10        100.8841
929.49        99.72536
929.89        99.05512
930.28        99.03354
930.67        99.89691
931.07        101.4408
931.46        103.6578
931.85        105.6908
932.24        106.2499
932.64        105.1252
933.03        102.5526
933.42        99.30491
933.82        97.16774
934.21        96.67464
934.60        97.33823
934.99        98.48322
935.39        99.26059
935.78        99.51534
936.17        99.58655
936.56        99.34751
936.96        98.75707
937.35        97.72806
937.74        96.64819
938.13         95.9809
938.53         96.3114
938.92        97.60965
939.31        99.83891
939.70        102.3496
940.09        103.3627
940.49         102.266
940.88        99.78901
941.27         97.1049
941.66        95.58778
942.05        95.45152
942.44        96.26383
942.84        97.63015
943.23        98.98186
943.62        99.93456
944.01        100.5973
944.40        101.0123
944.79        101.2556
945.18        101.3395
945.57        101.1677
945.97        100.4697
946.36        99.00001
946.75        97.04356
947.14        95.09858
947.53        93.69898
947.92        93.20663
948.31         93.5716
948.70        94.70296
949.09        96.38357
949.48        97.98757
949.87        99.09331
950.26        99.67764
950.65        99.90267
951.04        100.1436
951.43        100.4851
951.82        100.7763
952.21        100.6947
952.60        99.79536
952.99        98.08854
953.38        95.84814
953.77        93.68553
954.16        92.42081
954.55        92.23051
954.94        92.96351
955.33        94.02797
955.72        94.40849
956.11        93.84312
956.50        92.55003
956.89        91.28889
957.28        91.45277
957.66        93.43777
958.05        96.52771
958.44        99.64266
958.83        101.2068
959.22        100.8588
959.61        99.03416
960.00         96.5844
960.39        94.89759
960.78        94.40999
961.16        94.81068
961.55        95.42458
961.94        95.11697
962.33         93.6572
962.72        91.55436
963.11        89.59926
963.49        88.78925
963.88        89.28394
964.27        90.81547
964.66        92.74523
965.04        93.73167
965.43        93.18673
965.82        91.65494
966.21        89.96886
966.60        89.20252
966.98        89.55256
967.37        90.58138
967.76        91.86807
968.15        92.60407
968.53        92.47504
968.92         91.7705
969.31        90.72195
969.69        89.55002
970.08        88.39649
970.47        87.22884
970.86        86.15077
971.24        85.40513
971.63        85.07346
972.02        85.12921
972.40         85.6646
972.79          86.714
973.17        88.30091
973.56        90.22998
973.95        91.99697
974.33        92.64967
974.72        91.89656
975.11        90.04845
975.49        87.96426
975.88        86.86861
976.26        86.94026
976.65        87.95076
977.04        89.22932
977.42        89.12817
977.81        87.13193
978.19        83.96366
978.58        81.32354
978.96        80.88263
979.35        82.86233
979.74        86.88082
980.12        92.10169
980.51        95.39634
980.89        95.78466
981.28        94.07439
981.66        91.50861
982.05        89.71623
982.43        89.02193
982.82        88.89909
983.20        89.34962
983.59        90.52557
983.97        92.45277
984.35        95.25999
984.74        98.15653
985.12        99.63174
985.51        98.68737
985.89        95.61191
986.28        91.40289
986.66        87.78976
987.04        85.72768
987.43        85.00764
987.81         85.0617
988.20        85.18326
988.58        85.15673
988.96        85.03023
989.35        85.44681
989.73        88.26808
990.12        93.21528
990.50        98.69962
990.88         101.831
991.27        101.0823
991.65        97.00377
992.03        90.11691
992.42        82.64922
992.80        78.86329
993.18        80.03687
993.56        84.06801
993.95        88.56747
994.33        91.20128
994.71         91.5209
995.10        90.61263
995.48        88.91907
995.86        86.91848
996.24        84.86178
996.63        82.30109
997.01        79.87319
997.39        79.61729
997.77        82.25761
998.15        87.32359
998.54        92.49665
998.92        94.83528
999.30         93.4333
999.68        88.99287
1000.06        82.82786
1000.45        78.28828
1000.83        76.71851
1001.21        77.08363
1001.59         78.5563
1001.97        80.25357
1002.35        81.87663
1002.73        84.05943
1003.12         85.8468
1003.50        84.77119
1003.88        80.17947
1004.26         73.7514
1004.64        68.18198
1005.02        65.57904
1005.40        66.04044
1005.78        69.48145
1006.16        76.93726
1006.54        86.18771
1006.92        92.05558
1007.30        94.19498
1007.69        94.36119
1008.07        94.36929
1008.45        94.76302
1008.83        94.95213
1009.21        94.34394
1009.59        90.45576
1009.97        75.59419
1010.35        51.54699
1010.73        49.25903
1011.11        56.39614
1011.49        61.87551
1011.86        67.39288
1012.24        71.00792
1012.62        73.27988
1013.00        75.10031
1013.38        76.68256
1013.76        79.80032
1014.14        88.77932
1014.52        106.3258
1014.90        132.7588
1015.28        161.0547
1015.66        174.4552
1016.04        162.5631
1016.41        128.0708
1016.79        87.58236
1017.17        59.97692
1017.55        48.26569
1017.93        45.13671
1018.31        46.42593
1018.69        50.43451
1019.06        57.02301
1019.44         67.2217
1019.82        84.23268
1020.20        110.3408
1020.58        147.9167
1020.95        205.1326
1021.33        310.1553
1021.71       -1131.868
1022.09         33.5259
1022.46        100.4968
1022.84        125.4328
1023.22        141.8968
1023.60        166.6172
1023.97         369.418
1024.35        35.43253
1024.73         79.8868
