SpectraSmart Spectrum 2.9.0.0
--------- Device Information -----------
Spectrum Name :  反射率_0
Saving Time :  2024/04/26 00:07:52
Spectro-Module Model Name : SE2030-DUVN
Spectro-Module Serial Number : OS361AC55029948
Wavelength Start : 200
Wavelength End : 1025
Wavelength Unit : Wavelength(nm)
Spectrum Unit : Reflectance(%)
-----------Spectrum Setting ------------
Integration Time : 20ms
Average : 10
Boxcar : 0
Background removal :  enabled
linearity correction :  enabled
SC :  disabled
Intensity correction :  disabled
DWT denoise :  enabled
savitzky-golay :  disabled
FFT :  disabled
Running average :  disabled
Kalman :  disabled
High pass :  disabled
---------------BEGIN--------------------
Wavelength(nm)             Reflectance(%)
200.29               0
200.75        78.47424
201.21        70.62756
201.67        61.17691
202.13        55.20593
202.58        53.39597
203.04        54.58222
203.50        57.39746
203.96        59.42344
204.42        59.81974
204.88        59.46376
205.34        58.94695
205.80        58.79449
206.26        59.24487
206.72        60.43903
207.18        62.43927
207.64        62.98583
208.10        59.49643
208.55        55.37159
209.01        53.39011
209.47         53.6849
209.93        55.43921
210.39        58.62492
210.85        61.58389
211.31        60.66665
211.77        55.12202
212.23        46.44878
212.69        38.36871
213.14        36.66927
213.60        42.14249
214.06        53.28742
214.52        66.04755
214.98        74.08858
215.44        75.66136
215.90        72.56249
216.36        67.51653
216.81        64.32605
217.27        64.06309
217.73        65.35606
218.19        66.12302
218.65        63.52866
219.11         56.4228
219.57        44.04411
220.02         27.7749
220.48        17.03531
220.94        17.69641
221.40        27.81373
221.86        38.86423
222.32        41.57598
222.77        36.55762
223.23        28.43542
223.69        21.72595
224.15        21.03451
224.61        25.86944
225.06        33.83343
225.52        41.79749
225.98        45.91473
226.44        45.44455
226.90        42.11956
227.36        37.86895
227.81        35.23109
228.27        35.13936
228.73         36.5344
229.19         38.7324
229.65        40.75378
230.10        42.17257
230.56        43.27844
231.02        44.16539
231.48        44.88479
231.93        45.47625
232.39        45.92074
232.85        46.15966
233.31        46.18695
233.77        45.99176
234.22        45.53759
234.68        44.98428
235.14        44.58335
235.60        44.43139
236.05        44.55303
236.51         44.6389
236.97         44.1291
237.43        42.90342
237.88        41.03978
238.34        39.04847
238.80        38.54203
239.26        40.32159
239.71        44.11206
240.17         48.7324
240.63        52.39564
241.08         54.4665
241.54        55.24371
242.00        55.20444
242.46        55.11714
242.91        55.38437
243.37        55.46943
243.83        56.87732
244.28        71.09102
244.74        104.7118
245.20        109.0549
245.66        100.8382
246.11        94.88043
246.57        88.38275
247.03        73.45041
247.48        20.52438
247.94      -0.5176563
248.40        43.76482
248.85        62.73016
249.31        71.34991
249.77        76.57856
250.22        81.30564
250.68        87.40186
251.14        94.46909
251.59        96.43741
252.05        88.89501
252.51        75.66243
252.96        63.15049
253.42        56.69792
253.88        55.50463
254.33        57.67386
254.79        62.59354
255.25        68.61108
255.70        74.24177
256.16        79.45426
256.62         82.6397
257.07        82.19689
257.53        79.07198
257.99        73.95521
258.44        68.67857
258.90        66.25149
259.35        65.90372
259.81        66.59405
260.27        66.53763
260.72        64.01719
261.18        59.74506
261.63        54.46969
262.09        49.73485
262.55        46.66294
263.00        45.15714
263.46        44.69002
263.91         44.3604
264.37        43.48001
264.83        41.89296
265.28        39.80111
265.74        37.76963
266.19        36.40235
266.65        35.91642
267.11        35.94578
267.56        36.03434
268.02        35.64774
268.47        34.66999
268.93        33.30013
269.38        31.76794
269.84        30.67609
270.30         30.1877
270.75        30.14233
271.21        30.24617
271.66        30.06657
272.12        29.48522
272.57        28.64305
273.03        27.79473
273.48        27.23552
273.94        27.05064
274.39        27.08675
274.85        27.14282
275.31        26.92188
275.76        26.35944
276.22        25.59376
276.67        24.78228
277.13        24.23871
277.58        23.97322
278.04        23.90514
278.49        23.84818
278.95        23.59562
279.40        23.08756
279.86        22.46392
280.31        21.80379
280.77        21.32843
281.22        21.04481
281.68        20.89535
282.13        20.82113
282.59        20.77159
283.04        20.71438
283.50        20.69915
283.95        20.65392
284.41         20.4844
284.86        20.17951
285.32        19.77007
285.77        19.40413
286.22        19.36512
286.68        19.66121
287.13        20.17809
287.59        20.65616
288.04        20.70169
288.50        20.27935
288.95        19.52206
289.41         18.7069
289.86        18.14997
290.32        17.97644
290.77        18.05559
291.22        18.29764
291.68        18.53059
292.13        18.70342
292.59        18.87817
293.04        19.07345
293.50        19.31323
293.95        19.59792
294.40        19.88356
294.86        20.17002
295.31        20.47837
295.77        20.81204
296.22        21.17406
296.68        21.52676
297.13        21.77531
297.58        21.92545
298.04        22.02378
298.49        22.16195
298.95        22.51737
299.40        23.10714
299.85        23.86212
300.31        24.66453
300.76        25.34015
301.21        25.81964
301.67        26.17741
302.12        26.41472
302.58        26.58477
303.03        26.70195
303.48        26.76168
303.94        26.87014
304.39         27.1592
304.84        27.64672
305.30        28.28626
305.75        28.90418
306.20        29.23668
306.66        29.25758
307.11        29.04494
307.57         28.7875
308.02        28.69912
308.47         28.8578
308.93        29.18246
309.38        29.58782
309.83        29.97012
310.29        30.27254
310.74        30.51905
311.19        30.69301
311.65        30.76532
312.10        30.74049
312.55          30.629
313.00        30.45972
313.46        30.29613
313.91        30.15586
314.36        30.04296
314.82        29.99149
315.27        30.03393
315.72        30.17188
316.18        30.38626
316.63        30.61135
317.08        30.71618
317.53        30.66533
317.99        30.48372
318.44        30.25096
318.89        30.09991
319.35        30.05816
319.80        30.09769
320.25        30.13566
320.70        30.03669
321.16        29.77518
321.61        29.39975
322.06        29.00712
322.51        28.74032
322.97        28.62158
323.42        28.61641
323.87        28.63256
324.32        28.51918
324.78        28.23878
325.23        27.84783
325.68        27.43318
326.13        27.13826
326.59         26.9985
327.04        26.98961
327.49        27.04389
327.94        27.05275
328.39        26.98225
328.85        26.85254
329.30        26.73831
329.75        26.72499
330.20        26.83374
330.66        27.01317
331.11        27.21132
331.56        27.30364
332.01         27.2545
332.46        27.08236
332.92        26.84936
333.37        26.70361
333.82        26.68214
334.27        26.76779
334.72         26.8618
335.17        26.79505
335.63        26.53172
336.08         26.1301
336.53         25.7512
336.98        25.65359
337.43        25.88577
337.88        26.36969
338.34        26.87936
338.79         27.0925
339.24        26.90376
339.69         26.4083
340.14        25.83403
340.59        25.58029
341.05        25.74079
341.50        26.18117
341.95        26.68711
342.40        26.94861
342.85        26.89314
343.30        26.63516
343.75        26.27415
344.20        25.98192
344.66        25.82421
345.11        25.70768
345.56        25.64434
346.01        25.65399
346.46        25.71555
346.91        25.84721
347.36        25.91498
347.81        25.69585
348.26         25.1815
348.72        24.47829
349.17        23.79074
349.62        23.53706
350.07        23.80718
350.52         24.4543
350.97        25.25059
351.42        25.84646
351.87        26.13088
352.32        26.19436
352.77        26.09666
353.22        25.94006
353.67        25.77073
354.13        25.55706
354.58        25.31048
355.03        25.09535
355.48         24.9289
355.93        24.82353
356.38        24.74635
356.83         24.6269
357.28        24.44793
357.73        24.22253
358.18        23.99541
358.63        23.83747
359.08        23.76179
359.53        23.74962
359.98        23.73151
360.43        23.60158
360.88        23.34344
361.33        22.98846
361.78          22.638
362.23        22.45626
362.68        22.47078
363.13        22.62034
363.58        22.78202
364.03        22.76414
364.48         22.5249
364.93        22.13331
365.38        21.68221
365.83        21.32108
366.28        21.09831
366.73        20.96363
367.18        20.89307
367.63         20.8487
368.08        20.80548
368.53        20.77969
368.98        20.73616
369.43        20.61125
369.88        20.40185
370.33        20.13016
370.78        19.84905
371.23        19.65505
371.68        19.57599
372.13        19.57722
372.58        19.64474
373.03        19.74923
373.48        19.86214
373.93        19.98693
374.38        20.06182
374.83        19.99336
375.28        19.77294
375.72        19.41689
376.17        19.04372
376.62        18.80993
377.07        18.75734
377.52        18.83901
377.97        18.97459
378.42        19.02946
378.87        18.96493
379.32        18.82705
379.77        18.65657
380.22        18.50893
380.67        18.40129
381.11        18.31392
381.56        18.23395
382.01        18.15344
382.46        18.06838
382.91        17.98311
383.36        17.90546
383.81        17.84307
384.26        17.79596
384.71        17.76236
385.15        17.71345
385.60        17.61967
386.05        17.46924
386.50         17.2646
386.95        17.05368
387.40        16.92204
387.85        16.89184
388.29        16.93822
388.74        16.99309
389.19         16.9405
389.64        16.76535
390.09        16.49182
390.54        16.22216
390.98        16.12765
391.43        16.24944
391.88        16.52048
392.33         16.7911
392.78        16.84257
393.23        16.65007
393.67        16.28914
394.12        15.93222
394.57         15.7621
395.02        15.81398
395.47        16.02098
395.91        16.28471
396.36        16.40734
396.81        16.33406
397.26        16.12127
397.71        15.85711
398.15        15.65432
398.60        15.56803
399.05        15.56234
399.50        15.57745
399.95        15.48842
400.39        15.34683
400.84        15.13416
401.29        14.94461
401.74        14.91403
402.18        15.08008
402.63          15.374
403.08        15.68969
403.53        15.85822
403.97        15.83784
404.42        15.68151
404.87        15.46486
405.32        15.32044
405.76        15.28912
406.21        15.33012
406.66        15.40983
407.11        15.48803
407.55        15.55309
408.00        15.61664
408.45        15.66328
408.90        15.65136
409.34        15.57419
409.79        15.44342
410.24        15.30804
410.68        15.23773
411.13         15.2504
411.58        15.33445
412.03         15.4465
412.47        15.51009
412.92        15.49233
413.37        15.41328
413.81        15.33073
414.26        15.34945
414.71        15.47709
415.15        15.68272
415.60        15.86616
416.05        15.88782
416.49        15.72064
416.94        15.42425
417.39        15.09824
417.83        14.91159
418.28        14.91865
418.73        15.05394
419.17        15.25482
419.62        15.42118
420.07        15.51985
420.51        15.58186
420.96        15.59079
421.41        15.51568
421.85        15.36103
422.30        15.15828
422.74        14.95815
423.19        14.87053
423.64        14.89917
424.08        15.02411
424.53        15.18401
424.98         15.2958
425.42        15.33546
425.87        15.31845
426.31        15.26061
426.76        15.23453
427.21        15.23205
427.65        15.12992
428.10        15.01448
428.54        15.11897
428.99        15.45474
429.44        15.91985
429.88        16.32353
430.33        16.41952
430.77        16.17051
431.22        15.66289
431.66        15.11494
432.11         14.9165
432.56        15.10635
433.00        15.48999
433.45         15.8848
433.89        16.17489
434.34        16.24436
434.78        15.98599
435.23        15.62921
435.67        15.65853
436.12        16.02286
436.57        16.16864
437.01        16.03666
437.46        15.93641
437.90        15.90289
438.35        15.85005
438.79        15.77872
439.24        15.73387
439.68        15.72869
440.13        15.69012
440.57        15.64892
441.02          15.858
441.46        16.19101
441.91         16.0934
442.35        15.65487
442.80        15.44642
443.24        15.46694
443.69        15.56641
444.13        15.65768
444.58        15.52485
445.02        15.22262
445.47         15.1484
445.91        15.27769
446.36        15.27404
446.80        15.12617
447.24        15.03482
447.69        15.01818
448.13        15.00205
448.58        14.99316
449.02        15.00886
449.47        15.03944
449.91        15.06674
450.36        15.08823
450.80        15.09865
451.25        15.11346
451.69        15.14765
452.13        15.20439
452.58        15.26513
453.02        15.31542
453.47        15.33003
453.91        15.30721
454.36        15.26248
454.80        15.19638
455.24        15.10936
455.69        15.01835
456.13        14.91872
456.58        14.85959
457.02        14.88918
457.46        15.01534
457.91        15.21099
458.35        15.41101
458.79        15.50539
459.24        15.48059
459.68        15.35796
460.13        15.21192
460.57        15.11963
461.01        15.12021
461.46        15.18192
461.90        15.27345
462.34        15.33629
462.79        15.34946
463.23        15.32351
463.68         15.2941
464.12        15.31981
464.56        15.41262
465.01        15.56219
465.45        15.67685
465.89        15.67854
466.34         15.5697
466.78        15.29456
467.22        14.99219
467.67        15.03711
468.11        15.38852
468.55        15.58488
468.99        15.56366
469.44        15.54028
469.88        15.56225
470.32        15.68474
470.77        15.86275
471.21        15.91029
471.65        15.80932
472.10        15.71307
472.54        15.65328
472.98        15.63053
473.42        15.65895
473.87        15.74565
474.31        15.85228
474.75         15.9116
475.20        15.91303
475.64        15.86604
476.08        15.81161
476.52        15.81256
476.97        15.88284
477.41        16.00707
477.85        16.13375
478.29        16.21171
478.74        16.22947
479.18        16.12249
479.62         15.9555
480.06        16.09733
480.50        16.23033
480.95         16.3829
481.39        16.39651
481.83        16.36783
482.27        16.28824
482.72        16.03189
483.16        15.71725
483.60        15.73042
484.04        16.09484
484.48        16.36383
484.93         16.6747
485.37        17.06368
485.81        17.46219
486.25        17.49533
486.69        23.25446
487.14        18.42654
487.58        12.28405
488.02        14.98047
488.46        17.11965
488.90        16.92086
489.34        16.96986
489.79        16.79095
490.23        17.70455
490.67         18.3048
491.11        18.30462
491.55        18.16023
491.99         17.8574
492.43        17.61727
492.88        17.52846
493.32        17.55311
493.76        17.57536
494.20        17.77176
494.64        18.08524
495.08        18.46284
495.52        18.84915
495.96        19.18374
496.41        19.39394
496.85        19.47342
497.29        19.45157
497.73        19.18911
498.17        18.93188
498.61        19.13624
499.05        19.79257
499.49        19.95391
499.93         20.0876
500.37        20.23172
500.82         20.3206
501.26        20.54052
501.70        20.78654
502.14        20.88821
502.58        20.84499
503.02        20.85826
503.46        20.94047
503.90        20.97416
504.34        20.95854
504.78        20.94417
505.22        20.93748
505.66        20.93745
506.10        20.94124
506.54        20.94149
506.98        20.94282
507.42        20.94959
507.86        20.99493
508.30        21.12931
508.74        21.35043
509.18        21.62981
509.62        21.90522
510.06        22.07512
510.50        22.11557
510.94        22.06535
511.38        21.96232
511.82        21.86842
512.26        21.81094
512.70        21.76903
513.14        21.77076
513.58        21.86068
514.02        22.02609
514.46        22.24713
514.90        22.44614
515.34        22.46315
515.78        22.24608
516.22        21.99728
516.66        21.81407
517.10         21.4127
517.54        20.82815
517.98        21.63298
518.42         21.4762
518.86        21.84515
519.30        22.01561
519.74        22.21731
520.18        22.39777
520.62        22.44222
521.06        22.36522
521.50        22.17724
521.93        21.94825
522.37        21.80752
522.81        21.78748
523.25        21.85217
523.69        21.96151
524.13        22.04973
524.57        22.09222
525.01        22.10947
525.45        22.09739
525.89        22.04824
526.32        21.96444
526.76         21.8467
527.20        21.71688
527.64        21.62142
528.08        21.57288
528.52        21.53779
528.96        21.49202
529.40        21.45402
529.83        21.42888
530.27        21.20053
530.71        21.18665
531.15        21.04576
531.59        20.91008
532.03        20.76514
532.46        20.66425
532.90        20.69383
533.34        20.85124
533.78        21.10342
534.22        21.34722
534.66        21.43019
535.09        21.31915
535.53        21.06857
535.97         20.7682
536.41        20.56765
536.85        20.51228
537.28         20.5654
537.72         20.6687
538.16        20.72675
538.60         20.7154
539.04        20.65273
539.47        20.59352
539.91        20.66915
540.35        20.87049
540.79        21.07731
541.22        21.24096
541.66        21.37386
542.10        21.45805
542.54        21.46011
542.97        21.42962
543.41        21.48024
543.85        21.62963
544.29        21.85838
544.72        22.09279
545.16        22.22683
545.60        22.24076
546.04        22.16462
546.47        22.10855
546.91        22.25512
547.35        22.62148
547.79        23.14669
548.22        23.66895
548.66        23.91664
549.10        23.85187
549.53         23.6003
549.97        23.32359
550.41        23.21104
550.84        23.32448
551.28        23.61572
551.72        24.00902
552.15        24.36476
552.59        24.62448
553.03        24.82656
553.46        24.97378
553.90        25.08936
554.34         25.1909
554.77        25.24078
555.21          25.253
555.65        25.33254
556.08        25.50174
556.52        25.42537
556.96        25.69014
557.39        25.80149
557.83        25.93667
558.27        26.07284
558.70        26.21357
559.14        26.34836
559.57        26.46249
560.01        26.56986
560.45        26.64478
560.88        26.64857
561.32        26.60223
561.75        26.50562
562.19        26.42364
562.63        26.41702
563.06        26.49471
563.50        26.64552
563.93        26.82261
564.37        26.96366
564.80        27.04269
565.24        27.08764
565.68        27.12224
566.11        27.18582
566.55        27.30736
566.98        27.46454
567.42        27.65089
567.85        27.84862
568.29        28.06591
568.72          28.231
569.16        28.39918
569.60        28.70928
570.03        29.02642
570.47        29.12081
570.90        29.11777
571.34         28.6277
571.77        29.05798
572.21        29.29622
572.64         29.2083
573.08        28.86676
573.51        27.96233
573.95        29.25597
574.38        31.13944
574.82        30.61613
575.25        30.16545
575.69        29.10278
576.12        28.62364
576.56        28.68191
576.99        29.61669
577.42        30.42154
577.86        30.45463
578.29        30.24903
578.73        31.68712
579.16        29.21533
579.60        26.79837
580.03        28.03457
580.47        29.84492
580.90        30.24818
581.33        29.54251
581.77        29.19466
582.20        31.87109
582.64        31.25126
583.07        26.84983
583.51        26.23026
583.94        25.61861
584.37        26.73367
584.81        27.91136
585.24        29.26667
585.68        29.88275
586.11        28.92043
586.54        26.86211
586.98        26.22483
587.41        26.73666
587.85        27.90319
588.28        28.57929
588.71        27.24658
589.15        26.46161
589.58        27.01634
590.01        27.42357
590.45        27.69697
590.88        27.71445
591.31         27.3209
591.75        27.27537
592.18         27.3882
592.61        27.96865
593.05         28.2138
593.48        29.84639
593.91        29.47412
594.35        27.45285
594.78        26.98746
595.21        27.12566
595.65        28.41484
596.08        29.38466
596.51        28.38647
596.94        27.90622
597.38         28.4503
597.81        29.75825
598.24        30.62012
598.68        30.31588
599.11        30.27859
599.54        31.29939
599.97        32.70507
600.41        30.84916
600.84        31.36455
601.27        32.21599
601.70        32.10529
602.14        32.36988
602.57        32.28822
603.00        32.93661
603.43        34.44917
603.87        35.55637
604.30        35.76099
604.73        35.04942
605.16        34.95215
605.60        36.02602
606.03        37.08002
606.46        37.86518
606.89           38.21
607.32        37.71038
607.76         37.9966
608.19        39.67267
608.62        39.47344
609.05        39.16131
609.48        39.86593
609.92        40.21793
610.35        40.46191
610.78        41.94378
611.21        42.46375
611.64        41.14141
612.07         41.9412
612.50        42.52393
612.94        43.16647
613.37        43.22607
613.80        43.56376
614.23        44.21252
614.66        44.45536
615.09        44.92536
615.52        45.20089
615.96        45.36603
616.39        45.70419
616.82        45.46014
617.25        45.48611
617.68        46.30037
618.11        47.10094
618.54        47.82363
618.97        47.76329
619.40        47.25059
619.84        47.16755
620.27        48.34595
620.70        49.02602
621.13         49.2951
621.56        49.02981
621.99        48.46684
622.42        49.11549
622.85        50.64252
623.28        50.36203
623.71        50.21129
624.14        50.16279
624.57        49.97117
625.00        49.86055
625.43        49.82807
625.86        49.23904
626.29        49.10612
626.72        49.27412
627.15        48.88246
627.58        48.85133
628.01        48.81632
628.44         48.7254
628.87        48.55915
629.30        48.43065
629.73        48.30119
630.16        47.99814
630.59        47.51584
631.02        46.95311
631.45        46.37357
631.88        45.81322
632.31        45.28884
632.74        44.92139
633.17        44.45772
633.60        44.05976
634.03        43.64502
634.46        43.23151
634.89        42.80378
635.32        42.33972
635.75         41.8413
636.18         41.3128
636.61        40.77972
637.04        40.28124
637.47        39.82287
637.89        39.39558
638.32        38.97528
638.75        38.54905
639.18         38.1187
639.61        37.70216
640.04        37.30285
640.47        36.91711
640.90        36.54948
641.33        36.19975
641.76        35.88015
642.18        35.66526
642.61        35.56295
643.04        35.47108
643.47        35.34417
643.90        35.56625
644.33        35.39091
644.76         35.4245
645.18         35.4489
645.61        35.48358
646.04        35.52378
646.47          35.561
646.90        35.65084
647.33        35.85397
647.75        36.19394
648.18        36.68406
648.61        37.19617
649.04        37.52464
649.47        37.64013
649.89        37.52171
650.32        37.43867
650.75        37.89693
651.18        38.87366
651.61        39.99086
652.03        40.96504
652.46        41.40507
652.89        41.58899
653.32        41.86773
653.74        42.45134
654.17        43.90302
654.60        44.82545
655.03        43.83778
655.46        45.16916
655.88        48.17551
656.31        51.50544
656.74        117.5479
657.16        76.24061
657.59         26.9966
658.02        20.81669
658.45         36.9322
658.87         47.8058
659.30        50.55225
659.73        50.59939
660.15        49.34818
660.58        51.53066
661.01        53.24102
661.44        52.00325
661.86        51.77641
662.29        52.04115
662.72        53.08938
663.14        54.68044
663.57         54.9592
664.00        54.13705
664.42        54.16885
664.85        55.14525
665.27        55.84949
665.70        56.09515
666.13        56.26748
666.55        56.34784
666.98        56.23182
667.41        56.06127
667.83        56.10485
668.26        56.42402
668.69        56.91904
669.11        57.41154
669.54        57.89177
669.96        57.76662
670.39         57.5542
670.82        57.27812
671.24        57.28638
671.67        57.66507
672.09        58.20905
672.52        58.74392
672.94        59.34615
673.37        58.99368
673.80        58.96055
674.22        59.02763
674.65         59.1048
675.07        59.19547
675.50        59.25936
675.92        59.33119
676.35        59.51697
676.77        59.82153
677.20        60.14458
677.62        60.45747
678.05        60.71623
678.47        60.89299
678.90         61.0176
679.32        61.10407
679.75        61.06056
680.17        61.13994
680.60        61.15703
681.02        61.18168
681.45        61.16506
681.87        61.11991
682.30        61.16055
682.72        61.29768
683.15         61.3517
683.57        61.42262
684.00        61.82997
684.42        62.61534
684.85        62.97447
685.27        62.89019
685.70        62.68034
686.12        62.47583
686.54        62.41447
686.97        62.54021
687.39        62.82807
687.82        63.15451
688.24         63.3584
688.66        63.37637
689.09        63.26741
689.51        63.14494
689.94        63.16586
690.36        63.37904
690.78        63.72543
691.21        64.11097
691.63        64.39085
692.06        64.52351
692.48        64.56062
692.90         64.5746
693.33        64.64647
693.75        64.79649
694.17        65.04918
694.60        65.34872
695.02        65.44183
695.44        65.32639
695.87        65.54816
696.29        66.06265
696.71        65.88187
697.14        65.23237
697.56        65.72007
697.98        67.07467
698.41        67.05424
698.83        66.33382
699.25        65.90848
699.68        66.06229
700.10         66.0903
700.52         66.0117
700.94        66.19979
701.37        66.57544
701.79        66.91254
702.21        67.12749
702.64         67.2874
703.06        67.36401
703.48        67.30454
703.90        67.13107
704.33        66.86752
704.75        66.58891
705.17        66.50114
705.59        66.65128
706.01        66.87096
706.44        67.08231
706.86         67.6999
707.28        67.76871
707.70        68.11922
708.12        68.41006
708.55        68.27734
708.97        67.82874
709.39        67.71274
709.81        67.95997
710.23         68.0509
710.66        67.97854
711.08        68.11442
711.50        68.38162
711.92        68.49476
712.34         68.4244
712.76        68.23859
713.19        68.05332
713.61        68.08442
714.03        68.35939
714.45         68.8048
714.87        69.24321
715.29        69.39975
715.71        69.21932
716.13        68.79292
716.56        68.30277
716.98        68.07335
717.40        68.18093
717.82        68.52827
718.24        68.96647
718.66        69.24021
719.08        69.27425
719.50        69.15309
719.92        68.95726
720.34        68.83237
720.76        68.82879
721.19        68.78174
721.61        68.90121
722.03        69.04951
722.45        69.27027
722.87        69.55591
723.29        69.84765
723.71        70.03631
724.13        70.09249
724.55        70.04181
724.97        69.93701
725.39        69.87348
725.81        69.88277
726.23        69.94125
726.65        70.02803
727.07         70.1072
727.49        70.16848
727.91           70.23
728.33        70.29627
728.75        70.36971
729.17        70.44731
729.59        70.51817
730.01        70.58687
730.43        70.65621
730.85        70.73315
731.27        70.84571
731.69        70.96355
732.10        71.01727
732.52        70.99759
732.94        70.94907
733.36        70.95803
733.78        71.06523
734.20        71.28272
734.62        71.73624
735.04        72.53213
735.46        72.38563
735.88        71.64635
736.30        71.91299
736.72        73.13219
737.13        73.64541
737.55        73.20274
737.97        73.20269
738.39        73.63192
738.81        72.92392
739.23        71.54501
739.65        72.22072
740.06        74.47353
740.48        74.69929
740.90        72.99722
741.32        72.28593
741.74        72.82656
742.16         73.1797
742.57          73.375
742.99        74.19896
743.41        75.38882
743.83        76.06998
744.25        76.09216
744.67        75.67912
745.08        75.11839
745.50        74.88831
745.92        75.13106
746.34        75.67291
746.75        76.31641
747.17         76.7317
747.59        76.85273
748.01        76.79762
748.42        76.70609
748.84        76.84787
749.26        77.30265
749.68        77.73375
750.09        78.09195
750.51        78.84364
750.93        79.69394
751.35        79.40971
751.76        78.26456
752.18        77.89536
752.60         78.3364
753.01        78.46525
753.43        78.25365
753.85        78.37843
754.27        78.85641
754.68        79.41307
755.10        79.93987
755.52        80.41663
755.93        80.76671
756.35        80.93776
756.77        81.02398
757.18        80.99712
757.60        80.94165
758.02        81.23762
758.43        81.60934
758.85        80.81001
759.26        79.38851
759.68        78.93598
760.10        80.38923
760.51        81.22773
760.93        81.41169
761.34        80.03253
761.76        79.85193
762.18         79.1774
762.59        78.97869
763.01        79.26659
763.42         80.0396
763.84        80.80025
764.26        81.35284
764.67        81.63725
765.09         81.6161
765.50        81.42365
765.92         81.0359
766.33        80.04104
766.75        78.81037
767.16        78.15129
767.58        78.33241
768.00        79.66985
768.41        81.83051
768.83        83.33967
769.24         83.6139
769.66        82.98708
770.07        81.90465
770.49        80.48259
770.90        79.19848
771.32        80.00558
771.73        82.24254
772.15        81.74972
772.56        79.01347
772.97        78.49989
773.39        80.15482
773.80         80.9484
774.22        80.58049
774.63        80.62374
775.05        81.02538
775.46        81.22001
775.88        81.12439
776.29        80.77877
776.70         80.3326
777.12        80.17313
777.53        80.38049
777.95        80.77693
778.36        81.16662
778.77        81.21116
779.19        80.88007
779.60        80.29757
780.02        79.69762
780.43        79.54591
780.84        79.99543
781.26        80.38107
781.67        80.67604
782.09        81.97132
782.50         83.6117
782.91        82.68542
783.33        79.96938
783.74        79.11995
784.15        80.31577
784.57        81.31189
784.98        81.66865
785.39        81.58418
785.81        81.07935
786.22        80.50771
786.63        80.17779
787.04        80.17161
787.46        80.55403
787.87        81.45235
788.28        82.55664
788.70        83.15297
789.11        83.08961
789.52        82.64199
789.93        82.05095
790.35        81.55966
790.76        81.30512
791.17         81.3992
791.58        81.72968
792.00        81.84486
792.41        81.65504
792.82        81.55612
793.23         81.6189
793.65        81.22278
794.06        80.78844
794.47        81.94637
794.88        83.73261
795.29        84.49243
795.71         81.2367
796.12        79.09974
796.53        77.87156
796.94        77.54858
797.35        78.19153
797.76        79.49316
798.18        80.85175
798.59        81.71124
799.00        81.72383
799.41        80.74793
799.82        79.30235
800.23        78.49526
800.64        78.56283
801.06        79.08185
801.47        79.87555
801.88        80.54475
802.29        80.91573
802.70        81.14271
803.11        81.23425
803.52        81.17291
803.93        81.00249
804.34        80.68404
804.75        80.34748
805.17        80.32726
805.58        80.72554
805.99        81.13321
806.40        81.38725
806.81        82.01207
807.22        82.53855
807.63        81.24226
808.04        78.78201
808.45         77.7382
808.86        78.35931
809.27        79.38049
809.68        80.35767
810.09        81.01043
810.50        81.09501
810.91        80.70763
811.32        80.11429
811.73        79.72111
812.14        79.64389
812.55        79.80187
812.96        80.10029
813.37        80.16821
813.78        80.03319
814.19        80.27074
814.60        80.68395
815.01        80.55183
815.42         79.8363
815.83        78.82954
816.24        77.92524
816.65        77.69079
817.05        78.31957
817.46         79.6224
817.87        81.05206
818.28        81.62033
818.69        81.07424
819.10        79.64878
819.51        78.03894
819.92         77.4415
820.33        78.14945
820.74        79.75636
821.14        81.53424
821.55        82.30188
821.96        81.73347
822.37        80.03359
822.78         77.9584
823.19         76.8381
823.60         76.9711
824.00        77.93716
824.41        79.21015
824.82        80.05051
825.23        80.13433
825.64        79.73024
826.04        79.11572
826.45        78.68901
826.86        78.56665
827.27         78.5644
827.68        78.62496
828.08        78.71691
828.49        78.74425
828.90        78.82578
829.31        78.86021
829.72        78.63506
830.12        78.16537
830.53        77.49728
830.94        76.93797
831.35        76.91382
831.75        77.53121
832.16        78.60766
832.57        79.85661
832.97         80.6749
833.38        80.78503
833.79        80.35603
834.20        79.69242
834.60        79.26241
835.01        79.22153
835.42        79.42446
835.82        79.67877
836.23         79.5833
836.64        79.09186
837.04        78.37833
837.45        77.69173
837.86        77.41207
838.26         77.6349
838.67         78.1867
839.08        78.88252
839.48         79.3886
839.89        79.54147
840.29        79.45138
840.70        79.17065
841.11        78.76199
841.51        78.28896
841.92        77.72011
842.33        77.18615
842.73        76.91759
843.14         76.9325
843.54        77.22702
843.95        77.61153
844.35         77.8197
844.76        77.75565
845.17        77.49277
845.57        77.16694
845.98        77.00733
846.38        77.06561
846.79        77.24258
847.19        77.44469
847.60        77.42229
848.00         77.1676
848.41        76.76276
848.81        76.36298
849.22        76.11197
849.62        76.10522
850.03        76.29608
850.43        76.69027
850.84        77.19904
851.24        77.79996
851.65        78.31369
852.05        78.82354
852.46        79.29906
852.86        79.71977
853.27        80.11311
853.67        80.08579
854.07        79.16669
854.48        77.43913
854.88        75.10907
855.29        72.93511
855.69         71.9913
856.10        72.47559
856.50        74.27667
856.90        76.72558
857.31        78.25203
857.71        78.35296
858.12        77.37828
858.52        76.02568
858.92        75.23893
859.33        75.23032
859.73         75.7477
860.13         76.5801
860.54        77.29134
860.94        77.75809
861.34        78.07124
861.75        78.28488
862.15          78.569
862.55         78.9196
862.96        79.25182
863.36        79.49001
863.76        79.48325
864.17        79.22318
864.57        78.85107
864.97        78.52334
865.38        78.45547
865.78        78.74154
866.18        79.22769
866.58        79.85021
866.99        80.48713
867.39        81.12011
867.79        81.80347
868.19        82.28735
868.60        82.11221
869.00        81.22826
869.40        79.77007
869.80        78.45042
870.21        78.38016
870.61        79.87595
871.01        82.61617
871.41         85.7109
871.81        87.61929
872.22        87.89395
872.62        86.94154
873.02        85.56959
873.42        85.20514
873.82        86.02702
874.22        87.37323
874.63        88.74839
875.03        89.14989
875.43        88.17467
875.83        87.04455
876.23        84.94309
876.63        84.16273
877.03        84.77905
877.44        87.09406
877.84        102.6368
878.24        95.43451
878.64        95.07766
879.04        93.63683
879.44        89.11121
879.84        86.63635
880.24        90.19971
880.64        92.32626
881.04        93.59412
881.44        94.15252
881.84         93.2665
882.24        91.34216
882.65        89.54483
883.05        89.03335
883.45        90.00793
883.85        92.36621
884.25        95.21389
884.65         96.7283
885.05        96.36063
885.45        94.72713
885.85        92.83302
886.25        92.05966
886.65        92.68888
887.05        94.25239
887.45        96.13841
887.85        97.26156
888.25        97.24677
888.65        96.50023
889.04        95.39215
889.44        94.52467
889.84        94.08775
890.24        93.84414
890.64        93.79035
891.04        93.95752
891.44         94.2896
891.84        94.83511
892.24        95.33837
892.64        95.29152
893.04         94.6692
893.44         93.7246
893.83        92.84901
894.23        92.63629
894.63        93.17602
895.03        94.19421
895.43         95.6133
895.83        97.24477
896.23        98.86466
896.63        100.5104
897.02         101.582
897.42        101.1381
897.82        99.15527
898.22        96.01372
898.62        92.85394
899.01        91.35348
899.41        91.84318
899.81        93.76141
900.21        96.20502
900.61        97.67715
901.00        97.74098
901.40        96.89082
901.80        95.61613
902.20        94.67283
902.59         94.3261
902.99        94.30666
903.39        94.50794
903.79        94.78492
904.18        95.05183
904.58        95.42159
904.98        95.87057
905.38        96.33006
905.77         96.7355
906.17        97.03212
906.57        97.18146
906.96        97.20554
907.36        97.06007
907.76        96.78727
908.15        96.36747
908.55        95.65604
908.95        94.73652
909.34        93.66554
909.74        92.75041
910.14        92.26911
910.53        92.31423
910.93        92.85451
911.33        93.72105
911.72        94.60005
912.12        95.24872
912.52        95.63547
912.91        95.90005
913.31        96.27007
913.70        96.84437
914.10        97.59263
914.49        98.15862
914.89        97.65897
915.29        95.98441
915.68        93.51927
916.08        91.42921
916.47        90.76324
916.87        91.58627
917.26        93.57982
917.66        95.75262
918.05        96.48026
918.45        95.36474
918.84        92.95384
919.24        90.40723
919.64         89.4437
920.03        90.48769
920.42        93.02283
920.82        96.05874
921.21        97.96099
921.61        98.03995
922.00        96.88457
922.40        95.16698
922.79        93.78378
923.19        93.05112
923.58        92.62144
923.98        92.26431
924.37        91.86752
924.77        91.55804
925.16        89.69575
925.55         90.0518
925.95        90.53079
926.34        92.23978
926.74        94.58485
927.13        96.88011
927.52        97.77565
927.92        97.08572
928.31        95.27978
928.70         92.9355
929.10        91.03426
929.49        89.87628
929.89        89.21854
930.28        89.21695
930.67        90.12488
931.07        91.74853
931.46        94.08553
931.85        96.29159
932.24        97.10007
932.64        96.28957
933.03        94.03666
933.42        91.07616
933.82        89.09851
934.21        88.60523
934.60        89.18131
934.99        90.07368
935.39        90.43009
935.78        90.12045
936.17        89.11491
936.56        87.35333
936.96        87.81185
937.35        87.03324
937.74        87.67422
938.13         88.4117
938.53        89.37774
938.92        90.59332
939.31         92.2007
939.70        93.72427
940.09        93.84605
940.49        92.27696
940.88        89.64891
941.27        87.06214
941.66         85.7847
942.05        85.95482
942.44        87.15968
942.84        88.95425
943.23        90.60378
943.62        91.67638
944.01        92.34581
944.40        92.59356
944.79        92.41396
945.18        91.82311
945.57        90.67819
945.97        89.12558
946.36        87.75968
946.75         86.9844
947.14        86.79598
947.53         86.9231
947.92        86.96414
948.31        86.84486
948.70        86.67315
949.09        86.57326
949.48        86.79836
949.87         87.3917
950.26        88.15343
950.65        88.89848
951.04        89.41944
951.43        89.63663
951.82        89.59714
952.21         89.2263
952.60        88.44941
952.99        87.32501
953.38        85.91299
953.77        84.52615
954.16        83.58653
954.55        83.19586
954.94        83.35511
955.33        83.69094
955.72        83.54508
956.11        82.78185
956.50         81.5194
956.89         80.4481
957.28        80.82354
957.66        82.95351
958.05        86.15854
958.44        89.30665
958.83        90.73437
959.22        90.08471
959.61        87.83529
960.00        84.89207
960.39        82.74956
960.78        81.90065
961.16        82.00516
961.55        82.51212
961.94        82.45129
962.33        81.57951
962.72        80.32266
963.11        79.20412
963.49         78.8745
963.88        79.44292
964.27        80.71194
964.66        82.25182
965.04        83.17956
965.43        83.04954
965.82        82.19844
966.21        81.20537
966.60        80.83414
966.98        81.24513
967.37        82.15644
967.76        83.20418
968.15        83.68551
968.53        83.36615
968.92        82.46347
969.31        81.36617
969.69        80.53751
970.08        80.10332
970.47        79.97454
970.86        79.88747
971.24        79.40118
971.63        78.41557
972.02        77.06111
972.40        75.88806
972.79        75.83015
973.17        77.22894
973.56        79.73016
973.95         82.5125
974.33        83.97731
974.72        83.56119
975.11         81.7598
975.49        79.58474
975.88        78.43795
976.26        78.54593
976.65        79.58767
977.04        80.81375
977.42        80.49087
977.81        78.10863
978.19        74.46663
978.58          71.328
978.96        70.37112
979.35        71.80462
979.74        75.26918
980.12        79.88871
980.51          82.608
980.89        82.52023
981.28        80.41448
981.66        77.72454
982.05        76.26613
982.43        76.31953
982.82        77.22902
983.20        78.60445
983.59        79.97488
983.97        81.22685
984.35        82.56111
984.74        83.65697
985.12         84.1054
985.51        83.50558
985.89        81.83694
986.28        79.47861
986.66        76.98518
987.04        74.94015
987.43        73.48779
987.81        72.43899
988.20        71.37335
988.58        70.02135
988.96        68.08104
989.35        66.01144
989.73        65.96756
990.12        68.99268
990.50        74.01909
990.88        77.95605
991.27        78.59471
991.65        76.45087
992.03        72.16407
992.42        67.64182
992.80        66.21141
993.18        68.68901
993.56        73.11932
993.95         77.6536
994.33        80.74723
994.71        82.02489
995.10        82.33492
995.48         81.7332
995.86        80.05878
996.24        77.38561
996.63        73.41929
997.01        69.06876
997.39        67.28284
997.77        69.28806
998.15        74.39242
998.54        79.88358
998.92        82.11647
999.30        79.90932
999.68        74.20403
1000.06        66.25105
1000.45        59.44928
1000.83        55.59333
1001.21        53.95058
1001.59        54.05634
1001.97        55.34774
1002.35        57.51646
1002.73        61.17282
1003.12        65.61271
1003.50        67.81285
1003.88        66.22192
1004.26        62.02744
1004.64        57.60928
1005.02        55.21531
1005.40        55.06684
1005.78         56.6722
1006.16        60.85028
1006.54        67.00375
1006.92         71.7604
1007.30        74.27415
1007.69        74.83062
1008.07        74.03842
1008.45        71.71052
1008.83        65.98793
1009.21        51.17937
1009.59        12.81893
1009.97       -67.37941
1010.35       -143.3653
1010.73        -94.5276
1011.11       -29.60396
1011.49        8.085761
1011.86        32.58437
1012.24        45.84379
1012.62        51.76109
1013.00        53.52839
1013.38        51.98547
1013.76        49.11158
1014.14        51.44036
1014.52        64.18696
1014.90        89.12817
1015.28        118.4947
1015.66        129.9502
1016.04        111.3569
1016.41        69.07585
1016.79        27.82428
1017.17         11.8114
1017.55        16.19673
1017.93          27.184
1018.31        38.14074
1018.69        46.18932
1019.06        52.22352
1019.44        58.14919
1019.82        65.88593
1020.20        77.04166
1020.58        92.76253
1020.95        113.8757
1021.33        141.7429
1021.71       -131.2074
1022.09        96.08015
1022.46         111.906
1022.84        120.1171
1023.22        131.0747
1023.60        157.3849
1023.97        410.3028
1024.35       -16.25056
1024.73        35.02961
