SpectraSmart Spectrum 2.9.0.0
--------- Device Information -----------
Spectrum Name :  反射率_0
Saving Time :  2024/04/26 00:48:30
Spectro-Module Model Name : SE2030-DUVN
Spectro-Module Serial Number : OS361AC55029948
Wavelength Start : 200
Wavelength End : 1025
Wavelength Unit : Wavelength(nm)
Spectrum Unit : Reflectance(%)
-----------Spectrum Setting ------------
Integration Time : 20ms
Average : 10
Boxcar : 0
Background removal :  enabled
linearity correction :  enabled
SC :  disabled
Intensity correction :  disabled
DWT denoise :  enabled
savitzky-golay :  disabled
FFT :  disabled
Running average :  disabled
Kalman :  disabled
High pass :  disabled
---------------BEGIN--------------------
Wavelength(nm)             Reflectance(%)
200.29               0
200.75        87.67912
201.21        84.21867
201.67        79.11084
202.13        75.39771
202.58        73.69324
203.04        73.56145
203.50        74.30498
203.96        74.87234
204.42        74.89992
204.88        74.65892
205.34        74.76485
205.80        76.01563
206.26        79.09921
206.72        85.88928
207.18        98.42858
207.64        107.0823
208.10        95.81815
208.55        78.07616
209.01        68.12659
209.47        66.39974
209.93         69.6446
210.39        76.56191
210.85        84.16295
211.31        85.60243
211.77        78.89512
212.23        66.91869
212.69        54.80055
213.14        50.41534
213.60        55.15035
214.06        66.57318
214.52        80.64304
214.98        91.03638
215.44        95.57378
215.90        96.13639
216.36        93.86662
216.81        90.17377
217.27        86.43473
217.73        82.42519
218.19         78.3662
218.65        74.40786
219.11        70.14802
219.57        64.86462
220.02        59.17161
220.48        56.92756
220.94        59.63476
221.40        66.39341
221.86        71.84256
222.32        70.57592
222.77        63.73582
223.23        54.83855
223.69        47.79977
224.15        46.78091
224.61        51.16149
225.06        58.75721
225.52        66.46098
225.98         70.2891
226.44        69.47446
226.90        65.69647
227.36        60.94208
227.81        57.84986
228.27        57.40877
228.73        58.57823
229.19        60.58462
229.65        62.30612
230.10        63.33928
230.56         64.1259
231.02         64.9138
231.48        65.99721
231.93         67.3358
232.39        68.74753
232.85        69.96326
233.31        70.67889
233.77        70.80105
234.22         70.4768
234.68        69.71598
235.14        68.59122
235.60        67.29518
236.05        65.93385
236.51        64.80608
236.97        64.22929
237.43        64.25452
237.88        64.96182
238.34        66.12143
238.80        67.31547
239.26        68.15369
239.71        68.75504
240.17        68.78725
240.63        68.43694
241.08        67.96573
241.54        67.34227
242.00        66.83929
242.46        66.73711
242.91        67.39323
243.37        69.20337
243.83         76.4965
244.28        108.6264
244.74        159.7424
245.20        149.5171
245.66        131.3392
246.11        125.8264
246.57        128.4379
247.03        141.3582
247.48        173.9882
247.94        132.9786
248.40        92.04858
248.85        82.14845
249.31        80.64344
249.77        82.49146
250.22        86.79179
250.68        94.41443
251.14        104.9182
251.59        110.4557
252.05        104.2289
252.51        90.55296
252.96        76.89619
253.42        69.93566
253.88        69.05139
254.33         71.7086
254.79         77.3605
255.25          84.483
255.70        91.29977
256.16        97.71276
256.62         101.727
257.07        101.3229
257.53        97.66489
257.99        91.66238
258.44        85.37617
258.90         82.2226
259.35        81.36675
259.81        81.70265
260.27        81.35241
260.72        78.50565
261.18        73.93802
261.63         68.3778
262.09        63.35266
262.55        59.86499
263.00        57.84089
263.46        56.86592
263.91        56.11295
264.37        55.07685
264.83        53.53283
265.28        51.58017
265.74        49.66288
266.19        48.15401
266.65        47.30298
267.11        46.86434
267.56        46.45856
268.02        45.65753
268.47        44.33171
268.93        42.64447
269.38        40.86831
269.84        39.69595
270.30        39.30234
270.75        39.49537
271.21        39.85727
271.66        39.75596
272.12        39.04087
272.57        37.90604
273.03        36.72536
273.48        35.96858
273.94        35.76799
274.39        35.89977
274.85        36.09604
275.31         35.9465
275.76        35.35519
276.22        34.51176
276.67        33.59613
277.13        32.97424
277.58         32.6553
278.04        32.54345
278.49        32.43258
278.95        32.12237
279.40        31.53364
279.86        30.81681
280.31        30.02798
280.77         29.3742
281.22        28.86021
281.68        28.45692
282.13        28.12139
282.59        27.84257
283.04        27.59111
283.50        27.41873
283.95        27.24807
284.41        26.98801
284.86        26.61854
285.32        26.17026
285.77        25.77789
286.22          25.714
286.68         25.9812
287.13        26.45774
287.59        26.88128
288.04        26.84581
288.50        26.32102
288.95        25.43711
289.41        24.48955
289.86        23.80867
290.32        23.53138
290.77        23.52536
291.22        23.69029
291.68        23.83473
292.13        23.90291
292.59        23.96236
293.04         24.0599
293.50        24.26697
293.95        24.58716
294.40        24.96118
294.86        25.33741
295.31        25.65523
295.77        25.90551
296.22        26.11726
296.68        26.31543
297.13        26.50664
297.58        26.72227
298.04         26.9806
298.49        27.31588
298.95        27.81935
299.40        28.48546
299.85        29.27226
300.31        30.10534
300.76        30.87602
301.21        31.52537
301.67        32.09867
302.12        32.55014
302.58        32.88086
303.03        33.08998
303.48        33.19871
303.94        33.34299
304.39        33.69182
304.84        34.27652
305.30        35.03763
305.75        35.78486
306.20        36.23568
306.66        36.35671
307.11         36.2248
307.57        36.03832
308.02        36.01131
308.47        36.22977
308.93        36.61917
309.38        37.08042
309.83        37.49479
310.29         37.8065
310.74        38.03651
311.19        38.20771
311.65         38.3513
312.10        38.47173
312.55        38.55703
313.00         38.5597
313.46         38.4201
313.91         38.1324
314.36        37.74603
314.82        37.38214
315.27        37.19869
315.72        37.23407
316.18        37.43456
316.63        37.68994
317.08        37.79242
317.53        37.68188
317.99        37.40849
318.44        37.07584
318.89        36.85214
319.35        36.77052
319.80         36.7861
320.25         36.7929
320.70        36.62419
321.16        36.24908
321.61         35.7318
322.06        35.18752
322.51        34.78554
322.97        34.55091
323.42        34.43713
323.87        34.34741
324.32        34.12547
324.78        33.73032
325.23        33.22875
325.68        32.68655
326.13         32.2128
326.59        31.83939
327.04         31.5534
327.49        31.33861
327.94        31.17331
328.39        31.04468
328.85        30.95283
329.30        30.91019
329.75         30.8845
330.20        30.86728
330.66        30.84118
331.11        30.82498
331.56         30.8066
332.01        30.77805
332.46        30.71854
332.92        30.62907
333.37        30.55965
333.82        30.50233
334.27        30.46345
334.72        30.37545
335.17        30.12416
335.63        29.70144
336.08        29.16175
336.53        28.65226
336.98        28.41022
337.43        28.48142
337.88        28.79515
338.34        29.16748
338.79        29.34172
339.24        29.21894
339.69        28.87291
340.14        28.44458
340.59        28.18722
341.05        28.16539
341.50        28.29461
341.95        28.46967
342.40        28.53847
342.85        28.46191
343.30        28.30882
343.75        28.10297
344.20        27.88487
344.66        27.68145
345.11        27.44283
345.56        27.23902
346.01        27.17545
346.46        27.25008
346.91        27.44562
347.36        27.58736
347.81        27.39423
348.26        26.84158
348.72         26.0564
349.17        25.26768
349.62        24.93191
350.07        25.15093
350.52        25.76374
350.97        26.52982
351.42        27.08033
351.87        27.30041
352.32        27.29355
352.77         27.1238
353.22        26.89811
353.67        26.66708
354.13         26.3959
354.58        26.10968
355.03         25.8943
355.48        25.76872
355.93        25.74035
356.38         25.7449
356.83        25.66318
357.28        25.46592
357.73        25.17333
358.18        24.87158
358.63        24.69806
359.08        24.67865
359.53        24.77869
359.98        24.86901
360.43        24.75042
360.88        24.39255
361.33        23.85732
361.78        23.32897
362.23        23.10483
362.68        23.23707
363.13         23.6162
363.58        24.02688
364.03        24.13351
364.48        23.86089
364.93        23.32765
365.38        22.69509
365.83        22.22222
366.28        21.99381
366.73         21.9263
367.18        21.96727
367.63        22.03344
368.08        22.07754
368.53        22.12622
368.98        22.14709
369.43        22.07815
369.88        21.91694
370.33        21.68287
370.78        21.41531
371.23        21.19359
371.68        21.04729
372.13        20.95001
372.58         20.9266
373.03         21.0113
373.48        21.18628
373.93        21.43229
374.38        21.63856
374.83        21.63457
375.28         21.3955
375.72         20.9665
376.17        20.49525
376.62        20.18719
377.07        20.10392
377.52        20.18134
377.97        20.34583
378.42        20.47367
378.87        20.51587
379.32        20.50877
379.77        20.45512
380.22        20.35498
380.67        20.21596
381.11        20.03331
381.56        19.82527
382.01        19.63873
382.46        19.48977
382.91        19.37255
383.36        19.28047
383.81         19.1959
384.26         19.1125
384.71        19.03914
385.15        18.96057
385.60        18.86502
386.05        18.74268
386.50         18.5897
386.95        18.43314
387.40        18.32509
387.85        18.28109
388.29        18.28596
388.74         18.3038
389.19        18.25654
389.64        18.13404
390.09        17.94914
390.54        17.77262
390.98        17.72202
391.43        17.82496
391.88        18.03023
392.33         18.2256
392.78        18.24748
393.23        18.07897
393.67        17.77449
394.12        17.47246
394.57         17.3039
395.02        17.29726
395.47        17.40558
395.91        17.56469
396.36        17.63586
396.81        17.58411
397.26        17.44416
397.71        17.27757
398.15        17.15686
398.60        17.12286
399.05         17.1474
399.50        17.17501
399.95        17.08238
400.39        16.93158
400.84        16.69802
401.29        16.47489
401.74        16.39601
402.18        16.50429
402.63        16.73612
403.08        17.00395
403.53        17.16426
403.97        17.17672
404.42         17.0826
404.87        16.93304
405.32        16.81835
405.76        16.76693
406.21        16.75348
406.66        16.75669
407.11        16.75343
407.55        16.73919
408.00        16.71934
408.45        16.69178
408.90         16.6411
409.34        16.56819
409.79        16.48012
410.24        16.40023
410.68        16.36025
411.13        16.36788
411.58        16.41401
412.03        16.47554
412.47        16.51461
412.92        16.50766
413.37        16.46662
413.81        16.41262
414.26        16.39484
414.71        16.41475
415.15        16.46149
415.60        16.49236
416.05        16.45848
416.49        16.35036
416.94         16.1969
417.39        16.03251
417.83        15.91624
418.28        15.87229
418.73        15.87123
419.17        15.90368
419.62        15.94757
420.07        15.99184
420.51        16.04545
420.96        16.07071
421.41        16.00282
421.85        15.83551
422.30        15.61384
422.74        15.40136
423.19        15.32423
423.64        15.38678
424.08        15.55932
424.53        15.76174
424.98        15.88161
425.42        15.88602
425.87         15.7985
426.31        15.65506
426.76        15.55935
427.21        15.51169
427.65        15.38238
428.10        15.24873
428.54        15.32774
428.99        15.62902
429.44        16.05997
429.88        16.44066
430.33        16.54074
430.77        16.32138
431.22        15.85395
431.66        15.34867
432.11        15.18877
432.56        15.40911
433.00        15.81746
433.45        16.21147
433.89        16.44716
434.34        16.40904
434.78        16.00454
435.23        15.51418
435.67        15.47615
436.12        15.84381
436.57         16.0574
437.01        16.00985
437.46        15.92543
437.90        15.81938
438.35        15.63093
438.79         15.4135
439.24        15.29218
439.68        15.29752
440.13        15.33057
440.57        15.37707
441.02        15.62274
441.46        15.92735
441.91        15.75336
442.35        15.22823
442.80        14.99361
443.24        15.03722
443.69        15.11455
444.13        15.14538
444.58        15.00406
445.02        14.74279
445.47        14.69996
445.91        14.83622
446.36        14.81871
446.80        14.63255
447.24        14.47404
447.69        14.37936
448.13        14.30784
448.58        14.27354
449.02        14.28574
449.47        14.31877
449.91        14.32722
450.36        14.30359
450.80        14.25469
451.25        14.21201
451.69        14.21488
452.13         14.2716
452.58        14.35298
453.02        14.43431
453.47        14.47477
453.91        14.46705
454.36        14.43135
454.80        14.36687
455.24        14.27248
455.69        14.16643
456.13        14.04452
456.58        13.96434
457.02        13.98791
457.46        14.12566
457.91        14.34883
458.35        14.58162
458.79        14.69618
459.24         14.6738
459.68        14.53769
460.13        14.37646
460.57        14.29076
461.01        14.32131
461.46         14.4286
461.90        14.55589
462.34        14.60442
462.79        14.54819
463.23        14.41299
463.68         14.2706
464.12        14.24099
464.56        14.35268
465.01        14.57174
465.45        14.77712
465.89        14.84688
466.34        14.77106
466.78        14.51014
467.22         14.2083
467.67        14.23963
468.11        14.57106
468.55        14.75798
468.99        14.73492
469.44        14.69732
469.88        14.69078
470.32        14.77634
470.77        14.91931
471.21        14.95552
471.65        14.87146
472.10        14.80623
472.54        14.78936
472.98        14.82213
473.42        14.91211
473.87        15.06098
474.31        15.21833
474.75        15.29889
475.20        15.29009
475.64        15.20968
476.08         15.1101
476.52        15.07263
476.97         15.1181
477.41        15.22709
477.85        15.35247
478.29         15.4464
478.74        15.49621
479.18        15.44164
479.62        15.33092
480.06        15.49764
480.50        15.63184
480.95        15.76403
481.39         15.7617
481.83        15.74487
482.27        15.71332
482.72        15.55087
483.16         15.3398
483.60        15.38401
484.04        15.67075
484.48        15.86504
484.93        16.17308
485.37        16.47469
485.81        16.74324
486.25        17.52116
486.69         23.2293
487.14        18.63224
487.58        12.13288
488.02        14.66765
488.46        16.84193
488.90        16.73623
489.34        16.71047
489.79        16.66171
490.23        17.79313
490.67        18.40297
491.11        18.23838
491.55        18.08536
491.99        17.93523
492.43        17.75938
492.88         17.6428
493.32        17.70712
493.76        17.82191
494.20        18.06376
494.64        18.36987
495.08         18.7183
495.52        19.08613
495.96        19.46353
496.41        19.78517
496.85         20.0197
497.29        20.15828
497.73        19.99588
498.17        19.77062
498.61        19.97948
499.05        20.62792
499.49         20.7581
499.93        20.87151
500.37        20.99589
500.82        21.07358
501.26        21.31366
501.70        21.60785
502.14        21.78091
502.58        21.80165
503.02        21.82816
503.46        21.86655
503.90        21.81013
504.34        21.70385
504.78        21.67389
505.22        21.74184
505.66        21.88181
506.10        22.04574
506.54        22.14917
506.98         22.1713
507.42        22.13833
507.86        22.11275
508.30        22.19095
508.74         22.3876
509.18        22.66367
509.62        22.94585
510.06        23.11578
510.50         23.1455
510.94        23.08086
511.38        22.97716
511.82        22.92026
512.26        22.93962
512.70        23.00513
513.14        23.11125
513.58        23.24924
514.02        23.39466
514.46        23.54214
514.90        23.65644
515.34        23.64532
515.78        23.47283
516.22         23.3207
516.66        23.24319
517.10        22.89378
517.54        22.28979
517.98        22.99584
518.42        22.74636
518.86        23.06892
519.30        23.26543
519.74        23.53982
520.18        23.79831
520.62        23.86207
521.06        23.73035
521.50        23.43629
521.93        23.08898
522.37        22.87988
522.81         22.8585
523.25        22.96857
523.69        23.13803
524.13        23.25294
524.57        23.27545
525.01        23.24012
525.45        23.16469
525.89        23.07619
526.32        22.98516
526.76        22.87931
527.20        22.75979
527.64        22.64186
528.08        22.53403
528.52        22.41804
528.96        22.29022
529.40        22.20158
529.83        22.16526
530.27        21.94465
530.71        21.96517
531.15        21.86251
531.59        21.76797
532.03        21.67265
532.46        21.61608
532.90        21.66163
533.34        21.80313
533.78        22.00927
534.22        22.20809
534.66        22.29653
535.09        22.24686
535.53        22.09858
535.97        21.89456
536.41        21.71026
536.85        21.57726
537.28        21.48362
537.72        21.42533
538.16        21.39466
538.60        21.39026
539.04        21.40429
539.47        21.44422
539.91        21.57187
540.35        21.76085
540.79        21.91057
541.22        22.01123
541.66        22.13791
542.10        22.28529
542.54        22.39505
542.97         22.4801
543.41        22.60134
543.85        22.76305
544.29        22.96343
544.72        23.15743
545.16        23.28342
545.60        23.33263
546.04        23.32055
546.47        23.33553
546.91        23.52649
547.35         23.9033
547.79        24.41984
548.22        24.93188
548.66        25.19352
549.10        25.17345
549.53        24.98774
549.97        24.78897
550.41        24.75066
550.84         24.9299
551.28        25.28565
551.72        25.73814
552.15        26.13905
552.59        26.42864
553.03        26.64383
553.46        26.80091
553.90        26.94822
554.34        27.10607
554.77         27.2281
555.21        27.30559
555.65        27.41216
556.08        27.56538
556.52        27.41874
556.96        27.63237
557.39        27.71358
557.83        27.86465
558.27         28.0477
558.70        28.25257
559.14        28.45187
559.57        28.62054
560.01        28.76082
560.45        28.84669
560.88        28.87624
561.32        28.85548
561.75        28.70304
562.19        28.51176
562.63        28.45379
563.06        28.54711
563.50        28.72348
563.93        28.93116
564.37        29.12085
564.80        29.25917
565.24        29.37233
565.68        29.46328
566.11        29.53986
566.55        29.63077
566.98        29.72422
567.42        29.85052
567.85        30.04957
568.29        30.34328
568.72        30.63499
569.16        30.94293
569.60        31.36533
570.03         31.7424
570.47        31.81568
570.90        31.75068
571.34        31.26063
571.77         31.7765
572.21        32.10942
572.64        32.08833
573.08         31.8161
573.51        30.68699
573.95        32.03614
574.38        34.07655
574.82        33.53183
575.25        33.14694
575.69        32.07071
576.12        31.68554
576.56         31.5154
576.99        32.15116
577.42        33.87916
577.86        33.56147
578.29        33.33061
578.73        35.09115
579.16        32.41371
579.60        29.39878
580.03        30.68432
580.47        32.81248
580.90        33.27865
581.33        32.66895
581.77        32.27531
582.20         35.5794
582.64        34.93652
583.07        29.75753
583.51        28.96453
583.94        28.29751
584.37         29.4023
584.81        30.74554
585.24        32.25092
585.68        32.88861
586.11        32.39101
586.54        29.95584
586.98        29.14899
587.41        29.31929
587.85        30.85852
588.28        31.54788
588.71        30.08693
589.15        29.03268
589.58        29.47608
590.01        29.61941
590.45        30.20183
590.88        30.27185
591.31        29.89947
591.75        29.69585
592.18        29.80596
592.61        30.58098
593.05        31.15342
593.48        32.41169
593.91        32.76367
594.35        30.13702
594.78        29.61588
595.21        29.58424
595.65        31.07903
596.08        32.44506
596.51        31.24811
596.94         30.5383
597.38         31.0078
597.81        32.47142
598.24          33.417
598.68         33.0658
599.11        32.86459
599.54        34.53048
599.97        35.90306
600.41        33.71554
600.84        34.22381
601.27        35.35011
601.70        35.15527
602.14        35.53987
602.57        35.43734
603.00        36.20704
603.43        37.56519
603.87        38.98407
604.30        39.18058
604.73        38.33953
605.16        38.18522
605.60        38.85548
606.03        39.95903
606.46        41.08553
606.89         41.2505
607.32        40.68916
607.76        40.97168
608.19        42.75358
608.62        42.55796
609.05        42.18451
609.48         42.7998
609.92         43.0448
610.35        42.98259
610.78        45.15677
611.21        45.68756
611.64        44.12892
612.07        44.82661
612.50          45.372
612.94        45.97482
613.37        45.95199
613.80        46.30954
614.23        47.02559
614.66        47.19066
615.09        47.49474
615.52        47.76622
615.96        48.09426
616.39        48.43791
616.82        47.96382
617.25        48.21276
617.68         48.9837
618.11        49.68309
618.54        50.08068
618.97        49.90136
619.40        49.49319
619.84        49.21688
620.27        50.24513
620.70        50.87724
621.13        51.31493
621.56        50.76725
621.99        50.15826
622.42        50.89282
622.85        52.73911
623.28        52.54908
623.71        52.21872
624.14        52.02232
624.57         51.8266
625.00        51.75823
625.43        51.66709
625.86        51.14612
626.29         51.1683
626.72        51.30515
627.15         50.9535
627.58        50.84918
628.01        50.74142
628.44         50.6246
628.87        50.49782
629.30        50.44316
629.73        50.41319
630.16        50.17679
630.59        49.72268
631.02        49.15166
631.45         48.5433
631.88        47.98988
632.31         47.5226
632.74        47.11735
633.17        46.73918
633.60        46.32947
634.03         45.8718
634.46        45.39075
634.89        44.90111
635.32        44.42253
635.75        43.96512
636.18        43.52251
636.61        43.09031
637.04        42.66158
637.47        42.22841
637.89        41.79195
638.32           41.35
638.75        40.92871
639.18        40.53939
639.61         40.1879
640.04        39.84876
640.47        39.47528
640.90        39.06434
641.33        38.62911
641.76        38.21826
642.18        37.96883
642.61        37.90138
643.04         37.8885
643.47        37.84061
643.90        38.10316
644.33        37.86376
644.76         37.7981
645.18        37.70973
645.61        37.67892
646.04        37.71958
646.47        37.79974
646.90        37.96652
647.33        38.26869
647.75        38.71726
648.18        39.32452
648.61        39.93393
649.04        40.31044
649.47        40.43047
649.89        40.23645
650.32        40.03217
650.75        40.53964
651.18        41.70013
651.61        42.69765
652.03        43.30918
652.46        43.87413
652.89        44.59323
653.32        44.84514
653.74         44.8567
654.17        46.54309
654.60        47.26544
655.03        46.29911
655.46        47.59468
655.88        51.29459
656.31        55.65368
656.74        130.1781
657.16        85.24929
657.59        29.76601
658.02        22.28872
658.45        38.64927
658.87        50.23773
659.30        53.19366
659.73        52.63288
660.15        51.09275
660.58        53.65829
661.01        55.44146
661.44        53.92829
661.86        53.67477
662.29        54.07442
662.72        54.94229
663.14        56.10607
663.57        56.30813
664.00        55.72674
664.42        55.78836
664.85         56.5625
665.27        57.10265
665.70        57.25813
666.13        57.34668
666.55        57.35927
666.98        57.20718
667.41        57.01131
667.83        57.01265
668.26        57.26345
668.69         57.6631
669.11        58.06738
669.54        58.50827
669.96        58.39103
670.39         58.2808
670.82        58.13473
671.24        58.05914
671.67         58.2084
672.09        58.67794
672.52        59.43464
672.94        60.03518
673.37        59.48879
673.80        59.29536
674.22        59.27026
674.65        59.28516
675.07        59.35164
675.50        59.43848
675.92         59.5496
676.35        59.74068
676.77        60.00367
677.20        60.25133
677.62        60.46832
678.05        60.63742
678.47        60.74152
678.90        60.79949
679.32        60.83447
679.75        60.76842
680.17        60.85094
680.60        60.90297
681.02        60.95572
681.45        60.91586
681.87        60.78788
682.30        60.70913
682.72        60.72358
683.15        60.70358
683.57        60.75849
684.00        61.17918
684.42        61.98668
684.85        62.34457
685.27        62.22512
685.70        61.95556
686.12        61.67346
686.54        61.52971
686.97        61.57623
687.39        61.77126
687.82        62.00596
688.24        62.17679
688.66         62.2351
689.09        62.10765
689.51        62.08788
689.94        62.11456
690.36         62.2879
690.78        62.50376
691.21        62.71847
691.63        62.97655
692.06        63.20225
692.48        63.18787
692.90        63.00069
693.33        62.94535
693.75        63.05314
694.17        63.16307
694.60        63.26726
695.02        63.38893
695.44        63.48162
695.87        63.74167
696.29        64.10737
696.71        63.89118
697.14        63.31628
697.56        63.70793
697.98        64.81378
698.41        64.88649
698.83        64.07963
699.25        63.73109
699.68        63.93119
700.10        63.96054
700.52        63.82322
700.94        63.89654
701.37        64.15059
701.79        64.48103
702.21        64.75262
702.64        65.05634
703.06         65.2797
703.48        65.26949
703.90        65.02658
704.33        64.61523
704.75        64.16341
705.17        63.95574
705.59        64.06193
706.01        64.28989
706.44        64.55171
706.86        65.20643
707.28        65.31146
707.70        65.72854
708.12        66.09164
708.55        65.86971
708.97        65.22017
709.39        65.05904
709.81         65.4015
710.23        65.47065
710.66        65.25159
711.08        65.27617
711.50        65.49129
711.92        65.57221
712.34        65.49236
712.76         65.3259
713.19        65.17749
713.61        65.24204
714.03        65.53719
714.45        65.99075
714.87        66.41348
715.29         66.5155
715.71        66.24358
716.13        65.69702
716.56        65.09109
716.98         64.7881
717.40        64.87576
717.82        65.27583
718.24        65.82384
718.66        66.08817
719.08         66.2075
719.50        66.08594
719.92        65.88711
720.34        65.77493
720.76        65.80379
721.19         65.8008
721.61         65.9391
722.03         66.0504
722.45        66.17271
722.87        66.32028
723.29        66.47236
723.71        66.58009
724.13        66.63141
724.55        66.63066
724.97        66.61324
725.39        66.64468
725.81        66.73755
726.23        66.87292
726.65        67.00878
727.07         67.0754
727.49        67.06368
727.91        67.00674
728.33        66.94398
728.75        66.94216
729.17        67.01591
729.59        67.12617
730.01        67.26648
730.43        67.43398
730.85        67.62025
731.27        67.82957
731.69        67.97066
732.10        68.01548
732.52         67.7253
732.94        67.35938
733.36        67.04524
733.78        66.97396
734.20        67.19437
734.62        67.94292
735.04        68.93845
735.46        69.03372
735.88        68.41793
736.30        68.63036
736.72        69.67915
737.13        70.13934
737.55         69.7632
737.97        69.77522
738.39        70.13518
738.81        69.21716
739.23        67.59383
739.65        68.35733
740.06        70.96889
740.48        71.38585
740.90          69.652
741.32        68.77438
741.74        69.28114
742.16        69.51901
742.57        69.60293
742.99        70.34327
743.41        71.47276
743.83        72.01775
744.25        71.87677
744.67        71.52213
745.08         71.1828
745.50        71.01203
745.92         71.1253
746.34        71.52686
746.75        72.06223
747.17        72.40138
747.59         72.4853
748.01        72.42077
748.42        72.35695
748.84        72.51247
749.26        72.94781
749.68        73.53945
750.09        74.14108
750.51        74.59882
750.93         74.8154
751.35        74.60612
751.76        74.13264
752.18        74.00522
752.60        74.21426
753.01        74.22472
753.43        74.05597
753.85        74.16268
754.27        74.57354
754.68        75.09615
755.10        75.59853
755.52        76.01368
755.93        76.26257
756.35        76.29236
756.77        76.27762
757.18        76.31561
757.60        76.43225
758.02        77.11675
758.43        77.94596
758.85         77.1285
759.26        75.26571
759.68        74.89247
760.10        76.35945
760.51        77.03877
760.93        76.72781
761.34        75.70469
761.76        75.48845
762.18        74.77421
762.59        74.28333
763.01         74.2742
763.42        75.50281
763.84        76.21104
764.26        76.50294
764.67        76.77991
765.09        76.98727
765.50        77.13798
765.92        77.06344
766.33        75.83531
766.75        73.99374
767.16        73.39374
767.58        74.23523
768.00        75.60541
768.41        77.15487
768.83         78.5983
769.24        79.28217
769.66        78.59649
770.07        76.79425
770.49        75.17217
770.90        74.12115
771.32        75.08809
771.73        77.36807
772.15        76.99622
772.56         74.3838
772.97        73.84541
773.39        75.33425
773.80        75.82607
774.22        75.13941
774.63        75.11961
775.05        75.69179
775.46        75.95294
775.88        75.79739
776.29        75.48805
776.70        75.16136
777.12        75.06598
777.53        75.26823
777.95        75.62362
778.36        75.96317
778.77        76.00092
779.19        75.71999
779.60        75.22729
780.02        74.71685
780.43        74.61102
780.84        75.04861
781.26        75.34869
781.67        75.52995
782.09        76.82868
782.50        78.58201
782.91        77.73097
783.33        75.00265
783.74        74.11814
784.15         75.2607
784.57        76.05859
784.98        76.15034
785.39        76.14989
785.81        75.97926
786.22         75.3511
786.63        74.64307
787.04        74.55525
787.46        75.15778
787.87        76.21188
788.28        77.38662
788.70        78.05647
789.11        78.04816
789.52        77.72605
789.93        77.25385
790.35        76.50938
790.76        75.74155
791.17        75.66312
791.58        76.19967
792.00        76.41016
792.41        76.18129
792.82        76.29875
793.23        76.77167
793.65        76.40843
794.06        75.59492
794.47        76.64075
794.88        78.78656
795.29           78.52
795.71        76.04634
796.12        74.02677
796.53        73.05475
796.94        72.58431
797.35        72.75741
797.76        73.87891
798.18        75.38627
798.59        76.31103
799.00        76.30315
799.41        75.52069
799.82        74.41754
800.23        73.83021
800.64        73.95556
801.06        74.44761
801.47        75.14484
801.88        75.67989
802.29        75.90597
802.70        75.97053
803.11        75.91278
803.52        75.75302
803.93        75.53973
804.34        75.26289
804.75        75.04969
805.17        75.00259
805.58        75.50334
805.99        75.99684
806.40        76.37886
806.81        76.91011
807.22        77.21429
807.63        76.02486
808.04        73.93977
808.45        73.06707
808.86        73.62374
809.27        74.61083
809.68        75.58873
810.09        76.14867
810.50        76.05655
810.91        75.46438
811.32        74.66758
811.73        74.12686
812.14        73.97638
812.55        74.07373
812.96        74.35788
813.37         74.6067
813.78          74.793
814.19        75.25739
814.60        75.73193
815.01        75.57907
815.42        74.75542
815.83        73.46265
816.24        72.21853
816.65        71.87479
817.05        72.67952
817.46        74.35943
817.87        76.21773
818.28        77.01135
818.69        76.40715
819.10        74.72327
819.51        72.74122
819.92        71.78826
820.33        72.22208
820.74        73.64601
821.14        75.35025
821.55          76.079
821.96        75.54498
822.37        74.18068
822.78        72.61392
823.19         71.7633
823.60        71.87542
824.00        72.70536
824.41        73.79751
824.82        74.47571
825.23        74.46702
825.64        74.00847
826.04        73.39027
826.45        73.02634
826.86        73.02379
827.27        73.21199
827.68        73.43768
828.08        73.49471
828.49        73.25873
828.90        72.88113
829.31        72.43382
829.72        72.02924
830.12        71.76447
830.53        71.57929
830.94        71.56574
831.35        71.83958
831.75        72.43707
832.16        73.27025
832.57        74.17701
832.97        74.79205
833.38        74.92823
833.79        74.66268
834.20        74.22588
834.60        73.98158
835.01        74.04945
835.42        74.33537
835.82        74.63102
836.23         74.5038
836.64        73.91043
837.04        73.01933
837.45        72.16113
837.86        71.85309
838.26        72.21147
838.67        73.03551
839.08        74.01765
839.48        74.60146
839.89        74.57891
840.29        74.14426
840.70        73.49135
841.11        72.89992
841.51        72.48553
841.92        72.13912
842.33         71.9162
842.73        71.92574
843.14        72.12988
843.54        72.55106
843.95        72.98595
844.35        73.14008
844.76        72.93064
845.17        72.45169
845.57        71.88702
845.98        71.53678
846.38        71.48173
846.79        71.61604
847.19        71.86686
847.60        72.01751
848.00        72.03468
848.41        71.96037
848.81        71.87123
849.22        71.80143
849.62        71.81574
850.03        71.89466
850.43        72.05464
850.84        72.25569
851.24        72.51711
851.65        72.68451
852.05        72.91415
852.46        73.28774
852.86        73.80881
853.27        74.47287
853.67        74.82269
854.07         74.2795
854.48        72.87061
854.88        70.79736
855.29        68.80984
855.69        67.98771
856.10        68.53146
856.50        70.31876
856.90        72.64693
857.31        73.90224
857.71        73.61508
858.12        72.21405
858.52        70.51302
858.92        69.56934
859.33        69.60503
859.73        70.31803
860.13        71.46269
860.54        72.50599
860.94        73.24233
861.34        73.78992
861.75        74.11134
862.15        74.24634
862.55        74.19521
862.96        73.90683
863.36          73.536
863.76        73.34515
864.17        73.41636
864.57         73.7637
864.97        74.26923
865.38        74.71917
865.78        75.09453
866.18         75.3531
866.58        75.59402
866.99        75.98225
867.39        76.58824
867.79        77.37857
868.19        77.99881
868.60        77.81118
869.00        76.70523
869.40         74.9016
869.80        73.21134
870.21        72.88235
870.61        74.26764
871.01        76.99506
871.41        80.12516
871.81         82.0368
872.22        82.26505
872.62        81.25203
873.02        79.78756
873.42        79.32841
873.82        79.99662
874.22        80.93094
874.63        81.79341
875.03        81.98335
875.43        81.21728
875.83        80.91248
876.23        79.02007
876.63        78.05421
877.03        77.80298
877.44         78.4373
877.84        105.9447
878.24         85.8063
878.64        86.75026
879.04        87.78364
879.44        83.05631
879.84         80.6743
880.24        85.68168
880.64        87.86529
881.04        88.25614
881.44        88.24536
881.84        87.50619
882.24        86.13931
882.65        84.98643
883.05        84.73951
883.45        85.52279
883.85        87.44386
884.25        89.76976
884.65        90.89951
885.05        90.39391
885.45         88.7916
885.85        87.00137
886.25        86.27817
886.65        86.86664
887.05        88.34554
887.45        90.13087
887.85        91.18086
888.25        91.13478
888.65        90.36542
889.04         89.2403
889.44        88.36192
889.84        87.92037
890.24        87.69706
890.64        87.65266
891.04        87.75944
891.44        87.95702
891.84        88.29809
892.24        88.62566
892.64        88.60476
893.04        88.22738
893.44        87.67404
893.83        87.16203
894.23        87.03314
894.63         87.3339
895.03        87.85367
895.43        88.66293
895.83        89.85753
896.23        91.31628
896.63        93.00851
897.02        94.20958
897.42        93.76463
897.82        91.59412
898.22        88.17285
898.62        84.74364
899.01        83.12034
899.41        83.66769
899.81        85.78237
900.21        88.50932
900.61        90.27719
901.00        90.61594
901.40        90.01619
901.80         89.0001
902.20        88.38467
902.59        88.41894
902.99        88.77746
903.39        89.24404
903.79        89.50119
904.18        89.43392
904.58        89.25486
904.98        89.03593
905.38        88.84808
905.77        88.71633
906.17        88.57547
906.57        88.47787
906.96        88.56825
907.36        88.77955
907.76        89.09145
908.15        89.31503
908.55        89.02019
908.95        88.20176
909.34        86.98627
909.74        85.76569
910.14        84.97423
910.53        84.76575
910.93        85.06295
911.33        85.75433
911.72        86.63065
912.12        87.45029
912.52        88.15868
912.91        88.74831
913.31        89.23428
913.70        89.67928
914.10        90.07088
914.49        90.17239
914.89        89.48117
915.29        88.01454
915.68        86.04608
916.08        84.42662
916.47        83.86884
916.87        84.39887
917.26        85.80097
917.66        87.35506
918.05        87.90065
918.45        87.14665
918.84        85.49259
919.24        83.73016
919.64        83.01785
920.03        83.65418
920.42         85.2749
920.82        87.28218
921.21        88.75316
921.61        89.19175
922.00        88.92639
922.40         88.1965
922.79        87.36231
923.19        86.65029
923.58         85.7973
923.98        84.75916
924.37        84.14123
924.77        84.31899
925.16        82.04272
925.55        83.45723
925.95        84.16772
926.34        85.94068
926.74        88.21543
927.13        90.41769
927.52        91.30992
927.92        90.72024
928.31        89.09143
928.70        86.91869
929.10        85.06828
929.49          83.813
929.89        82.94792
930.28        82.71357
930.67         83.5075
931.07         85.1618
931.46        87.61462
931.85        89.91858
932.24        90.64202
932.64        89.52869
933.03        86.80745
933.42        83.28511
933.82        80.81847
934.21        80.01264
934.60        80.41591
934.99        81.21782
935.39        81.62792
935.78        81.51467
936.17        80.57339
936.56        78.59501
936.96        79.95417
937.35        78.54822
937.74        79.18102
938.13        79.79984
938.53        80.63592
938.92        81.73545
939.31        83.23062
939.70         84.7776
940.09        85.23692
940.49        84.30775
940.88        82.48078
941.27        80.63791
941.66        79.83244
942.05        80.18928
942.44        81.34984
942.84        82.92933
943.23        84.31078
943.62          85.117
944.01         85.4873
944.40        85.41264
944.79        84.87685
945.18        83.88787
945.57        82.35201
945.97        80.41574
946.36        78.64767
946.75        77.54785
947.14        77.13642
947.53        77.22182
947.92         77.4913
948.31        77.85794
948.70        78.42111
949.09        79.14143
949.48        79.86127
949.87        80.42926
950.26        80.71464
950.65        80.82384
951.04        81.01432
951.43        81.32825
951.82        81.72117
952.21        81.84842
952.60        81.17622
952.99        79.68104
953.38        77.59467
953.77        75.58625
954.16        74.60323
954.55        74.81553
954.94        76.00967
955.33        77.44496
955.72        77.85638
956.11        76.93532
956.50        75.00622
956.89        72.98039
957.28        72.54926
957.66        74.24448
958.05        77.26883
958.44        80.56383
958.83        82.57413
959.22        82.88826
959.61        81.94849
960.00        80.32306
960.39        78.92957
960.78         78.1095
961.16        77.63241
961.55        77.25137
961.94        76.59534
962.33        75.60101
962.72        74.49407
963.11        73.57639
963.49        73.16837
963.88        73.28342
964.27        73.85647
964.66        74.50278
965.04        74.48415
965.43        73.56158
965.82        72.09986
966.21        70.78644
966.60        70.49868
966.98         71.3665
967.37        73.05695
967.76        75.07686
968.15         76.4156
968.53        76.67073
968.92        76.10254
969.31        75.09373
969.69        74.13644
970.08        73.40676
970.47        72.80556
970.86        72.24712
971.24        71.61034
971.63        70.90836
972.02        70.23663
972.40        69.90367
972.79        70.38509
973.17        71.83987
973.56        73.98486
973.95        76.22851
974.33        77.44585
974.72        77.18261
975.11        75.74754
975.49        73.86725
975.88        72.55837
976.26        71.97027
976.65        71.88892
977.04        71.76308
977.42        70.44349
977.81        67.80397
978.19         64.5133
978.58        62.04606
978.96        61.74335
979.35        63.75318
979.74        67.82215
980.12        73.14252
980.51        76.72137
980.89        77.53021
981.28        76.21713
981.66        74.04333
982.05        72.68714
982.43        72.47038
982.82        72.78129
983.20        73.48894
983.59        74.47401
983.97        75.71027
984.35        77.41593
984.74         78.9757
985.12        79.22342
985.51        77.54613
985.89         74.1302
986.28        70.22288
986.66        67.75969
987.04        67.43068
987.43        68.64641
987.81        70.26017
988.20        70.89194
988.58        70.15907
988.96        67.94794
989.35        64.69526
989.73        63.13528
990.12        65.11847
990.50        69.58559
990.88        73.22007
991.27        73.33543
991.65        70.33083
992.03        65.02035
992.42        59.52021
992.80         57.5374
993.18        60.00475
993.56        64.71535
993.95        69.55228
994.33        72.74052
994.71        73.86717
995.10        73.90968
995.48        73.01311
995.86         71.1356
996.24        68.39871
996.63        64.45802
997.01        60.32547
997.39        59.20665
997.77        62.37918
998.15        69.12069
998.54        76.21094
998.92         79.3529
999.30        77.28258
999.68        70.98019
1000.06        62.33608
1000.45        56.07738
1000.83        54.12444
1001.21        55.00217
1001.59        57.22313
1001.97        59.12208
1002.35        60.20134
1002.73        61.22297
1003.12        61.52261
1003.50        59.36493
1003.88        54.74372
1004.26        49.03711
1004.64        44.21675
1005.02        41.61855
1005.40        41.16838
1005.78        42.72163
1006.16        47.48717
1006.54        55.34239
1006.92        62.18927
1007.30        66.05186
1007.69        67.44955
1008.07        67.83231
1008.45        67.51665
1008.83        65.76323
1009.21        58.96688
1009.59        33.08052
1009.97       -42.54439
1010.35       -151.5524
1010.73       -135.1738
1011.11       -65.59975
1011.49        -14.8436
1011.86        20.99061
1012.24        41.10036
1012.62        49.20931
1013.00        49.83858
1013.38         44.8563
1013.76        36.32265
1014.14        32.61948
1014.52         41.2621
1014.90        64.33507
1015.28        94.93145
1015.66        110.2288
1016.04        96.78627
1016.41        60.37054
1016.79        23.11433
1017.17        7.101432
1017.55        9.168009
1017.93        17.43435
1018.31        25.59179
1018.69        30.56606
1019.06        32.61486
1019.44        32.12005
1019.82         30.2021
1020.20        30.59211
1020.58        38.07347
1020.95        60.35643
1021.33        97.94446
1021.71        13.93833
1022.09        119.1795
1022.46        137.7334
1022.84        151.2097
1023.22        167.8722
1023.60        205.2751
1023.97        562.2896
1024.35        -40.0872
1024.73         28.7456
