SpectraSmart Spectrum 2.9.0.0
--------- Device Information -----------
Spectrum Name :  反射率_0
Saving Time :  2024/04/25 23:55:37
Spectro-Module Model Name : SE2030-DUVN
Spectro-Module Serial Number : OS361AC55029948
Wavelength Start : 200
Wavelength End : 1025
Wavelength Unit : Wavelength(nm)
Spectrum Unit : Reflectance(%)
-----------Spectrum Setting ------------
Integration Time : 20ms
Average : 10
Boxcar : 0
Background removal :  enabled
linearity correction :  enabled
SC :  disabled
Intensity correction :  disabled
DWT denoise :  enabled
savitzky-golay :  disabled
FFT :  disabled
Running average :  disabled
Kalman :  disabled
High pass :  disabled
---------------BEGIN--------------------
Wavelength(nm)             Reflectance(%)
200.29               0
200.75        87.52898
201.21        80.39245
201.67        71.92173
202.13        66.24013
202.58        63.94254
203.04        64.32693
203.50        66.33669
203.96        68.10031
204.42        68.83825
204.88        68.94707
205.34        69.06452
205.80        70.00428
206.26        72.32606
206.72        77.27721
207.18         85.6059
207.64        88.37802
208.10        75.49786
208.55        60.36263
209.01        52.83054
209.47        52.08665
209.93        55.45191
210.39        62.32252
210.85        69.89622
211.31         71.6861
211.77        65.74079
212.23        54.35649
212.69        43.09558
213.14        40.62844
213.60        48.30753
214.06        63.55836
214.52        80.33311
214.98        89.32137
215.44         88.3521
215.90        80.69646
216.36        70.77752
216.81        64.72157
217.27        64.13594
217.73        66.77598
218.19        69.79807
218.65        69.60944
219.11          65.061
219.57        55.98804
220.02        44.21943
220.48        38.70712
220.94        43.86975
221.40        56.45746
221.86        67.58404
222.32        68.52605
222.77        60.60012
223.23        49.17086
223.69        39.18323
224.15        35.54694
224.61        37.84408
225.06        43.64025
225.52        49.90757
225.98        52.98458
226.44        52.13618
226.90        48.93609
227.36        45.22412
227.81        43.39598
228.27        44.24393
228.73        46.65769
229.19        49.58397
229.65        51.53803
230.10        52.15913
230.56        52.09083
231.02        51.88674
231.48        52.15067
231.93        52.91936
232.39        53.92028
232.85        54.86984
233.31        55.42886
233.77        55.46704
234.22        55.09196
234.68        54.34386
235.14        53.29704
235.60        52.10799
236.05        50.88972
236.51        49.74304
236.97        48.66221
237.43        47.65221
237.88        46.81099
238.34        46.34385
238.80        46.91039
239.26        48.72745
239.71        51.58872
240.17        54.82103
240.63        57.75952
241.08        60.09246
241.54        61.77713
242.00        62.68712
242.46        62.68166
242.91        61.70884
243.37         58.3334
243.83        50.47026
244.28        44.01065
244.74        71.79197
245.20        100.3913
245.66        105.8239
246.11        107.7464
246.57        110.9105
247.03        117.6774
247.48        128.3736
247.94         97.2663
248.40        79.89902
248.85        77.33774
249.31        77.70818
249.77         78.8495
250.22        80.58819
250.68        83.32175
251.14        86.77381
251.59        87.64597
252.05        83.68027
252.51         77.1216
252.96        70.23977
253.42        65.09306
253.88        61.27098
254.33        58.14492
254.79         57.4574
255.25        60.85545
255.70        67.17496
256.16        74.77586
256.62        80.43378
257.07        81.05582
257.53        77.63647
257.99        71.55089
258.44        65.44134
258.90        63.14869
259.35        63.72422
259.81        65.52848
260.27         66.2028
260.72        63.52135
261.18        58.37078
261.63        51.91982
262.09        46.09789
262.55        42.46276
263.00        40.93726
263.46         40.7502
263.91        40.81034
264.37        40.22557
264.83         38.8192
265.28        36.83997
265.74          34.926
266.19         33.7808
266.65        33.59149
267.11        33.93615
267.56         34.2394
268.02        33.82642
268.47        32.60126
268.93        30.82506
269.38        28.88973
269.84        27.68871
270.30        27.45982
270.75        27.94093
271.21        28.66547
271.66        28.94013
272.12        28.57316
272.57        27.78129
273.03        26.88833
273.48        26.30062
273.94        26.14179
274.39        26.21937
274.85        26.32789
275.31        26.17247
275.76        25.68551
276.22        25.01581
276.67          24.309
277.13        23.84954
277.58         23.6451
278.04        23.62267
278.49        23.60751
278.95        23.41314
279.40        22.97968
279.86        22.43025
280.31        21.84243
280.77        21.43391
281.22        21.20862
281.68        21.11958
282.13        21.08108
282.59        21.00383
283.04        20.85955
283.50        20.71111
283.95         20.5537
284.41        20.39642
284.86        20.23553
285.32        20.05868
285.77        19.91966
286.22        19.96058
286.68        20.16508
287.13        20.47092
287.59        20.69591
288.04        20.56324
288.50        20.06719
288.95        19.30082
289.41        18.50919
289.86        17.95963
290.32        17.76518
290.77        17.82418
291.22        18.04383
291.68        18.24331
292.13        18.37461
292.59        18.49033
293.04        18.64766
293.50        18.93606
293.95        19.35629
294.40        19.83749
294.86        20.29793
295.31        20.63286
295.77        20.82401
296.22         20.9165
296.68        20.95848
297.13        20.99739
297.58        21.07968
298.04        21.21112
298.49        21.42632
298.95        21.80964
299.40        22.35304
299.85        23.02204
300.31        23.72462
300.76        24.32648
301.21        24.76851
301.67        25.09868
302.12        25.31627
302.58          25.474
303.03        25.58156
303.48        25.63982
303.94        25.72564
304.39         25.9251
304.84        26.25505
305.30        26.68451
305.75        27.09931
306.20        27.32827
306.66        27.35766
307.11        27.23252
307.57         27.0721
308.02        26.98802
308.47        27.03694
308.93        27.17395
309.38        27.36263
309.83        27.57622
310.29        27.77963
310.74        27.96919
311.19        28.10766
311.65        28.13593
312.10        28.04601
312.55        27.86041
313.00          27.602
313.46        27.32207
313.91        27.04328
314.36        26.77702
314.82        26.57933
315.27        26.51802
315.72        26.60188
316.18        26.80514
316.63        27.04761
317.08        27.17347
317.53        27.13706
317.99        26.96541
318.44        26.74327
318.89        26.61318
319.35          26.603
319.80        26.67621
320.25        26.73623
320.70        26.62709
321.16        26.32102
321.61        25.87832
322.06        25.41523
322.51        25.10207
322.97        24.97112
323.42        24.98122
323.87        25.03456
324.32        24.96888
324.78        24.73895
325.23         24.3983
325.68        24.03159
326.13        23.77787
326.59        23.67144
327.04        23.68768
327.49         23.7505
327.94        23.73906
328.39        23.62034
328.85        23.41891
329.30         23.2361
329.75        23.20873
330.20        23.36666
330.66        23.64259
331.11        23.94062
331.56        24.06549
332.01        23.96387
332.46        23.67636
332.92        23.29973
333.37        23.03973
333.82        22.96231
334.27        23.03407
334.72        23.15482
335.17        23.14857
335.63        22.97034
336.08        22.68238
336.53        22.41657
336.98        22.38232
337.43        22.61874
337.88        23.05384
338.34        23.50399
338.79        23.72025
339.24        23.61384
339.69        23.25791
340.14        22.82891
340.59        22.63447
341.05        22.74605
341.50        23.06697
341.95        23.43262
342.40        23.60282
342.85        23.52426
343.30        23.28873
343.75        22.98387
344.20        22.76058
344.66        22.66883
345.11        22.62014
345.56        22.61174
346.01        22.63958
346.46        22.68133
346.91        22.76279
347.36        22.76795
347.81         22.5048
348.26        21.97527
348.72        21.27835
349.17        20.61612
349.62        20.40201
350.07        20.71849
350.52        21.41616
350.97        22.25473
351.42        22.86524
351.87        23.13419
352.32         23.1603
352.77        23.01049
353.22        22.80015
353.67        22.58353
354.13        22.32708
354.58        22.05762
355.03        21.86047
355.48        21.75495
355.93        21.74939
356.38        21.78158
356.83        21.73383
357.28        21.57779
357.73        21.33535
358.18        21.08606
358.63        20.95774
359.08        20.97382
359.53        21.09798
359.98        21.21671
360.43         21.1557
360.88        20.88703
361.33        20.46634
361.78        20.04364
362.23        19.86172
362.68        19.96283
363.13        20.25227
363.58        20.56423
364.03         20.6414
364.48        20.42364
364.93        20.00632
365.38        19.49448
365.83        19.05548
366.28        18.75436
366.73        18.53982
367.18         18.4175
367.63         18.3976
368.08        18.45996
368.53        18.60275
368.98        18.75028
369.43        18.77556
369.88        18.65536
370.33        18.42397
370.78        18.14765
371.23        17.94846
371.68        17.86638
372.13        17.86221
372.58         17.9206
373.03        18.01232
373.48        18.11034
373.93        18.22009
374.38        18.29593
374.83        18.26434
375.28        18.11823
375.72        17.87161
376.17        17.60565
376.62        17.41507
377.07        17.33269
377.52        17.32977
377.97        17.38579
378.42        17.46347
378.87        17.53584
379.32        17.60494
379.77        17.64465
380.22        17.61517
380.67        17.51368
381.11        17.35588
381.56        17.15955
382.01        16.96781
382.46        16.79981
382.91        16.64382
383.36        16.52096
383.81        16.46024
384.26        16.45892
384.71        16.51167
385.15        16.55106
385.60        16.48476
386.05        16.29246
386.50         15.9954
386.95        15.68128
387.40        15.50794
387.85        15.51352
388.29        15.64235
388.74        15.79542
389.19        15.82372
389.64        15.70515
390.09        15.48063
390.54        15.24466
390.98        15.15407
391.43        15.25067
391.88        15.46697
392.33        15.68943
392.78        15.75361
393.23        15.63806
393.67         15.4016
394.12        15.16222
394.57        15.02892
395.02        15.02717
395.47          15.111
395.91        15.24019
396.36        15.32361
396.81        15.33112
397.26        15.27957
397.71        15.18505
398.15        15.05426
398.60        14.92297
399.05        14.79907
399.50        14.67284
399.95        14.48781
400.39        14.30755
400.84        14.09404
401.29        13.92698
401.74        13.92044
402.18        14.10144
402.63        14.41131
403.08         14.7396
403.53        14.90884
403.97        14.87475
404.42        14.68564
404.87        14.42694
405.32        14.25176
405.76        14.20689
406.21        14.25025
406.66        14.32975
407.11        14.37482
407.55        14.37069
408.00        14.33915
408.45        14.29979
408.90        14.27592
409.34        14.27552
409.79        14.28329
410.24        14.29935
410.68        14.32847
411.13        14.37271
411.58        14.43536
412.03         14.4956
412.47         14.5188
412.92        14.48803
413.37        14.41207
413.81        14.33144
414.26        14.32403
414.71        14.39454
415.15        14.52615
415.60        14.64337
416.05        14.64239
416.49        14.50353
416.94        14.27364
417.39        14.02622
417.83        13.88783
418.28        13.89805
418.73        14.00042
419.17         14.1515
419.62        14.27919
420.07        14.35885
420.51        14.41628
420.96        14.41995
421.41        14.31491
421.85        14.10579
422.30        13.83559
422.74        13.58413
423.19        13.49727
423.64        13.58299
424.08        13.80834
424.53        14.08034
424.98        14.25508
425.42        14.28866
425.87        14.21457
426.31        14.08014
426.76        14.00639
427.21        14.00128
427.65        13.93342
428.10        13.86942
428.54        14.00357
428.99        14.33815
429.44        14.78454
429.88        15.16249
430.33        15.24945
430.77        15.00624
431.22        14.48312
431.66        13.91071
432.11        13.71573
432.56        13.93989
433.00        14.37877
433.45        14.82749
433.89        15.11725
434.34        15.12163
434.78        14.76722
435.23        14.31185
435.67        14.25122
436.12        14.54686
436.57        14.68038
437.01        14.58692
437.46         14.5259
437.90        14.52026
438.35        14.50068
438.79        14.46342
439.24        14.44346
439.68        14.45121
440.13        14.41211
440.57        14.36518
441.02        14.56771
441.46        14.90643
441.91        14.84978
442.35        14.45246
442.80        14.23938
443.24         14.1892
443.69        14.10214
444.13         13.9571
444.58        13.72832
445.02        13.48956
445.47         13.5218
445.91        13.75293
446.36        13.81709
446.80        13.67764
447.24        13.53192
447.69        13.43306
448.13        13.37122
448.58        13.36711
449.02        13.42033
449.47        13.48441
449.91        13.48369
450.36        13.40871
450.80        13.28054
451.25        13.16897
451.69        13.17107
452.13        13.30339
452.58        13.51462
453.02        13.73673
453.47        13.86207
453.91        13.86776
454.36         13.7951
454.80        13.67175
455.24        13.54534
455.69        13.44992
456.13        13.36471
456.58        13.33497
457.02        13.40696
457.46        13.58432
457.91        13.84464
458.35        14.11036
458.79        14.24797
459.24        14.23845
459.68        14.10602
460.13        13.94275
460.57        13.85711
461.01        13.89167
461.46        14.00404
461.90         14.1389
462.34        14.19882
462.79        14.15734
463.23        14.04119
463.68        13.91409
464.12         13.8815
464.56        13.97122
465.01         14.1556
465.45        14.33021
465.89        14.39409
466.34        14.34119
466.78        14.12915
467.22        13.88698
467.67        13.96319
468.11        14.32095
468.55        14.52469
468.99        14.51947
469.44        14.51595
469.88        14.55971
470.32         14.7018
470.77        14.88669
471.21        14.91746
471.65        14.77594
472.10        14.61694
472.54        14.49528
472.98        14.45148
473.42        14.50832
473.87         14.6611
474.31        14.84983
474.75        14.97278
475.20        15.00932
475.64        14.97639
476.08        14.93182
476.52        14.96605
476.97        15.09639
477.41        15.29512
477.85         15.4877
478.29         15.5855
478.74        15.57004
479.18         15.3967
479.62        15.15483
480.06         15.2338
480.50        15.34441
480.95        15.50459
481.39        15.55256
481.83           15.56
482.27        15.51276
482.72        15.29756
483.16        15.02749
483.60        15.07088
484.04         15.4449
484.48        15.72452
484.93        16.02798
485.37        16.39004
485.81        16.75703
486.25        16.86611
486.69        22.18309
487.14        17.84593
487.58        11.71568
488.02        14.34626
488.46         16.3526
488.90        16.53326
489.34        16.69704
489.79        16.51744
490.23        17.16659
490.67        17.57343
491.11        17.54071
491.55        17.48757
491.99        17.35332
492.43        17.17747
492.88        17.02378
493.32        16.97609
493.76        16.95568
494.20        17.12775
494.64        17.44824
495.08        17.86511
495.52        18.31013
495.96         18.7009
496.41        18.95716
496.85        19.07808
497.29        19.08596
497.73        18.83442
498.17        18.56621
498.61        18.73131
499.05        19.33201
499.49        19.46977
499.93        19.60846
500.37        19.77561
500.82        19.89744
501.26        20.14014
501.70        20.39596
502.14        20.50628
502.58        20.46324
503.02        20.45253
503.46        20.48894
503.90         20.4608
504.34        20.39566
504.78        20.38838
505.22        20.45136
505.66        20.56795
506.10        20.69721
506.54        20.76618
506.98         20.7601
507.42         20.7028
507.86        20.65482
508.30        20.71047
508.74        20.88365
509.18         21.1357
509.62        21.40077
510.06        21.57068
510.50        21.61898
510.94         21.5903
511.38        21.52092
511.82        21.46789
512.26        21.45465
512.70        21.45469
513.14        21.49453
513.58        21.61882
514.02        21.81272
514.46        22.05635
514.90        22.26363
515.34        22.26192
515.78         22.0005
516.22        21.68911
516.66        21.44709
517.10        21.02347
517.54        20.46106
517.98        21.32892
518.42        21.24378
518.86        21.66342
519.30        21.85077
519.74        22.04466
520.18        22.20381
520.62        22.23238
521.06        22.15066
521.50        21.96235
521.93        21.73139
522.37        21.57818
522.81        21.53465
523.25        21.57227
523.69         21.6573
524.13         21.7318
524.57        21.77313
525.01        21.79735
525.45         21.8005
525.89        21.77519
526.32         21.7212
526.76        21.63871
527.20        21.53895
527.64        21.45183
528.08        21.38885
528.52        21.32318
528.96        21.24742
529.40        21.20593
529.83        21.20932
530.27        21.03457
530.71        21.08259
531.15        20.99406
531.59        20.89373
532.03         20.7725
532.46        20.68597
532.90        20.72488
533.34        20.88778
533.78        21.13782
534.22        21.37437
534.66        21.44959
535.09          21.332
535.53         21.0786
535.97        20.77353
536.41        20.55659
536.85        20.47256
537.28        20.48696
537.72        20.55707
538.16        20.61198
538.60        20.63087
539.04         20.6243
539.47        20.62168
539.91        20.71663
540.35        20.89354
540.79         21.0436
541.22         21.1475
541.66        21.26329
542.10        21.38316
542.54        21.45969
542.97        21.51248
543.41        21.60904
543.85        21.75534
544.29        21.94423
544.72        22.12968
545.16        22.24855
545.60        22.29028
546.04        22.27184
546.47        22.27235
546.91        22.42645
547.35         22.7432
547.79        23.17954
548.22        23.61175
548.66        23.82668
549.10        23.79864
549.53        23.63368
549.97         23.4571
550.41        23.40188
550.84        23.51683
551.28        23.77217
551.72        24.11923
552.15        24.46409
552.59        24.75804
553.03        25.01701
553.46         25.2246
553.90        25.37874
554.34         25.4893
554.77        25.53113
555.21        25.51496
555.65        25.53974
556.08        25.63502
556.52        25.47104
556.96        25.66393
557.39        25.75997
557.83         25.9421
558.27         26.1723
558.70        26.42592
559.14        26.64614
559.57        26.80178
560.01        26.91734
560.45        26.97665
560.88        26.95778
561.32        26.89169
561.75        26.77574
562.19         26.6769
562.63        26.66507
563.06        26.75134
563.50        26.90697
563.93         27.0922
564.37        27.29098
564.80        27.45608
565.24        27.52801
565.68        27.53116
566.11         27.5785
566.55        27.70196
566.98        27.83379
567.42        27.97941
567.85        28.16293
568.29        28.39593
568.72        28.59102
569.16        28.78852
569.60        29.10806
570.03        29.41584
570.47        29.46771
570.90        29.40296
571.34         28.8768
571.77        29.40955
572.21        29.46762
572.64        29.55454
573.08        29.14657
573.51        28.38402
573.95        29.56411
574.38        31.26501
574.82        30.63889
575.25        30.55881
575.69        29.55243
576.12        29.02812
576.56        28.76919
576.99        29.39906
577.42        30.92423
577.86        30.99336
578.29        30.46267
578.73        32.10042
579.16        29.44598
579.60        26.92621
580.03        28.14875
580.47        30.07508
580.90        30.41411
581.33        30.02266
581.77        29.65565
582.20        32.13549
582.64        31.73411
583.07        27.18954
583.51        26.66091
583.94        26.09706
584.37        27.15191
584.81        28.40088
585.24        29.72485
585.68        30.24581
586.11        29.70596
586.54        27.48519
586.98        26.78702
587.41        27.07886
587.85        28.20204
588.28         28.9855
588.71        27.73855
589.15        26.76467
589.58        27.31042
590.01         27.5863
590.45         28.1689
590.88        28.21679
591.31        27.99753
591.75        28.02856
592.18        28.14182
592.61        28.70469
593.05        28.87081
593.48        30.28456
593.91        30.43833
594.35        28.08481
594.78        27.60763
595.21        27.62204
595.65        28.97738
596.08         30.1469
596.51        29.11254
596.94        28.45453
597.38        28.97337
597.81        30.46782
598.24        31.20008
598.68        30.98299
599.11        30.80855
599.54        32.33443
599.97        32.96674
600.41        31.60658
600.84         32.0211
601.27        32.84274
601.70        32.67596
602.14        32.88422
602.57        32.81564
603.00        33.57101
603.43        34.82634
603.87         36.0737
604.30        36.24311
604.73        35.57158
605.16        35.30449
605.60        36.21616
606.03        37.30342
606.46         38.4481
606.89        38.28421
607.32        37.87275
607.76        38.51697
608.19        39.77203
608.62        39.53952
609.05        39.17569
609.48        39.76382
609.92        39.95808
610.35        40.29921
610.78        42.05985
611.21        42.56505
611.64        41.27816
612.07        42.00416
612.50         42.5414
612.94        43.14841
613.37        43.20017
613.80        43.57357
614.23        44.27575
614.66        44.51379
615.09        44.91666
615.52        45.17982
615.96        45.40671
616.39        45.71642
616.82        45.32949
617.25        45.57466
617.68          46.342
618.11        46.96391
618.54        47.32419
618.97        47.22972
619.40        46.93072
619.84        47.23001
620.27        48.06665
620.70        48.69599
621.13        48.96959
621.56        48.71808
621.99        48.19511
622.42        48.80598
622.85        50.15529
623.28        50.11992
623.71        49.77763
624.14        49.40406
624.57        49.38378
625.00        49.33847
625.43        49.35832
625.86        48.86102
626.29        48.74656
626.72        49.38583
627.15         48.8185
627.58        48.85561
628.01        48.82384
628.44        48.72716
628.87        48.55431
629.30        48.39947
629.73        48.23066
630.16        47.98446
630.59        47.46522
631.02        46.92591
631.45        46.37245
631.88        45.87897
632.31        45.46571
632.74        45.11201
633.17        44.79185
633.60        44.45509
634.03        44.08303
634.46        43.69183
634.89        43.26924
635.32        42.79589
635.75        42.27729
636.18        41.72211
636.61        41.16827
637.04         40.6739
637.47        40.24902
637.89        39.88177
638.32        39.53606
638.75        39.17536
639.18        38.79427
639.61         38.4171
640.04        38.05317
640.47        37.71088
640.90        37.39663
641.33        37.09999
641.76        36.83392
642.18        36.67632
642.61        36.63267
643.04        36.60016
643.47        36.51109
643.90        36.73125
644.33        36.48557
644.76         36.4049
645.18        36.31069
645.61        36.29871
646.04        36.38528
646.47         36.5483
646.90        36.77412
647.33        37.03282
647.75        37.32917
648.18         37.6316
648.61        37.91264
649.04        38.29355
649.47        38.69116
649.89        38.67138
650.32        38.47991
650.75         38.8802
651.18        39.86636
651.61         40.9246
652.03        41.77548
652.46        42.18351
652.89        42.42434
653.32        42.56081
653.74        42.77653
654.17        44.30609
654.60        45.24924
655.03        43.78205
655.46        45.40639
655.88        48.47703
656.31        51.89245
656.74        116.3763
657.16          75.221
657.59        26.47065
658.02         20.5749
658.45        36.51883
658.87          47.293
659.30        50.67152
659.73        49.71427
660.15        48.54179
660.58        50.84819
661.01        52.57237
661.44        51.16193
661.86        50.84235
662.29        51.11323
662.72        52.06816
663.14        53.49487
663.57        53.72692
664.00        52.97556
664.42        53.04518
664.85        54.01833
665.27        54.76492
665.70        55.06706
666.13        55.21551
666.55        55.18795
666.98        54.91647
667.41        54.59115
667.83        54.55731
668.26        54.89059
668.69        55.45922
669.11         56.0653
669.54        56.63137
669.96        56.54748
670.39        56.42385
670.82        56.24099
671.24        56.06584
671.67        56.07692
672.09        56.57096
672.52        57.29189
672.94        57.92572
673.37        57.44568
673.80        57.36293
674.22        57.46228
674.65        57.52483
675.07        57.54974
675.50        57.53423
675.92        57.53673
676.35        57.69521
676.77         58.0236
677.20        58.41511
677.62        58.80547
678.05        59.09673
678.47        59.24779
678.90        59.29546
679.32        59.30778
679.75        59.28717
680.17         59.4932
680.60        59.70525
681.02        59.91564
681.45        59.97032
681.87        59.85767
682.30        59.65366
682.72        59.47148
683.15        59.45221
683.57        59.67876
684.00        60.10831
684.42        60.79469
684.85        61.20393
685.27        61.31017
685.70        61.26355
686.12        61.13735
686.54        61.05408
686.97        61.05561
687.39        61.12836
687.82        61.21896
688.24        61.30914
688.66        61.37727
689.09        61.38239
689.51        61.40226
689.94        61.68156
690.36        62.16365
690.78        62.46593
691.21        62.55857
691.63        62.69601
692.06        62.87635
692.48        62.97876
692.90         62.9605
693.33        63.00633
693.75        63.11195
694.17        63.24745
694.60        63.42018
695.02        63.59783
695.44        63.73433
695.87        64.06375
696.29        64.50633
696.71        64.30481
697.14        63.80046
697.56        64.24257
697.98        65.34039
698.41         65.7806
698.83        64.69395
699.25        64.32062
699.68        64.48821
700.10        64.52833
700.52        64.45328
700.94        64.65053
701.37        65.07888
701.79        65.52837
702.21        65.91534
702.64        66.28765
703.06        66.56315
703.48         66.6106
703.90        66.43247
704.33        66.07117
704.75        65.65177
705.17        65.46272
705.59        65.58061
706.01        65.82524
706.44        66.08156
706.86        66.71387
707.28        66.77291
707.70        67.02816
708.12        67.20203
708.55        67.18469
708.97        67.01428
709.39        66.92837
709.81        66.97582
710.23         67.0201
710.66        67.07156
711.08        67.27467
711.50        67.52533
711.92        67.60249
712.34        67.47561
712.76        67.20001
713.19        66.91995
713.61        66.89719
714.03        67.17165
714.45        67.66119
714.87        68.17016
715.29         68.3889
715.71        68.25282
716.13        67.86668
716.56        67.41574
716.98        67.22855
717.40        67.38432
717.82        67.77757
718.24        68.26952
718.66        68.62548
719.08        68.76485
719.50        68.75671
719.92        68.65115
720.34        68.54663
720.76        68.48721
721.19        68.33313
721.61        68.31201
722.03         68.3188
722.45        68.41637
722.87        68.59047
723.29         68.8149
723.71        69.03006
724.13        69.20717
724.55         69.3553
724.97        69.45413
725.39        69.47893
725.81        69.43324
726.23        69.32584
726.65        69.20852
727.07        69.16291
727.49        69.21325
727.91        69.35237
728.33        69.53589
728.75        69.67178
729.17         69.7298
729.59        69.75377
730.01        69.79951
730.43        69.87572
730.85        70.03503
731.27        70.43464
731.69        70.92377
732.10        71.10243
732.52        70.92464
732.94        70.56158
733.36        70.21463
733.78        70.14444
734.20        70.43797
734.62        70.85453
735.04        72.03635
735.46        71.97093
735.88        71.19233
736.30        71.49678
736.72        72.84965
737.13        73.47303
737.55        73.06679
737.97        73.02943
738.39         73.3691
738.81        72.53191
739.23        71.05655
739.65        71.85548
740.06        74.38813
740.48        74.73299
740.90        72.95388
741.32        72.14632
741.74        72.61161
742.16        72.90363
742.57         73.0723
742.99        73.91644
743.41        75.16304
743.83        75.88474
744.25        75.94173
744.67        75.64626
745.08         75.2485
745.50        75.11076
745.92        75.31556
746.34        75.77177
746.75        76.32995
747.17        76.68026
747.59        76.75527
748.01        76.83276
748.42        76.96333
748.84        76.81769
749.26        76.63364
749.68        77.17918
750.09        78.28254
750.51        79.06732
750.93        79.31655
751.35        79.03027
751.76        78.42905
752.18        78.23845
752.60        78.48043
753.01        78.55494
753.43        78.46065
753.85        78.58632
754.27        78.94252
754.68        79.49098
755.10        80.14474
755.52        80.29288
755.93        80.77609
756.35        80.85847
756.77        80.94556
757.18         81.0197
757.60        81.14545
758.02        81.76688
758.43         82.3504
758.85        81.59567
759.26        79.63704
759.68        78.34281
760.10        80.35295
760.51        81.51297
760.93        81.23314
761.34        80.66544
761.76        79.93995
762.18        79.25064
762.59        78.94984
763.01        79.39055
763.42         80.4934
763.84        81.43719
764.26        82.00885
764.67        82.08228
765.09        81.76135
765.50         81.8558
765.92        82.15997
766.33        81.02493
766.75        78.99178
767.16        78.42493
767.58        79.51485
768.00        80.96626
768.41        82.46204
768.83        84.03597
769.24        84.98203
769.66        84.36841
770.07        82.68385
770.49         80.5899
770.90        78.80714
771.32        79.78796
771.73        82.74232
772.15        82.52383
772.56        79.52623
772.97        78.92505
773.39        80.67049
773.80        81.26198
774.22        80.48817
774.63         80.3961
775.05         80.9556
775.46        81.28621
775.88        81.28867
776.29        81.20361
776.70        81.09062
777.12        81.08564
777.53        81.23208
777.95        81.41644
778.36        81.54092
778.77        81.44255
779.19        81.14014
779.60        80.69326
780.02        80.26405
780.43        80.22586
780.84        80.70501
781.26        81.03036
781.67        81.19289
782.09        82.43012
782.50        84.05108
782.91         82.8689
783.33        79.77416
783.74        78.79681
784.15        80.13452
784.57        81.44243
784.98        82.16891
785.39          82.145
785.81        81.43031
786.22        80.99057
786.63        81.06143
787.04        80.98613
787.46        80.93578
787.87         81.8428
788.28        83.35934
788.70        84.06512
789.11        83.77435
789.52        83.23727
789.93         82.6885
790.35        81.99945
790.76        81.41204
791.17        81.54623
791.58        82.26572
792.00        82.62645
792.41        82.48914
792.82        82.55513
793.23        82.88013
793.65        82.49738
794.06        81.78764
794.47        82.80611
794.88        84.76301
795.29         84.5807
795.71        81.87215
796.12        79.84194
796.53        78.91977
796.94        78.49557
797.35        78.72947
797.76         80.0971
798.18        81.95876
798.59        83.04611
799.00        82.95944
799.41        81.98415
799.82        80.64946
800.23        79.87173
800.64         79.8878
801.06        80.33272
801.47        81.04258
801.88        81.63736
802.29        81.95568
802.70        82.14088
803.11        82.21022
803.52        82.16391
803.93        82.04234
804.34        81.79847
804.75        81.53091
805.17        81.52179
805.58        81.86163
805.99        82.15994
806.40        82.28659
806.81        82.81133
807.22        83.29262
807.63        82.02412
808.04        79.63396
808.45        78.62653
808.86        79.23515
809.27        80.22398
809.68        81.16923
810.09        81.81573
810.50         81.9343
810.91        81.61578
811.32        81.09458
811.73        80.75567
812.14        80.71073
812.55        80.80103
812.96        80.98563
813.37        81.19135
813.78        81.36829
814.19        81.61106
814.60        81.74669
815.01        81.47957
815.42        80.79158
815.83        79.73584
816.24        78.71715
816.65         78.4465
817.05        79.13115
817.46        80.53694
817.87        82.10496
818.28         82.8259
818.69        82.42277
819.10        81.12606
819.51        79.59679
819.92        78.96512
820.33        79.51042
820.74        80.88896
821.14        82.41056
821.55        82.84964
821.96        81.97083
822.37        80.23083
822.78        78.31515
823.19        77.22481
823.60        77.22982
824.00        78.07086
824.41        79.31369
824.82        80.31058
825.23        80.74841
825.64        80.82389
826.04        80.66881
826.45        80.47885
826.86        80.32745
827.27        80.10013
827.68        79.80998
828.08        79.55302
828.49        79.29842
828.90        79.13528
829.31        79.02883
829.72        78.87649
830.12         78.6911
830.53          78.476
830.94        78.38203
831.35        78.60705
831.75        79.21304
832.16        80.07234
832.57        80.99464
832.97        81.57626
833.38        81.62211
833.79        81.24854
834.20        80.72236
834.60        80.45373
835.01        80.56841
835.42        80.93773
835.82        81.35062
836.23        81.36189
836.64        80.91081
837.04        80.17542
837.45        79.40897
837.86        79.00624
838.26        79.08208
838.67        79.47408
839.08        80.04106
839.48        80.51946
839.89        80.76181
840.29        80.85283
840.70        80.80832
841.11        80.63377
841.51        80.36498
841.92        79.97327
842.33        79.56197
842.73        79.32571
843.14        79.27457
843.54        79.40781
843.95        79.58127
844.35        79.61024
844.76        79.43367
845.17        79.13171
845.57        78.79523
845.98        78.57496
846.38        78.50843
846.79        78.50783
847.19        78.57598
847.60        78.62655
848.00        78.66854
848.41         78.7151
848.81        78.73952
849.22        78.61875
849.62        78.39971
850.03        78.11053
850.43        77.93128
850.84        78.09882
851.24        78.70235
851.65        79.46278
852.05        80.33804
852.46        81.07349
852.86        81.57128
853.27        81.94916
853.67        81.81883
854.07        80.71317
854.48        78.74648
854.88        76.10905
855.29        73.67377
855.69        72.70012
856.10        73.41951
856.50         75.7034
856.90        78.71528
857.31        80.49191
857.71        80.40092
858.12        78.92078
858.52        77.00356
858.92        75.93439
859.33        75.98966
859.73        76.81918
860.13         78.0983
860.54        79.14004
860.94        79.71456
861.34        80.00425
861.75        80.11263
862.15        80.28808
862.55         80.5668
862.96        80.80785
863.36        81.01099
863.76        81.16564
864.17        81.25952
864.57          81.383
864.97        81.49951
865.38        81.52089
865.78        81.49036
866.18        81.35343
866.58        81.23939
866.99        81.35909
867.39        81.81241
867.79        82.57999
868.19        83.32195
868.60        83.39198
869.00        82.66169
869.40        81.32156
869.80        80.10699
870.21        80.16245
870.61        81.81352
871.01        84.69659
871.41        87.90645
871.81         89.8962
872.22        90.21549
872.62        89.29101
873.02         87.9366
873.42        87.56282
873.82        88.37142
874.22        89.74746
874.63        91.19409
875.03        91.69038
875.43        90.81012
875.83        89.64826
876.23        87.69271
876.63        86.88676
877.03        87.31473
877.44        89.16673
877.84        102.2173
878.24        96.30139
878.64        96.25381
879.04        95.25341
879.44        91.88868
879.84        90.07156
880.24        92.77954
880.64        94.42667
881.04        95.50441
881.44         96.1703
881.84        95.84063
882.24          94.769
882.65        93.72276
883.05        93.49683
883.45        94.24503
883.85        95.86524
884.25        97.73258
884.65        98.61522
885.05         98.1638
885.45        96.83532
885.85        95.35511
886.25        94.70278
886.65        95.08235
887.05        96.16654
887.45        97.55093
887.85        98.50993
888.25        98.76185
888.65        98.55167
889.04         98.0546
889.44        97.58516
889.84        97.25095
890.24        96.92914
890.64        96.67003
891.04        96.57938
891.44        96.65025
891.84        96.89185
892.24        97.16169
892.64        97.16074
893.04        96.87045
893.44        96.45653
893.83        96.08894
894.23        96.03986
894.63        96.34586
895.03        96.84559
895.43        97.60162
895.83        98.70324
896.23        100.0502
896.63        101.5956
897.02        102.7719
897.42        102.6699
897.82        101.2186
898.22        98.78735
898.62        96.28146
899.01        95.02679
899.41        95.31392
899.81        96.67123
900.21        98.48672
900.61        99.74655
901.00        100.1123
901.40        99.92228
901.80        99.37172
902.20        98.75919
902.59        98.23366
902.99        97.65691
903.39        97.15058
903.79        96.96195
904.18         97.1342
904.58         97.6703
904.98        98.36619
905.38        98.86938
905.77        99.06473
906.17        99.02901
906.57        98.88509
906.96        98.88264
907.36        99.01664
907.76        99.21419
908.15        99.34466
908.55        99.09516
908.95         98.4637
909.34        97.53221
909.74        96.59554
910.14        95.91506
910.53        95.61105
910.93         95.6838
911.33        96.02477
911.72        96.45177
912.12         96.8042
912.52        97.03526
912.91        97.31867
913.31        97.92525
913.70        98.94701
914.10        100.3661
914.49        101.6771
914.89        101.5529
915.29         99.7075
915.68        96.67101
916.08        93.91297
916.47        92.83109
916.87        93.53771
917.26         95.5938
917.66         97.9351
918.05        98.80605
918.45        97.76194
918.84        95.43158
919.24        92.94009
919.64        91.93735
920.03        92.85485
920.42        95.16502
920.82        98.04434
921.21        100.1695
921.61        100.8748
922.00        100.6053
922.40        99.74142
922.79        98.77986
923.19        97.96059
923.58        97.11636
923.98        96.21763
924.37        95.40155
924.77         94.9183
925.16        93.68997
925.55         94.0663
925.95        94.79183
926.34        96.48948
926.74        98.70274
927.13        100.7298
927.52        101.2051
927.92        99.99397
928.31        97.56712
928.70        94.66416
929.10        92.54057
929.49        91.54247
929.89        91.33358
930.28        91.89234
930.67        93.15987
931.07        94.83467
931.46        96.99955
931.85        98.88041
932.24        99.31896
932.64        98.15708
933.03        95.55869
933.42        92.31813
933.82        90.26549
934.21        89.91595
934.60         90.7625
934.99        92.00931
935.39        92.74648
935.78        92.82133
936.17        92.35985
936.56        91.15813
936.96        90.96955
937.35        89.38375
937.74        88.67745
938.13        88.37899
938.53        89.01723
938.92        90.57399
939.31        93.08719
939.70        95.88235
940.09        97.00874
940.49        95.81225
940.88        93.08684
941.27        90.17495
941.66        88.67424
942.05        88.80956
942.44        90.05077
942.84        91.90953
943.23        93.61315
943.62        94.69405
944.01        95.34463
944.40        95.56245
944.79        95.33862
945.18        94.68066
945.57        93.45423
945.97         91.7009
946.36        89.87543
946.75        88.45717
947.14         87.6034
947.53        87.26563
947.92        87.23383
948.31         87.4188
948.70        87.87372
949.09        88.59021
949.48        89.46754
949.87        90.34567
950.26        91.07286
950.65        91.59764
951.04        91.94479
951.43        92.12617
951.82          92.159
952.21        91.88043
952.60        91.08133
952.99        89.80406
953.38        88.14246
953.77        86.62479
954.16        85.98996
954.55        86.34119
954.94        87.54536
955.33        88.83319
955.72        88.88848
956.11        87.41716
956.50        84.73525
956.89        81.94592
957.28        81.11079
957.66        82.86713
958.05        86.33827
958.44         90.1852
958.83        92.39946
959.22        92.47235
959.61        90.97215
960.00        88.70744
960.39        87.00346
960.78         86.3051
961.16        86.24223
961.55        86.37032
961.94        85.98308
962.33        84.92506
962.72        83.58736
963.11        82.38424
963.49        81.76992
963.88        81.81824
964.27        82.40337
964.66        83.24615
965.04        83.80119
965.43        83.75599
965.82        83.31103
966.21        82.86502
966.60        82.97177
966.98        83.72963
967.37         84.9055
967.76        86.10015
968.15         86.5423
968.53        86.01196
968.92        84.77597
969.31        83.32413
969.69        82.26021
970.08        81.74718
970.47        81.66253
970.86         81.7545
971.24        81.58964
971.63        81.03477
972.02        80.20598
972.40        79.53193
972.79        79.71684
973.17        81.03749
973.56        83.17559
973.95        85.41399
974.33         86.3924
974.72         85.6612
975.11        83.65977
975.49        81.40993
975.88        80.31514
976.26        80.58223
976.65        81.93468
977.04        83.50877
977.42        83.25747
977.81        80.60811
978.19        76.52324
978.58        73.05667
978.96        72.27075
979.35        74.45921
979.74        79.15781
980.12         85.4364
980.51        89.85684
980.89        91.13422
981.28        90.07376
981.66        87.86678
982.05        86.12679
982.43        85.24465
982.82        84.69159
983.20        84.61771
983.59        85.38346
983.97        87.07533
984.35        89.83963
984.74        92.79781
985.12        94.16573
985.51        92.86073
985.89        89.15495
986.28        84.38324
986.66        80.81913
987.04        79.39455
987.43        79.60075
987.81        80.27548
988.20         79.9109
988.58        78.01298
988.96        74.36825
989.35        69.61013
989.73        67.81573
990.12        71.59596
990.50        79.00667
990.88        85.40382
991.27          87.452
991.65        85.62199
992.03        80.98019
992.42        75.44468
992.80        72.45369
993.18        73.18851
993.56        75.86031
993.95        78.94007
994.33        81.20695
994.71        82.25703
995.10        82.84048
995.48        82.83039
995.86        81.75409
996.24          79.606
996.63        76.18644
997.01        72.47109
997.39        71.47472
997.77        74.37779
998.15         80.3061
998.54        86.53598
998.92        89.56522
999.30        88.30193
999.68        83.76241
1000.06        76.96533
1000.45        70.76488
1000.83        66.78589
1001.21         64.4071
1001.59         63.8181
1001.97         65.2562
1002.35        68.55063
1002.73        74.36099
1003.12        81.14423
1003.50        83.50234
1003.88        78.89803
1004.26        69.79195
1004.64        60.84805
1005.02        56.04855
1005.40        55.66038
1005.78        59.17736
1006.16        67.24486
1006.54        76.28128
1006.92        80.64086
1007.30        80.96381
1007.69        79.84731
1008.07        79.46155
1008.45        80.15377
1008.83        81.78786
1009.21        83.39948
1009.59        75.33292
1009.97         25.4188
1010.35       -78.44516
1010.73       -93.17687
1011.11       -40.80889
1011.49        5.210663
1011.86        39.63231
1012.24        59.47058
1012.62        67.17346
1013.00        67.13215
1013.38        61.57677
1013.76        52.73502
1014.14        49.60442
1014.52        60.34859
1014.90        86.74135
1015.28        122.5464
1015.66        146.2071
1016.04        143.1625
1016.41        116.3083
1016.79        80.76854
1017.17         54.9227
1017.55        42.98683
1017.93        38.48264
1018.31        37.91599
1018.69        39.82735
1019.06         43.7153
1019.44        49.80577
1019.82        60.44604
1020.20        77.87402
1020.58        104.7499
1020.95        149.7304
1021.33        230.3527
1021.71       -697.1368
1022.09        67.74161
1022.46        117.4014
1022.84        138.6677
1023.22        155.2617
1023.60        184.1126
1023.97        436.8478
1024.35        14.97236
1024.73        64.84281
