SpectraSmart Spectrum 2.9.0.0
--------- Device Information -----------
Spectrum Name :  反射率_0
Saving Time :  2024/04/26 00:49:09
Spectro-Module Model Name : SE2030-DUVN
Spectro-Module Serial Number : OS361AC55029948
Wavelength Start : 200
Wavelength End : 1025
Wavelength Unit : Wavelength(nm)
Spectrum Unit : Reflectance(%)
-----------Spectrum Setting ------------
Integration Time : 20ms
Average : 10
Boxcar : 0
Background removal :  enabled
linearity correction :  enabled
SC :  disabled
Intensity correction :  disabled
DWT denoise :  enabled
savitzky-golay :  disabled
FFT :  disabled
Running average :  disabled
Kalman :  disabled
High pass :  disabled
---------------BEGIN--------------------
Wavelength(nm)             Reflectance(%)
200.29               0
200.75          87.631
201.21         80.1752
201.67        71.12149
202.13        65.47164
202.58        63.88454
203.04        65.24027
203.50        67.87082
203.96        68.98351
204.42        67.90598
204.88        65.80424
205.34        63.75767
205.80        62.64235
206.26        62.61508
206.72        63.82798
207.18        66.19442
207.64        65.87964
208.10        59.87284
208.55         53.9882
209.01        51.67144
209.47        52.69839
209.93        56.00203
210.39        61.54778
210.85        67.32045
211.31        68.55244
211.77        63.82992
212.23         54.8058
212.69         45.9426
213.14        44.21655
213.60        50.62779
214.06        63.28933
214.52        77.00793
214.98        83.76852
215.44        81.82871
215.90        73.93661
216.36        64.41598
216.81        59.32191
217.27        59.89951
217.73        63.72438
218.19        67.43914
218.65         66.7091
219.11        60.05097
219.57        47.03171
220.02        29.22847
220.48        17.01185
220.94        17.15002
221.40        27.52156
221.86        39.29168
222.32        42.82571
222.77        38.57348
223.23        31.17867
223.69        25.28479
224.15        25.64735
224.61        31.70345
225.06        40.94863
225.52        49.90618
225.98        54.16907
226.44        52.95891
226.90        48.25995
227.36        42.46769
227.81        38.78114
228.27        38.28186
228.73        39.71461
229.19        42.15663
229.65        44.24916
230.10        45.50154
230.56        46.39845
231.02        47.10189
231.48        47.73833
231.93        48.34034
232.39         48.7921
232.85        49.08071
233.31        49.29493
233.77        49.41876
234.22        49.43172
234.68        49.23917
235.14         48.6246
235.60         47.6106
236.05        46.38404
236.51        45.12939
236.97        43.96342
237.43        42.91873
237.88        42.02277
238.34        41.40255
238.80        41.54104
239.26        42.62056
239.71         44.5457
240.17        46.87191
240.63        49.23331
241.08        51.44147
241.54        53.43178
242.00        54.92566
242.46        55.63012
242.91        55.55814
243.37        53.78289
243.83        50.06638
244.28        55.84793
244.74        96.05465
245.20         115.468
245.66        112.8889
246.11        110.7427
246.57        110.2597
247.03        110.0976
247.48        98.37009
247.94        60.02462
248.40        61.69987
248.85        67.09336
249.31        71.09692
249.77        74.81473
250.22        79.35532
250.68        86.23581
251.14        95.01553
251.59        98.62598
252.05        91.36354
252.51        77.12686
252.96        63.10529
253.42        55.42939
253.88        53.30139
254.33        54.62797
254.79        58.53917
255.25        63.12416
255.70        67.21139
256.16        71.12895
256.62        73.60584
257.07        73.35169
257.53        71.09246
257.99        67.16454
258.44        63.17679
258.90         61.8398
259.35        62.27938
259.81        63.49308
260.27        63.63298
260.72        60.92533
261.18        56.17987
261.63        50.28152
262.09        44.97298
262.55         41.6332
263.00        40.16953
263.46        39.92232
263.91        39.84196
264.37        39.04561
264.83        37.38943
265.28        35.14204
265.74        32.99651
266.19        31.76248
266.65        31.63054
267.11        32.11845
267.56        32.61779
268.02        32.41901
268.47        31.41385
268.93        29.86943
269.38        28.11511
269.84        26.93066
270.30         26.5309
270.75        26.68955
271.21        27.04716
271.66        27.07483
272.12          26.622
272.57        25.87298
273.03        25.07445
273.48        24.50949
273.94        24.27612
274.39        24.22728
274.85        24.22482
275.31        24.07492
275.76        23.71921
276.22        23.25014
276.67        22.74281
277.13        22.38137
277.58        22.15603
278.04        22.03332
278.49        21.88537
278.95        21.58126
279.40        21.08568
279.86        20.51017
280.31        19.92708
280.77        19.54301
281.22         19.3571
281.68        19.31473
282.13         19.3422
282.59        19.36314
283.04         19.3406
283.50        19.32065
283.95        19.25372
284.41         19.0788
284.86        18.79348
285.32        18.42691
285.77        18.09112
286.22        18.01223
286.68        18.19757
287.13         18.5568
287.59        18.90235
288.04        18.94967
288.50        18.67088
288.95        18.15478
289.41        17.58593
289.86        17.14631
290.32        16.93584
290.77        16.87298
291.22        16.93751
291.68        17.06457
292.13        17.22967
292.59        17.45386
293.04         17.7229
293.50        18.00867
293.95        18.29465
294.40        18.56201
294.86        18.80785
295.31        19.04516
295.77        19.28373
296.22        19.52641
296.68        19.77314
297.13        19.99352
297.58        20.20251
298.04        20.42623
298.49        20.70437
298.95        21.12892
299.40        21.70168
299.85        22.38541
300.31        23.10102
300.76           23.74
301.21        24.24747
301.67        24.66128
302.12        24.97854
302.58        25.24566
303.03        25.46636
303.48        25.64404
303.94        25.83186
304.39        26.07916
304.84        26.40292
305.30        26.78742
305.75        27.16177
306.20        27.42248
306.66        27.56694
307.11        27.61397
307.57         27.6421
308.02        27.70282
308.47        27.83643
308.93        28.01517
309.38        28.22066
309.83        28.45394
310.29        28.69174
310.74        28.92575
311.19        29.11083
311.65        29.17748
312.10         29.1169
312.55        28.95442
313.00        28.73434
313.46        28.54029
313.91        28.39295
314.36        28.28611
314.82        28.23066
315.27        28.22637
315.72        28.27316
316.18        28.37129
316.63        28.48483
317.08        28.53183
317.53        28.49004
317.99         28.3636
318.44        28.22049
318.89         28.1755
319.35        28.24161
319.80        28.39155
320.25        28.51072
320.70        28.41146
321.16        28.06218
321.61        27.52986
322.06        26.96199
322.51        26.58124
322.97        26.43106
323.42        26.45681
323.87        26.53813
324.32        26.47108
324.78        26.19878
325.23        25.79272
325.68        25.34738
326.13         25.0178
326.59        24.84447
327.04        24.79249
327.49        24.79838
327.94        24.76363
328.39         24.6569
328.85        24.50192
329.30        24.36126
329.75        24.30154
330.20        24.34074
330.66        24.43198
331.11        24.54433
331.56        24.58764
332.01        24.53203
332.46        24.38788
332.92         24.1867
333.37        24.01474
333.82        23.89621
334.27        23.83241
334.72        23.76985
335.17        23.61668
335.63        23.35997
336.08        23.03397
336.53        22.76291
336.98        22.74457
337.43        23.00724
337.88        23.48876
338.34         23.9784
338.79        24.17773
339.24        23.98952
339.69        23.49623
340.14        22.91971
340.59        22.65233
341.05        22.78612
341.50        23.19603
341.95        23.66814
342.40        23.88937
342.85        23.78693
343.30        23.47342
343.75        23.06169
344.20        22.74622
344.66        22.59724
345.11        22.51928
345.56        22.49657
346.01        22.50578
346.46        22.52024
346.91        22.57023
347.36        22.56344
347.81        22.34262
348.26        21.90962
348.72        21.34747
349.17        20.80655
349.62         20.6184
350.07        20.85005
350.52        21.38013
350.97        22.03018
351.42        22.52621
351.87        22.77773
352.32        22.85657
352.77        22.78728
353.22        22.61557
353.67        22.37856
354.13        22.06951
354.58        21.74265
355.03        21.52492
355.48        21.44589
355.93        21.49248
356.38        21.59035
356.83        21.60627
357.28        21.50205
357.73        21.30447
358.18           21.08
358.63        20.93558
359.08        20.89455
359.53        20.92728
359.98        20.94812
360.43         20.8267
360.88        20.54606
361.33        20.15351
361.78        19.77423
362.23        19.60779
362.68        19.68754
363.13        19.93377
363.58        20.20649
364.03        20.28873
364.48        20.12709
364.93        19.79819
365.38        19.38317
365.83        19.01289
366.28        18.74004
366.73        18.52444
367.18        18.37762
367.63        18.32069
368.08         18.3405
368.53        18.43171
368.98        18.52995
369.43        18.52529
369.88        18.39798
370.33        18.18284
370.78        17.92846
371.23        17.72557
371.68        17.60672
372.13        17.53813
372.58        17.53345
373.03        17.61197
373.48        17.75755
373.93        17.96343
374.38        18.13979
374.83        18.14628
375.28        17.96356
375.72        17.62256
376.17        17.25969
376.62        17.06091
377.07        17.07438
377.52         17.2373
377.97        17.45846
378.42        17.58796
378.87        17.57922
379.32        17.48365
379.77        17.33702
380.22        17.18678
380.67        17.05362
381.11        16.92274
381.56        16.79875
382.01        16.70313
382.46        16.63829
382.91        16.59874
383.36        16.57793
383.81        16.55886
384.26        16.53278
384.71        16.50593
385.15        16.45145
385.60        16.34064
386.05        16.16801
386.50        15.93957
386.95        15.71489
387.40        15.59931
387.85        15.61629
388.29         15.7289
388.74        15.85968
389.19        15.88846
389.64        15.79551
390.09        15.60443
390.54        15.39897
390.98        15.31846
391.43        15.40086
391.88        15.59506
392.33        15.77903
392.78        15.77504
393.23        15.56846
393.67        15.22225
394.12        14.89877
394.57        14.76933
395.02        14.86401
395.47        15.12181
395.91        15.43254
396.36        15.57706
396.81        15.49503
397.26        15.24552
397.71        14.93943
398.15        14.72699
398.60        14.66693
399.05        14.71089
399.50        14.77455
399.95        14.69958
400.39        14.53016
400.84        14.26541
401.29        14.01916
401.74        13.96424
402.18        14.14983
402.63        14.49184
403.08        14.87268
403.53        15.10773
403.97        15.14474
404.42        15.03868
404.87        14.84934
405.32         14.6838
405.76        14.58346
406.21        14.52086
406.66        14.48845
407.11        14.48083
407.55        14.49524
408.00        14.53688
408.45          14.587
408.90        14.59517
409.34         14.5474
409.79        14.45464
410.24        14.35738
410.68        14.31468
411.13        14.34117
411.58        14.42448
412.03        14.52162
412.47        14.56025
412.92        14.51174
413.37        14.39746
413.81        14.28006
414.26        14.26964
414.71        14.37624
415.15        14.56983
415.60        14.74924
416.05        14.77192
416.49         14.6086
416.94        14.31776
417.39        13.99856
417.83        13.81982
418.28         13.8348
418.73        13.97775
419.17        14.18099
419.62        14.33644
420.07         14.4118
420.51        14.44155
420.96        14.42177
421.41         14.3419
421.85        14.21042
422.30        14.04986
422.74        13.89767
423.19        13.84377
423.64        13.88839
424.08        14.01608
424.53        14.17136
424.98        14.28109
425.42        14.32227
425.87        14.30421
426.31         14.2394
426.76        14.19343
427.21        14.15835
427.65        14.02482
428.10        13.87262
428.54        13.91495
428.99        14.16744
429.44        14.54092
429.88        14.87685
430.33        14.97138
430.77        14.78932
431.22        14.39559
431.66         13.9681
432.11        13.83694
432.56        14.02993
433.00        14.37265
433.45        14.69936
433.89        14.91615
434.34        14.92677
434.78        14.63587
435.23        14.26165
435.67        14.25028
436.12        14.55472
436.57        14.67279
437.01        14.55404
437.46        14.48108
437.90        14.48263
438.35        14.47541
438.79         14.4497
439.24        14.43403
439.68        14.43589
440.13        14.38751
440.57        14.31995
441.02        14.47541
441.46         14.7418
441.91         14.6007
442.35        14.13856
442.80        13.90745
443.24        13.88923
443.69         13.8795
444.13        13.82721
444.58        13.65412
445.02        13.41886
445.47        13.41416
445.91        13.59903
446.36        13.66117
446.80         13.5761
447.24        13.52482
447.69        13.52434
448.13        13.50877
448.58        13.48761
449.02        13.47639
449.47         13.4747
449.91         13.4809
450.36        13.49699
450.80        13.51533
451.25        13.54638
451.69        13.59523
452.13        13.66193
452.58        13.73227
453.02         13.7901
453.47        13.80619
453.91        13.77948
454.36        13.72438
454.80         13.6512
455.24        13.57808
455.69        13.52286
456.13        13.47482
456.58         13.4644
457.02        13.51402
457.46        13.62801
457.91        13.79016
458.35          13.953
458.79        14.03349
459.24         14.0238
459.68        13.93436
460.13        13.83073
460.57         13.7789
461.01        13.81125
461.46        13.89938
461.90        14.00569
462.34         14.0599
462.79        14.04253
463.23        13.96935
463.68        13.89173
464.12        13.89478
464.56        13.99847
465.01        14.18169
465.45         14.3463
465.89        14.40003
466.34        14.33926
466.78        14.11806
467.22        13.86442
467.67        13.92512
468.11        14.26284
468.55        14.44638
468.99        14.42165
469.44        14.39683
469.88        14.41818
470.32        14.53738
470.77        14.70477
471.21        14.73433
471.65        14.60902
472.10        14.47818
472.54        14.38714
472.98        14.36264
473.42         14.4224
473.87        14.56309
474.31        14.73217
474.75        14.84002
475.20        14.86921
475.64         14.8353
476.08        14.78645
476.52        14.79777
476.97        14.88616
477.41        15.03096
477.85        15.17716
478.29        15.26654
478.74          15.286
479.18        15.18008
479.62        15.01467
480.06         15.1435
480.50        15.27077
480.95        15.42161
481.39        15.44764
481.83        15.44244
482.27        15.39826
482.72        15.19326
483.16        14.93621
483.60         14.9957
484.04        15.38641
484.48        15.68171
484.93        16.02789
485.37        16.43041
485.81        16.74665
486.25        16.93064
486.69        22.20335
487.14        17.46171
487.58        11.80009
488.02        14.59932
488.46        16.32419
488.90        16.39845
489.34        16.58135
489.79        16.52606
490.23        17.33017
490.67        17.80524
491.11        17.73227
491.55        17.62101
491.99        17.45359
492.43        17.29513
492.88         17.2208
493.32        17.30434
493.76        17.42123
494.20        17.66784
494.64        17.98214
495.08        18.33271
495.52        18.69102
495.96        19.03986
496.41         19.3152
496.85        19.49386
497.29        19.57415
497.73        19.36644
498.17        19.10756
498.61        19.27673
499.05        19.88236
499.49        20.00854
499.93        20.13882
500.37        20.29675
500.82        20.41473
501.26        20.67767
501.70        20.97627
502.14        21.14374
502.58        21.15675
503.02        21.18181
503.46        21.22812
503.90        21.18663
504.34        21.09738
504.78        21.07788
505.22        21.14684
505.66        21.28171
506.10        21.43476
506.54        21.52086
506.98        21.52236
507.42        21.46956
507.86        21.42826
508.30        21.49989
508.74        21.70044
509.18        21.98673
509.62        22.29095
510.06        22.50331
510.50        22.59219
510.94        22.59752
511.38        22.55065
511.82        22.50088
512.26        22.47184
512.70        22.44547
513.14        22.44561
513.58        22.51298
514.02        22.63895
514.46        22.80672
514.90        22.96124
515.34        22.97734
515.78         22.8081
516.22        22.64444
516.66        22.55321
517.10        22.20333
517.54        21.61676
517.98        22.36546
518.42        22.14598
518.86        22.47161
519.30        22.63572
519.74        22.85301
520.18        23.05924
520.62         23.1218
521.06        23.04804
521.50        22.85498
521.93        22.61535
522.37        22.46079
522.81        22.42674
523.25        22.47821
523.69        22.57424
524.13        22.64859
524.57         22.6778
525.01        22.68186
525.45         22.6664
525.89        22.63903
526.32        22.60111
526.76        22.54534
527.20        22.47216
527.64         22.3946
528.08        22.32053
528.52        22.23043
528.96        22.11923
529.40        22.03742
529.83        22.00043
530.27        21.77571
530.71        21.79218
531.15        21.69893
531.59        21.62596
532.03          21.557
532.46        21.52503
532.90        21.58204
533.34        21.71804
533.78        21.90942
534.22        22.07723
534.66        22.10691
535.09        21.97588
535.53        21.73116
535.97        21.44744
536.41         21.2496
536.85        21.17705
537.28        21.20077
537.72        21.27876
538.16         21.3406
538.60        21.36563
539.04        21.36109
539.47        21.35826
539.91        21.45696
540.35        21.64172
540.79        21.80086
541.22        21.91126
541.66        22.02787
542.10        22.14201
542.54        22.20579
542.97        22.24739
543.41        22.34825
543.85        22.51674
544.29        22.74306
544.72        22.96703
545.16        23.10402
545.60        23.13937
546.04        23.09521
546.47        23.07135
546.91        23.23485
547.35        23.60043
547.79        24.11577
548.22        24.62761
548.66          24.877
549.10        24.82862
549.53        24.60135
549.97        24.35582
550.41        24.27782
550.84        24.42715
551.28         24.7607
551.72        25.18795
552.15        25.54362
552.59        25.76847
553.03        25.90914
553.46        26.00254
553.90        26.12476
554.34        26.29889
554.77        26.46671
555.21        26.60019
555.65        26.73933
556.08        26.89069
556.52        26.72564
556.96        26.89404
557.39        26.92561
557.83        27.02222
558.27        27.14499
558.70        27.29156
559.14        27.44208
559.57        27.57487
560.01        27.70897
560.45        27.80997
560.88        27.82245
561.32        27.76722
561.75         27.6498
562.19        27.54597
562.63        27.53377
563.06        27.62558
563.50        27.80151
563.93        28.01537
564.37        28.20609
564.80        28.34235
565.24        28.45186
565.68        28.53647
566.11        28.60269
566.55         28.6778
566.98        28.74972
567.42        28.84717
567.85        29.00915
568.29        29.25686
568.72        29.49456
569.16        29.73957
569.60        30.10089
570.03        30.43774
570.47        30.45915
570.90        30.31085
571.34         29.8674
571.77        30.38902
572.21        30.47097
572.64        30.50209
573.08        30.21404
573.51        29.24247
573.95        30.43142
574.38        32.12987
574.82        31.58174
575.25        31.37045
575.69         30.2855
576.12        29.63685
576.56        29.68264
576.99         30.7641
577.42        31.81824
577.86         31.7955
578.29        31.40037
578.73        32.72184
579.16        30.20682
579.60        27.65547
580.03        28.98516
580.47        30.92927
580.90         31.2872
581.33        30.94924
581.77        30.48869
582.20        33.08528
582.64        32.58515
583.07        27.69106
583.51        27.25763
583.94         27.0308
584.37        28.21805
584.81        29.27287
585.24        30.45155
585.68        30.92506
586.11        30.53557
586.54        28.34995
586.98        27.62027
587.41        27.98412
587.85        29.29335
588.28        29.90072
588.71        28.62714
589.15        27.72096
589.58        28.22152
590.01        28.63113
590.45        29.13521
590.88         28.9694
591.31        28.69493
591.75        28.83195
592.18        28.95658
592.61        29.41823
593.05         29.7319
593.48        31.05946
593.91        31.35261
594.35         28.7495
594.78        28.28448
595.21        28.36197
595.65        29.76217
596.08        30.92834
596.51        29.55289
596.94        29.03545
597.38        29.49339
597.81        30.90982
598.24        32.02235
598.68        31.65288
599.11         31.6849
599.54        32.92302
599.97        33.64959
600.41        32.11867
600.84        32.52225
601.27        33.34023
601.70        33.23585
602.14        33.55023
602.57         33.4348
603.00        34.02092
603.43        35.19129
603.87        36.47416
604.30        36.60376
604.73         35.7804
605.16        35.74588
605.60        36.56647
606.03        37.59694
606.46        38.47369
606.89        38.53255
607.32        37.95107
607.76        38.37632
608.19        39.77228
608.62        39.54603
609.05        39.23713
609.48         39.8142
609.92        39.90569
610.35        40.37404
610.78         41.8693
611.21        42.33057
611.64        40.94671
612.07         41.5803
612.50        42.00777
612.94        42.50223
613.37        42.46198
613.80        42.73806
614.23         43.3466
614.66        43.55689
615.09          43.963
615.52        44.17594
615.96        44.32077
616.39        44.59726
616.82        44.23572
617.25        44.59071
617.68        45.39149
618.11        45.87663
618.54         45.9378
618.97        45.77708
619.40         45.6216
619.84        45.72765
620.27        46.31759
620.70        46.86935
621.13        47.30362
621.56        47.20905
621.99        46.76386
622.42        47.29374
622.85        48.47545
623.28        48.39427
623.71        48.06786
624.14        47.92477
624.57        47.96867
625.00        47.64353
625.43        47.83572
625.86        47.38633
626.29        47.49083
626.72        47.54538
627.15        47.30035
627.58        47.19575
628.01        47.07934
628.44        46.94578
628.87        46.83323
629.30        46.77318
629.73        46.89661
630.16        46.82659
630.59        46.33832
631.02         45.8135
631.45         45.2694
631.88        44.79713
632.31        44.42948
632.74        44.14374
633.17        43.90441
633.60        43.64549
634.03        43.34307
634.46        43.01818
634.89        42.66766
635.32        42.28419
635.75        41.87402
636.18        41.44006
636.61          41.001
637.04        40.58796
637.47        40.20618
637.89        39.84948
638.32        39.50728
638.75        39.18654
639.18        38.88804
639.61        38.61875
640.04        38.35393
640.47        38.04897
640.90        37.70074
641.33         37.3213
641.76        36.94934
642.18        36.70563
642.61        36.61152
643.04        36.55039
643.47        36.45879
643.90        36.70507
644.33          36.512
644.76        36.51679
645.18        36.50394
645.61        36.50838
646.04        36.52866
646.47         36.5456
646.90         36.6169
647.33        36.80768
647.75        37.14347
648.18         37.6419
648.61         38.1515
649.04        38.44632
649.47         38.4958
649.89         38.2327
650.32         37.9805
650.75        38.44188
651.18         39.5549
651.61        40.64837
652.03        41.38186
652.46        41.68106
652.89         41.8917
653.32        41.89305
653.74        41.78971
654.17        43.91903
654.60        44.43411
655.03        42.96031
655.46        44.10614
655.88         47.2981
656.31        50.15173
656.74         111.866
657.16        72.85419
657.59        25.71613
658.02        20.00687
658.45        35.06756
658.87        46.09261
659.30        48.21363
659.73        48.25621
660.15        46.70565
660.58        48.77036
661.01        50.47024
661.44        49.42805
661.86        49.19506
662.29        49.24025
662.72        49.79263
663.14        50.77748
663.57        51.06251
664.00        50.75417
664.42        50.89654
664.85         51.5302
665.27        52.03381
665.70        52.29209
666.13        52.17226
666.55        52.24501
666.98        51.99724
667.41        51.73755
667.83        51.70906
668.26        51.97107
668.69         52.4133
669.11        52.85572
669.54        53.27037
669.96        53.09913
670.39        52.85865
670.82        52.55928
671.24        52.41583
671.67        52.54725
672.09         52.9898
672.52        53.51768
672.94        54.04423
673.37        53.62816
673.80        53.59102
674.22        53.71801
674.65         53.8048
675.07        53.84303
675.50        53.83904
675.92        53.84851
676.35        53.99099
676.77        54.27684
677.20        54.60908
677.62         54.9189
678.05        55.09991
678.47        55.11726
678.90        55.01996
679.32        54.89017
679.75        54.75633
680.17        54.86802
680.60        55.01641
681.02        55.19246
681.45        55.24612
681.87        55.15609
682.30        54.99385
682.72        54.85213
683.15        54.81763
683.57        54.97765
684.00        55.35381
684.42        55.99945
684.85        56.27936
685.27        56.18399
685.70        55.91207
686.12        55.61617
686.54        55.51371
686.97        55.65259
687.39        55.98136
687.82        56.34804
688.24        56.54227
688.66        56.49064
689.09        56.26752
689.51         56.0201
689.94        55.96291
690.36        56.15646
690.78        56.52384
691.21        56.93817
691.63        57.20095
692.06        57.25786
692.48        57.18479
692.90        57.09302
693.33        57.07774
693.75        57.16624
694.17        57.43909
694.60        57.86443
695.02        57.72943
695.44        58.00423
695.87        58.03476
696.29        58.16044
696.71         57.9606
697.14        57.61162
697.56        58.05971
697.98        59.06519
698.41        58.99165
698.83        58.43706
699.25        58.10983
699.68        58.24414
700.10        58.25959
700.52        58.17123
700.94        58.29653
701.37        58.58824
701.79        58.88693
702.21        59.12545
702.64        59.35402
703.06        59.51459
703.48        59.50626
703.90        59.33455
704.33        59.03197
704.75        58.69957
705.17        58.57869
705.59        58.72668
706.01        58.97826
706.44        59.21794
706.86        59.75991
707.28        59.75416
707.70        59.88848
708.12         59.9278
708.55        59.81886
708.97        59.59325
709.39        59.40363
709.81         59.3247
710.23        59.34199
710.66        59.47459
711.08        59.79452
711.50        60.16774
711.92        60.35023
712.34        60.29102
712.76        60.04399
713.19        59.74534
713.61          59.645
714.03        59.79201
714.45         60.1171
714.87        60.45311
715.29        60.53497
715.71        60.31248
716.13        59.88013
716.56        59.42236
716.98        59.25745
717.40        59.45456
717.82        59.90937
718.24        60.45028
718.66        60.78789
719.08         60.8343
719.50        60.67762
719.92        60.41602
720.34        60.22382
720.76        60.16123
721.19        60.07498
721.61         60.1392
722.03        60.21703
722.45        60.34649
722.87         60.5358
723.29        60.74713
723.71        60.90319
724.13         60.9799
724.55        60.98424
724.97        60.95478
725.39        60.96484
725.81        61.03181
726.23        61.13655
726.65         61.2366
727.07        61.26307
727.49        61.20778
727.91        61.10278
728.33        61.00158
728.75        60.99116
729.17        61.08965
729.59        61.25843
730.01        61.46071
730.43        61.63112
730.85        61.75052
731.27        61.86287
731.69        61.94034
732.10         61.9199
732.52        61.80108
732.94        61.63467
733.36        61.53683
733.78        61.57791
734.20        61.77703
734.62        62.37476
735.04        63.16191
735.46        63.19138
735.88        62.67211
736.30        62.94135
736.72        63.96236
737.13        64.52657
737.55        64.34277
737.97        64.10648
738.39        63.92498
738.81        63.20136
739.23        62.31315
739.65        62.93276
740.06        64.64353
740.48        64.79977
740.90        63.49245
741.32        63.00452
741.74        63.52206
742.16        63.82795
742.57        63.93941
742.99        64.53209
743.41        65.43637
743.83        65.99185
744.25        66.08936
744.67        65.89655
745.08        65.60133
745.50        65.51002
745.92        65.71911
746.34         66.1218
746.75        66.57899
747.17        66.85183
747.59        66.89774
748.01        66.79572
748.42        66.69318
748.84        66.82258
749.26        67.23851
749.68        67.79301
750.09        68.35194
750.51        68.80905
750.93        69.05796
751.35        68.86821
751.76        68.37851
752.18        68.18646
752.60        68.28925
753.01         68.1695
753.43        67.89297
753.85        67.97451
754.27        68.45189
754.68        69.10705
755.10        69.76266
755.52        70.26809
755.93          70.531
756.35        70.53339
756.77        70.42469
757.18        70.36443
757.60        70.41659
758.02        70.79917
758.43         71.1946
758.85        70.78606
759.26        69.48409
759.68        69.01929
760.10        70.28432
760.51        70.79777
760.93        70.63038
761.34        69.70827
761.76        69.42799
762.18        69.01118
762.59        68.94812
763.01        69.25201
763.42        69.88149
763.84        70.36423
764.26        70.62179
764.67        70.76835
765.09        70.78082
765.50        70.73264
765.92        70.56415
766.33        69.69135
766.75        68.50459
767.16        68.23641
767.58        68.98605
768.00        70.17844
768.41         71.5095
768.83        72.48663
769.24        72.68729
769.66        72.00062
770.07         70.8461
770.49        69.45947
770.90         68.3021
771.32        69.22206
771.73         71.5696
772.15        71.34204
772.56        68.89816
772.97         68.3791
773.39        69.74535
773.80        70.16068
774.22        69.46845
774.63        69.38198
775.05        69.85992
775.46        70.11784
775.88        70.06462
776.29        69.92525
776.70        69.77805
777.12        69.77624
777.53        69.96127
777.95        70.22089
778.36        70.43432
778.77         70.3966
779.19        70.10934
779.60        69.66611
780.02        69.22979
780.43        69.12017
780.84        69.47062
781.26        69.77957
781.67        70.03932
782.09        71.18631
782.50        72.63796
782.91        71.81535
783.33        69.38506
783.74        68.58552
784.15        69.57977
784.57        70.32269
784.98        70.48356
785.39        70.48374
785.81        70.28836
786.22        69.85434
786.63        69.45972
787.04        69.45705
787.46        69.90402
787.87        70.74384
788.28        71.69478
788.70        72.21034
789.11        72.16242
789.52        71.74059
789.93        71.17652
790.35        70.78397
790.76        70.66331
791.17        70.76131
791.58        70.98356
792.00         71.1162
792.41        71.08785
792.82        71.02994
793.23        71.05988
793.65        70.90299
794.06        70.76002
794.47         71.6961
794.88        73.04209
795.29        72.68913
795.71        70.47832
796.12        68.56396
796.53        67.45464
796.94        67.26721
797.35        68.05141
797.76        69.40492
798.18        70.73955
798.59         71.6068
799.00        71.67865
799.41        70.79858
799.82         69.4402
800.23        68.62578
800.64        68.58012
801.06         68.9282
801.47        69.52866
801.88        70.04521
802.29        70.33356
802.70        70.53555
803.11        70.64975
803.52         70.6374
803.93        70.51752
804.34        70.25124
804.75         69.9582
805.17        69.89577
805.58        70.14496
805.99        70.50614
806.40        70.80029
806.81        71.07059
807.22        71.07401
807.63        70.10757
808.04        68.62536
808.45        68.01666
808.86        68.43475
809.27        69.24117
809.68        70.07584
810.09        70.51431
810.50        70.36581
810.91        69.78609
811.32        69.03123
811.73        68.51173
812.14        68.35201
812.55        68.39211
812.96        68.60412
813.37        68.93065
813.78        69.30345
814.19         69.7834
814.60        70.14285
815.01        70.02112
815.42        69.38267
815.83        68.28922
816.24        67.16936
816.65        66.78745
817.05        67.36706
817.46        68.66809
817.87         70.1355
818.28        70.76739
818.69        70.29356
819.10        68.96992
819.51         67.4299
819.92        66.74675
820.33        67.19685
820.74        68.44624
821.14        69.89056
821.55        70.45444
821.96        69.90768
822.37        68.63477
822.78        67.17523
823.19        66.31815
823.60        66.27953
824.00        66.84299
824.41        67.68045
824.82        68.32502
825.23        68.55727
825.64        68.54765
826.04         68.3884
826.45        68.19714
826.86         68.0278
827.27        67.79504
827.68        67.55589
828.08        67.46381
828.49        67.50195
828.90        67.71429
829.31        67.96907
829.72        67.99718
830.12        67.76717
830.53        67.34175
830.94        66.96814
831.35        66.98814
831.75        67.49857
832.16        68.33001
832.57        69.28692
832.97        69.94955
833.38        70.10724
833.79        69.88097
834.20        69.45771
834.60        69.11961
835.01        68.98119
835.42        68.95503
835.82        68.94835
836.23        68.74205
836.64        68.33031
837.04        67.81601
837.45        67.35682
837.86        67.19088
838.26        67.37442
838.67        67.80081
839.08        68.31865
839.48        68.65383
839.89         68.6888
840.29        68.50949
840.70        68.21626
841.11        67.95509
841.51        67.78268
841.92        67.63409
842.33        67.51634
842.73        67.45313
843.14        67.41026
843.54        67.43004
843.95        67.43565
844.35        67.35288
844.76        67.15523
845.17        66.87691
845.57        66.58816
845.98        66.40314
846.38        66.34904
846.79         66.3721
847.19        66.44321
847.60        66.43636
848.00        66.35418
848.41        66.21027
848.81        66.06699
849.22        65.93877
849.62        65.88208
850.03        65.89611
850.43        66.00598
850.84        66.19735
851.24          66.487
851.65        66.71683
852.05         67.0161
852.46        67.43417
852.86        67.96429
853.27        68.61169
853.67        68.94021
854.07         68.3988
854.48         67.0228
854.88        65.01071
855.29        63.10217
855.69        62.36839
856.10        63.01041
856.50        64.89767
856.90        67.34112
857.31        68.73389
857.71        68.58571
858.12        67.32013
858.52        65.71341
858.92        64.77495
859.33           64.73
859.73        65.27251
860.13        66.23449
860.54        67.24603
860.94        68.13506
861.34        68.98251
861.75        69.60629
862.15        69.80761
862.55        69.53694
862.96        68.82334
863.36        67.96054
863.76        67.46566
864.17        67.50105
864.57        67.99467
864.97        68.75217
865.38        69.44459
865.78        70.00082
866.18        70.41064
866.58        70.74043
866.99        71.09642
867.39        71.54075
867.79        72.05168
868.19        72.34361
868.60        71.92728
869.00        70.73965
869.40        68.97449
869.80        67.41689
870.21          67.257
870.61        68.81414
871.01        71.74225
871.41        75.04865
871.81        77.01577
872.22        77.18552
872.62         76.0338
873.02         74.4436
873.42        74.07834
873.82        75.03042
874.22        76.23728
874.63        77.40051
875.03        77.93179
875.43         77.4673
875.83        77.57263
876.23        75.59564
876.63        74.21795
877.03        73.03818
877.44        72.03179
877.84        108.5739
878.24        77.63679
878.64        79.21889
879.04        82.13493
879.44        76.86728
879.84         74.4138
880.24        80.98773
880.64        83.40647
881.04        83.12698
881.44        82.56952
881.84        81.69954
882.24        80.43303
882.65        79.44415
883.05        79.10181
883.45        79.47013
883.85        80.84293
884.25        82.71263
884.65        83.76311
885.05        83.62646
885.45        82.71096
885.85        81.62211
886.25        81.21529
886.65        81.66827
887.05        82.67447
887.45        83.87096
887.85        84.62531
888.25        84.69979
888.65        84.32275
889.04        83.68153
889.44        83.09494
889.84        82.67502
890.24        82.32062
890.64         82.0564
891.04        81.93509
891.44        81.94447
891.84        82.10336
892.24        82.31862
892.64        82.38342
893.04        82.27854
893.44        82.10593
893.83        81.96891
894.23        82.03403
894.63         82.3231
895.03        82.71297
895.43        83.25824
895.83        84.04388
896.23        85.00121
896.63        86.09733
897.02        86.88647
897.42        86.66351
897.82        85.38297
898.22        83.35304
898.62        81.31184
899.01        80.33033
899.41        80.64214
899.81        81.87222
900.21        83.50609
900.61        84.69895
901.00        85.15184
901.40        85.09765
901.80        84.73747
902.20        84.38413
902.59        84.15933
902.99        83.95953
903.39        83.71638
903.79        83.34901
904.18         82.8766
904.58        82.43131
904.98        82.19375
905.38        82.41269
905.77        83.06884
906.17        83.98938
906.57        84.92964
906.96        85.58706
907.36        85.80169
907.76        85.68105
908.15        85.24156
908.55        84.41402
908.95        83.32909
909.34        82.03829
909.74        80.86788
910.14        80.13284
910.53        79.94379
910.93        80.27447
911.33        81.05415
911.72        82.11981
912.12        83.20013
912.52         84.1692
912.91        84.93545
913.31        85.41333
913.70        85.65479
914.10        85.68396
914.49        85.29641
914.89        84.17166
915.29        82.45414
915.68        80.39209
916.08        78.83823
916.47         78.5174
916.87        79.40267
917.26        81.26844
917.66        83.24968
918.05        83.91694
918.45        82.92899
918.84        80.79012
919.24        78.45673
919.64        77.34953
920.03         77.8456
920.42         79.5018
920.82        81.72511
921.21        83.55942
921.61        84.43948
922.00        84.68579
922.40        84.36916
922.79        83.64702
923.19        82.73544
923.58         81.3399
923.98        79.57111
924.37        78.63381
924.77        79.10665
925.16        76.59595
925.55        78.81758
925.95        79.50775
926.34        80.87746
926.74        82.49167
927.13        84.04573
927.52        84.66126
927.92        84.23036
928.31        83.07674
928.70        81.52412
929.10        80.18302
929.49        79.21568
929.89         78.4659
930.28        78.20805
930.67        78.89835
931.07        80.40719
931.46        82.67894
931.85         84.7325
932.24        85.08424
932.64        83.49256
933.03        80.19431
933.42        76.21647
933.82        73.80753
934.21        73.61489
934.60        74.98873
934.99        76.69916
935.39        77.55843
935.78        77.37579
936.17        75.76737
936.56          72.572
936.96        73.94055
937.35        72.21631
937.74        73.47478
938.13          74.675
938.53        75.76487
938.92        76.77931
939.31        77.94717
939.70        79.06619
940.09        79.28344
940.49        78.43026
940.88        76.89668
941.27        75.33694
941.66         74.5362
942.05        74.58188
942.44        75.17711
942.84         76.1727
943.23        77.35329
943.62        78.45919
944.01        79.53931
944.40        80.21503
944.79        79.89326
945.18        78.43909
945.57        75.84063
945.97        72.74554
946.36        70.82143
946.75        70.82049
947.14        72.15234
947.53        73.83306
947.92        74.83404
948.31         75.0387
948.70        74.76948
949.09        74.23888
949.48        73.89998
949.87        73.95482
950.26        74.17058
950.65        74.44888
951.04        74.69807
951.43        74.86678
951.82         75.0335
952.21        75.08241
952.60        74.81298
952.99        74.20011
953.38        73.26496
953.77         72.2887
954.16        71.67987
954.55        71.52242
954.94        71.80213
955.33        72.10759
955.72        71.72183
956.11         70.5364
956.50        68.75264
956.89        67.17796
957.28        67.27348
957.66        69.43253
958.05        72.89971
958.44        76.56572
958.83        78.80798
959.22        79.19595
959.61        78.14516
960.00        76.23112
960.39         74.4179
960.78        73.08742
961.16         72.0408
961.55        71.11082
961.94        70.03988
962.33        68.83993
962.72        67.75449
963.11        67.04263
963.49        66.96371
963.88        67.49634
964.27        68.53546
964.66        69.71983
965.04        70.30878
965.43        69.96443
965.82        68.99728
966.21        67.86723
966.60        67.16784
966.98         67.0528
967.37        67.30579
967.76        67.86333
968.15        68.55656
968.53        69.22224
968.92        69.79749
969.31        70.20412
969.69        70.30628
970.08          70.103
970.47        69.66376
970.86        68.94083
971.24        67.88685
971.63        66.58194
972.02        65.05867
972.40        63.75463
972.79        63.43905
973.17        64.37186
973.56        66.30001
973.95        68.56443
974.33        69.83537
974.72        69.58924
975.11        68.20349
975.49        66.40129
975.88        65.19167
976.26        64.72707
976.65        64.75343
977.04        64.77932
977.42        63.78268
977.81        61.62724
978.19        58.90068
978.58        56.85769
978.96         56.5917
979.35        58.25278
979.74        61.66354
980.12        66.23988
980.51        69.57549
980.89        70.81477
981.28        70.31952
981.66        69.10863
982.05        68.56067
982.43        68.92635
982.82         69.7216
983.20        70.67069
983.59        71.39626
983.97        71.85098
984.35        72.22352
984.74        72.33176
985.12        72.07897
985.51        71.28227
985.89        69.77023
986.28        67.98869
986.66        66.43417
987.04        65.47813
987.43        65.19344
987.81        64.81172
988.20        63.13407
988.58        59.61934
988.96        53.43345
989.35        45.41509
989.73        41.35035
990.12        45.71101
990.50        56.14087
990.88        65.68861
991.27        68.76418
991.65        66.01494
992.03        59.12263
992.42        51.23227
992.80        48.06575
993.18        51.16483
993.56        57.40236
993.95        63.99995
994.33        68.56772
994.71        70.54736
995.10        71.19234
995.48        70.68391
995.86        68.94321
996.24        66.09393
996.63        61.71978
997.01        56.77625
997.39        54.57789
997.77        56.53886
998.15        62.02655
998.54        68.00858
998.92        70.27087
999.30        67.51781
999.68        60.78352
1000.06        51.82779
1000.45        45.09382
1000.83        42.53589
1001.21        42.86885
1001.59         44.8103
1001.97        46.97134
1002.35          48.919
1002.73        51.37012
1003.12        53.80508
1003.50        54.07957
1003.88        51.50147
1004.26        47.20385
1004.64        42.98475
1005.02        40.27205
1005.40        39.04487
1005.78        38.75518
1006.16        40.65503
1006.54         46.5659
1006.92        53.78042
1007.30        59.34909
1007.69        62.09093
1008.07        62.29667
1008.45         59.9233
1008.83        53.08403
1009.21        34.42569
1009.59       -15.92091
1009.97       -125.5243
1010.35       -238.5738
1010.73         -177.77
1011.11       -84.03098
1011.49       -26.60714
1011.86        10.86284
1012.24        30.86906
1012.62        38.48292
1013.00         38.4258
1013.38        32.10995
1013.76        21.34658
1014.14        14.76674
1014.52        20.31158
1014.90        40.58454
1015.28        69.33797
1015.66         83.6136
1016.04        70.47045
1016.41        36.73895
1016.79        3.869051
1017.17       -7.520605
1017.55        -1.97176
1017.93        8.142847
1018.31        17.58792
1018.69        24.38569
1019.06        29.08496
1019.44        32.80336
1019.82        35.84788
1020.20        35.87289
1020.58        27.80607
1020.95        2.129988
1021.33       -88.35741
1021.71        1545.586
1022.09        247.0784
1022.46        183.7777
1022.84        168.6125
1023.22        173.1985
1023.60        205.2316
1023.97        559.1233
1024.35       -46.51881
1024.73        18.53357
