SpectraSmart Spectrum 2.9.0.0
--------- Device Information -----------
Spectrum Name :  反射率_0
Saving Time :  2024/04/26 00:54:59
Spectro-Module Model Name : SE2030-DUVN
Spectro-Module Serial Number : OS361AC55029948
Wavelength Start : 200
Wavelength End : 1025
Wavelength Unit : Wavelength(nm)
Spectrum Unit : Reflectance(%)
-----------Spectrum Setting ------------
Integration Time : 20ms
Average : 10
Boxcar : 0
Background removal :  enabled
linearity correction :  enabled
SC :  disabled
Intensity correction :  disabled
DWT denoise :  enabled
savitzky-golay :  disabled
FFT :  disabled
Running average :  disabled
Kalman :  disabled
High pass :  disabled
---------------BEGIN--------------------
Wavelength(nm)             Reflectance(%)
200.29               0
200.75        85.23093
201.21        78.20291
201.67        69.78902
202.13        63.80326
202.58        60.79382
203.04        60.19394
203.50        61.19222
203.96        62.33803
204.42        62.98463
204.88        63.39571
205.34        63.86794
205.80        64.85358
206.26        66.79625
206.72        70.68242
207.18        77.27652
207.64        80.45621
208.10        72.11058
208.55        61.23463
209.01        55.55644
209.47        54.98405
209.93        57.53171
210.39        62.65502
210.85        68.16544
211.31        69.03732
211.77        63.83984
212.23        54.53006
212.69        45.36201
213.14        42.91325
213.60        48.28407
214.06        59.77849
214.52        73.16048
214.98        81.86062
215.44        84.02763
215.90        81.48767
216.36        77.20628
216.81        75.24729
217.27         76.6036
217.73        79.71285
218.19        82.05314
218.65        80.31387
219.11        73.29085
219.57        60.18767
220.02        42.86553
220.48        32.05695
220.94        34.31068
221.40        47.08728
221.86        60.24556
222.32         62.9976
222.77        56.29875
223.23        45.81037
223.69         37.1608
224.15        36.08544
224.61        41.98837
225.06         51.9375
225.52        61.99924
225.98        67.09487
226.44        66.30361
226.90        61.80052
227.36        56.37416
227.81        53.77744
228.27        55.11101
228.73        58.78486
229.19        63.20459
229.65          66.076
230.10          66.833
230.56        66.52559
231.02        65.93389
231.48        65.90043
231.93         66.5101
232.39        67.41683
232.85        68.28783
233.31        68.75876
233.77        68.68798
234.22        68.21535
234.68        67.40407
235.14           66.38
235.60        65.30461
236.05        64.25952
236.51        63.24875
236.97          62.143
237.43        60.86694
237.88        59.44044
238.34        58.05443
238.80        57.63712
239.26        58.58187
239.71        60.77967
240.17        63.16269
240.63        64.34159
241.08        63.96248
241.54        62.39989
242.00        60.19232
242.46         57.7544
242.91        54.82686
243.37        49.26056
243.83        37.32738
244.28        21.23669
244.74        42.66917
245.20        80.52875
245.66        91.50537
246.11        94.40377
246.57        95.74867
247.03        96.14578
247.48         84.4488
247.94        51.50219
248.40        54.80679
248.85        59.91883
249.31        63.52983
249.77        67.06261
250.22         71.5725
250.68        78.62723
251.14        87.98761
251.59        92.75497
252.05        87.11275
252.51        74.61433
252.96        62.26001
253.42        56.42891
253.88        56.39777
254.33        59.68885
254.79        65.12081
255.25        70.43116
255.70        74.37151
256.16        77.61879
256.62         79.0733
257.07        77.51653
257.53        73.89197
257.99        68.73969
258.44        63.80215
258.90        61.94827
259.35        62.29955
259.81        63.69326
260.27        64.31185
260.72        62.42754
261.18        58.71947
261.63        53.93905
262.09        49.55642
262.55        46.60425
263.00        45.04536
263.46        44.45467
263.91        44.04128
264.37        43.23671
264.83        41.88353
265.28        40.11449
265.74        38.45852
266.19        37.43944
266.65         37.2268
267.11        37.48026
267.56        37.70259
268.02        37.31995
268.47        36.23499
268.93        34.66329
269.38        32.94289
269.84        31.87369
270.30        31.65488
270.75        32.05195
271.21        32.61874
271.66        32.68932
272.12        32.09865
272.57        31.07039
273.03        29.96167
273.48        29.21941
273.94        28.98575
274.39        29.06496
274.85        29.24231
275.31        29.19901
275.76        28.84746
276.22        28.32414
276.67        27.76207
277.13        27.44127
277.58        27.35031
278.04        27.41084
278.49        27.41624
278.95        27.15192
279.40        26.55939
279.86         25.7908
280.31         24.9667
280.77        24.37534
281.22        24.04017
281.68         23.9049
282.13        23.85494
282.59         23.7667
283.04        23.59072
283.50        23.38724
283.95        23.16623
284.41        22.96369
284.86        22.77433
285.32        22.58523
285.77         22.3885
286.22        22.23989
286.68        22.12662
287.13        22.02352
287.59         21.8727
288.04        21.57687
288.50        21.15323
288.95        20.62677
289.41        20.10176
289.86        19.63358
290.32        19.29341
290.77         19.0446
291.22         18.9074
291.68        18.87293
292.13        18.93093
292.59         19.0752
293.04         19.2762
293.50        19.49123
293.95        19.69198
294.40        19.86124
294.86        19.99108
295.31        20.08245
295.77        20.14375
296.22        20.18422
296.68        20.20177
297.13        20.16663
297.58         20.1036
298.04        20.04415
298.49        20.05941
298.95        20.28567
299.40         20.7267
299.85        21.32826
300.31         21.9677
300.76        22.46669
301.21        22.75965
301.67        22.91411
302.12        22.96173
302.58        22.99551
303.03        23.03276
303.48        23.05411
303.94         23.1115
304.39        23.25782
304.84         23.4985
305.30        23.81263
305.75        24.09826
306.20        24.20027
306.66        24.11384
307.11        23.88765
307.57        23.63663
308.02        23.47092
308.47        23.44562
308.93        23.51495
309.38        23.65927
309.83         23.8739
310.29        24.12195
310.74        24.39085
311.19        24.60519
311.65        24.64954
312.10        24.50676
312.55        24.21415
313.00        23.83852
313.46        23.50495
313.91        23.25385
314.36        23.07318
314.82         22.9747
315.27        22.96116
315.72        23.02415
316.18        23.15893
316.63        23.31722
317.08        23.39539
317.53        23.36352
317.99        23.23307
318.44        23.06215
318.89        22.95208
319.35        22.92149
319.80        22.94538
320.25        22.95543
320.70        22.84127
321.16        22.58355
321.61        22.22386
322.06        21.84324
322.51        21.55947
322.97        21.39318
323.42        21.31791
323.87        21.26438
324.32        21.11937
324.78        20.85575
325.23        20.51396
325.68        20.16132
326.13        19.90625
326.59        19.77532
327.04        19.75362
327.49        19.78262
327.94        19.76601
328.39        19.67923
328.85        19.54331
329.30        19.43796
329.75        19.47086
330.20        19.66151
330.66        19.94482
331.11        20.25218
331.56        20.43668
332.01        20.45304
332.46        20.32982
332.92        20.11276
333.37        19.90767
333.82        19.75675
334.27        19.65307
334.72        19.57056
335.17        19.46214
335.63        19.31975
336.08        19.16658
336.53        19.07137
336.98        19.13833
337.43        19.37705
337.88         19.7522
338.34        20.11396
338.79        20.26467
339.24        20.13754
339.69        19.78562
340.14        19.38585
340.59        19.24997
341.05        19.43847
341.50        19.84897
341.95        20.29492
342.40        20.50188
342.85        20.41137
343.30        20.12895
343.75        19.74948
344.20        19.44009
344.66        19.26505
345.11         19.1352
345.56        19.07617
346.01        19.12535
346.46        19.25841
346.91         19.4825
347.36        19.63157
347.81        19.43382
348.26        18.87381
348.72        18.07757
349.17         17.2821
349.62        16.96223
350.07        17.22561
350.52        17.90739
350.97        18.76712
351.42        19.43462
351.87        19.78787
352.32        19.92405
352.77        19.88861
353.22        19.75947
353.67        19.58193
354.13        19.33141
354.58        19.04526
355.03         18.8305
355.48        18.71247
355.93        18.68665
356.38        18.70253
356.83        18.66018
357.28        18.53178
357.73        18.34268
358.18        18.13099
358.63        17.95678
359.08        17.83894
359.53        17.76426
359.98         17.6968
360.43        17.58338
360.88        17.41621
361.33        17.20996
361.78        17.02575
362.23        16.96155
362.68        17.02301
363.13        17.16125
363.58        17.28156
364.03        17.23877
364.48        17.00471
364.93        16.63948
365.38        16.20925
365.83           15.82
366.28         15.5182
366.73        15.27671
367.18        15.12173
367.63        15.09294
368.08        15.17748
368.53        15.35633
368.98        15.54226
369.43        15.59448
369.88        15.48529
370.33        15.25759
370.78        14.97537
371.23        14.75563
371.68        14.64067
372.13        14.59154
372.58        14.61267
373.03        14.70819
373.48        14.85566
373.93        15.04961
374.38        15.21194
374.83        15.21918
375.28        15.05375
375.72        14.74346
376.17         14.3984
376.62        14.16205
377.07        14.07903
377.52        14.10321
377.97        14.19331
378.42        14.27775
378.87        14.32372
379.32        14.35422
379.77        14.35032
380.22        14.28052
380.67        14.14697
381.11        13.95602
381.56        13.74817
382.01        13.60518
382.46         13.5456
382.91        13.54431
383.36        13.56498
383.81        13.54342
384.26        13.46455
384.71        13.36068
385.15        13.23499
385.60         13.0959
386.05         12.9481
386.50        12.77916
386.95        12.64026
387.40         12.6209
387.85        12.72606
388.29        12.91845
388.74         13.0976
389.19        13.12298
389.64         12.9799
390.09        12.70685
390.54        12.40987
390.98         12.2706
391.43        12.33975
391.88        12.54709
392.33        12.77594
392.78        12.85331
393.23        12.75322
393.67         12.5388
394.12        12.31801
394.57        12.19329
395.02        12.19042
395.47        12.26662
395.91        12.38895
396.36        12.48396
396.81         12.5234
397.26        12.51586
397.71        12.47142
398.15        12.39053
398.60         12.3012
399.05        12.21301
399.50        12.10952
399.95        11.93195
400.39        11.73399
400.84        11.48966
401.29        11.28987
401.74        11.27508
402.18        11.47884
402.63        11.83607
403.08        12.21997
403.53        12.42706
403.97        12.40676
404.42        12.21713
404.87        11.95092
405.32        11.77468
405.76        11.73975
406.21        11.79393
406.66        11.88785
407.11         11.9563
407.55        11.98172
408.00        11.98607
408.45        11.97066
408.90        11.92585
409.34        11.85593
409.79        11.76213
410.24        11.67322
410.68        11.63131
411.13        11.64708
411.58        11.71693
412.03        11.81087
412.47        11.87484
412.92        11.88361
413.37        11.84623
413.81         11.8056
414.26        11.84341
414.71        11.96311
415.15        12.14189
415.60        12.29096
416.05        12.28895
416.49        12.11299
416.94        11.81621
417.39        11.49237
417.83        11.30186
418.28        11.29604
418.73        11.41486
419.17        11.59425
419.62        11.72633
420.07        11.78174
420.51        11.79615
420.96        11.76674
421.41        11.68536
421.85        11.56013
422.30         11.4056
422.74        11.26489
423.19         11.2316
423.64         11.3059
424.08        11.47213
424.53        11.65508
424.98        11.74182
425.42        11.70439
425.87        11.57187
426.31        11.39992
426.76        11.31363
427.21         11.3236
427.65        11.31881
428.10         11.3331
428.54        11.48493
428.99        11.76426
429.44        12.11147
429.88        12.39723
430.33        12.45478
430.77        12.26423
431.22        11.88082
431.66        11.46885
432.11        11.32581
432.56        11.47975
433.00        11.78499
433.45        12.09615
433.89        12.31437
434.34        12.34718
434.78        12.11644
435.23        11.80543
435.67        11.78674
436.12        12.02293
436.57        12.09718
437.01        11.96389
437.46        11.85164
437.90        11.78695
438.35        11.70846
438.79         11.6263
439.24        11.58919
439.68        11.60654
440.13         11.6154
440.57        11.62024
441.02        11.78343
441.46        12.00465
441.91        11.87033
442.35        11.46478
442.80        11.26015
443.24        11.24215
443.69        11.23528
444.13        11.18842
444.58        11.02718
445.02        10.79556
445.47        10.73753
445.91        10.81655
446.36        10.77925
446.80        10.61222
447.24        10.46271
447.69        10.36077
448.13        10.28011
448.58        10.23335
449.02        10.22441
449.47        10.23531
449.91        10.23446
450.36        10.21659
450.80        10.18635
451.25        10.16428
451.69         10.1731
452.13        10.21914
452.58          10.281
453.02        10.34711
453.47        10.39327
453.91        10.41662
454.36        10.42897
454.80         10.4242
455.24        10.39355
455.69        10.34687
456.13        10.28191
456.58        10.24338
457.02        10.28096
457.46        10.40452
457.91        10.59107
458.35        10.78533
458.79        10.88965
459.24        10.89035
459.68        10.80232
460.13        10.69693
460.57         10.6524
461.01         10.7013
461.46        10.81151
461.90         10.9332
462.34        10.97435
462.79        10.91531
463.23         10.7804
463.68        10.64371
464.12        10.62564
464.56        10.75409
465.01        10.98787
465.45         11.2153
465.89        11.31436
466.34        11.27224
466.78        11.07014
467.22        10.82525
467.67        10.83434
468.11        11.07683
468.55        11.20981
468.99        11.18992
469.44        11.17555
469.88        11.20066
470.32        11.30814
470.77        11.45516
471.21         11.4901
471.65        11.39579
472.10        11.28986
472.54        11.20887
472.98        11.18092
473.42        11.22232
473.87        11.32929
474.31        11.45896
474.75        11.53501
475.20        11.54458
475.64        11.50321
476.08        11.45669
476.52        11.47648
476.97         11.5764
477.41        11.73472
477.85        11.89748
478.29        12.00128
478.74        12.03004
479.18        11.94375
479.62        11.79776
480.06        11.87803
480.50        11.95383
480.95        12.04029
481.39         12.0271
481.83        11.99329
482.27        11.93847
482.72        11.77764
483.16        11.57751
483.60        11.61451
484.04        11.90636
484.48        12.05589
484.93        12.20708
485.37        12.61755
485.81         13.1723
486.25        13.22039
486.69        17.27582
487.14        13.69245
487.58        9.092544
488.02        11.08918
488.46        12.45613
488.90        12.45323
489.34        12.50815
489.79         12.4778
490.23         13.1778
490.67        13.61951
491.11         13.5812
491.55        13.36414
491.99        12.99735
492.43        12.73399
492.88        12.66429
493.32        12.72708
493.76         12.8193
494.20        13.03681
494.64        13.32316
495.08        13.64911
495.52        13.97081
495.96        14.23856
496.41        14.39883
496.85        14.44522
497.29        14.40627
497.73        14.19443
498.17         13.9967
498.61        14.14942
499.05        14.63994
499.49        14.75626
499.93        14.84142
500.37        14.92719
500.82        14.97354
501.26         15.1324
501.70        15.32729
502.14         15.4277
502.58         15.4197
503.02        15.43106
503.46        15.46765
503.90        15.45079
504.34        15.39487
504.78        15.36062
505.22         15.3584
505.66        15.37887
506.10        15.41145
506.54        15.43606
506.98         15.4495
507.42        15.45954
507.86        15.48752
508.30        15.56595
508.74         15.6941
509.18        15.85151
509.62        16.00529
510.06        16.10219
510.50        16.13162
510.94        16.12148
511.38        16.08363
511.82        16.03629
512.26        15.99388
512.70        15.94609
513.14        15.93743
513.58        16.04032
514.02        16.24674
514.46        16.52255
514.90        16.77258
515.34        16.81021
515.78        16.57497
516.22        16.28955
516.66        16.06458
517.10        15.60452
517.54        14.95049
517.98        15.79045
518.42        15.59679
518.86        15.96413
519.30        16.11492
519.74        16.30084
520.18        16.46904
520.62        16.50063
521.06        16.41236
521.50        16.21198
521.93        15.97653
522.37        15.84821
522.81        15.85972
523.25        15.97141
523.69        16.12686
524.13        16.23561
524.57          16.269
525.01        16.25386
525.45        16.20674
525.89        16.15438
526.32        16.10535
526.76        16.04697
527.20        15.97844
527.64        15.90872
528.08        15.84246
528.52        15.76906
528.96         15.6816
529.40        15.60807
529.83        15.56049
530.27        15.37824
530.71        15.37176
531.15        15.30385
531.59        15.26965
532.03        15.25452
532.46        15.27863
532.90        15.37647
533.34        15.53339
533.78        15.72743
534.22        15.89802
534.66        15.95869
535.09        15.89167
535.53        15.73353
535.97        15.53172
536.41        15.36674
536.85        15.26922
537.28        15.22261
537.72        15.22055
538.16        15.24917
538.60         15.2983
539.04        15.35902
539.47        15.42342
539.91        15.51598
540.35        15.61597
540.79        15.65985
541.22        15.65238
541.66        15.66511
542.10        15.70442
542.54        15.72687
542.97        15.75118
543.41        15.83457
543.85        15.97801
544.29        16.17454
544.72        16.37079
545.16        16.48815
545.60        16.51219
546.04        16.46221
546.47        16.41543
546.91        16.50493
547.35        16.74404
547.79        17.08944
548.22        17.43488
548.66        17.59649
549.10        17.55116
549.53        17.38906
549.97        17.21389
550.41        17.13623
550.84        17.19742
551.28        17.37254
551.72        17.63087
552.15        17.91307
552.59        18.18071
553.03        18.44156
553.46        18.66695
553.90        18.82827
554.34        18.92882
554.77         18.9536
555.21        18.92691
555.65        18.94818
556.08        19.04406
556.52         18.9619
556.96        19.14099
557.39        19.21586
557.83        19.31816
558.27         19.4302
558.70        19.55466
559.14        19.67898
559.57        19.78919
560.01         19.8959
560.45        19.96936
560.88        19.96499
561.32        19.89999
561.75         19.7798
562.19        19.67193
562.63        19.65013
563.06        19.72583
563.50        19.88033
563.93        20.06315
564.37        20.20116
564.80         20.2682
565.24        20.29476
565.68        20.30499
566.11         20.3374
566.55        20.41924
566.98        20.52996
567.42        20.67225
567.85        20.84538
568.29        21.05427
568.72        21.23361
569.16        21.40259
569.60        21.67968
570.03        21.97672
570.47        22.03488
570.90        21.92807
571.34        21.75602
571.77        22.02208
572.21         22.0543
572.64         22.0888
573.08        21.84796
573.51        21.41615
573.95          22.462
574.38         23.8389
574.82        23.33121
575.25        22.99534
575.69        22.18008
576.12        21.87791
576.56        21.82312
576.99         22.5448
577.42        23.43151
577.86        23.57011
578.29        23.20232
578.73        24.42441
579.16         22.4621
579.60         20.5905
580.03        21.53288
580.47        22.93822
580.90        23.31973
581.33        22.65601
581.77        22.71917
582.20        24.58802
582.64        24.25885
583.07        20.66801
583.51        20.17283
583.94        19.73553
584.37        20.49775
584.81        21.36983
585.24        22.38817
585.68        22.90935
586.11        22.23062
586.54         20.6677
586.98         20.1814
587.41         20.5396
587.85        21.40129
588.28        21.91605
588.71        20.74378
589.15         20.2169
589.58        20.65489
590.01        20.91201
590.45         21.2569
590.88        21.06577
591.31        20.72138
591.75        20.69069
592.18        20.84134
592.61        21.33385
593.05        21.86601
593.48        22.77738
593.91        22.61324
594.35        21.00271
594.78        20.73989
595.21        20.95286
595.65        21.92602
596.08        22.53677
596.51        21.69508
596.94        21.32028
597.38         21.6982
597.81        22.65769
598.24        23.24683
598.68        23.05132
599.11        22.97019
599.54         24.3083
599.97        24.83888
600.41        23.86488
600.84        24.21969
601.27        24.90073
601.70        24.82274
602.14        25.01756
602.57        24.94226
603.00        25.45716
603.43        26.49153
603.87        27.65405
604.30        27.85465
604.73        27.24626
605.16        27.33526
605.60        28.20048
606.03        29.11216
606.46        29.75901
606.89        30.14437
607.32        29.85661
607.76        30.12147
608.19        31.38494
608.62        31.12729
609.05        30.80602
609.48         31.3912
609.92        31.81772
610.35        32.31086
610.78        33.69041
611.21        34.29578
611.64        33.28106
612.07        33.85107
612.50        34.13524
612.94        34.77067
613.37        34.73901
613.80        35.13673
614.23        35.79999
614.66        36.10973
615.09        36.55421
615.52         36.8096
615.96        36.97517
616.39        37.29358
616.82        37.14994
617.25        37.28628
617.68        38.10295
618.11        38.68288
618.54         39.0478
618.97        39.03902
619.40        38.89111
619.84        38.94128
620.27        39.83314
620.70        40.34813
621.13        40.58652
621.56        40.50082
621.99        40.22446
622.42        40.74467
622.85        41.81758
623.28          41.558
623.71        41.41488
624.14        41.66022
624.57        41.24522
625.00        41.25182
625.43        41.31831
625.86        40.92773
626.29        40.83854
626.72        41.11769
627.15        40.67788
627.58        40.58054
628.01        40.44804
628.44        40.29887
628.87         40.1306
629.30        40.03112
629.73        39.94283
630.16        39.66887
630.59        39.19709
631.02        38.61916
631.45         38.0209
631.88         37.5051
632.31        37.09961
632.74        36.78076
633.17        36.50032
633.60        36.12572
634.03        35.71472
634.46        35.23228
634.89        34.72279
635.32        34.21471
635.75        33.72533
636.18        33.24447
636.61        32.78082
637.04        32.34904
637.47         31.9447
637.89         31.5663
638.32         31.1911
638.75        30.79873
639.18        30.39151
639.61        29.98709
640.04        29.59681
640.47        29.23315
640.90        28.90236
641.33        28.59671
641.76        28.32617
642.18         28.1495
642.61        28.06949
643.04        28.00658
643.47        27.90616
643.90        28.04079
644.33        27.82018
644.76        27.73317
645.18        27.64093
645.61        27.61888
646.04        27.67311
646.47        27.77316
646.90        27.93507
647.33        28.16175
647.75        28.46124
648.18        28.86269
648.61        29.25921
649.04         29.5072
649.47        29.59885
649.89        29.43179
650.32        29.27222
650.75        29.80846
651.18        30.95471
651.61        31.89728
652.03        32.40728
652.46        32.80517
652.89        33.29224
653.32        33.38345
653.74        33.29347
654.17        34.80038
654.60        35.45798
655.03         34.7663
655.46        36.09261
655.88        38.52895
656.31        42.16299
656.74        96.95629
657.16        63.22981
657.59        22.27092
658.02        16.94266
658.45        30.08505
658.87        38.97432
659.30        41.42039
659.73        41.36182
660.15        40.10111
660.58         42.0356
661.01        43.62109
661.44        42.92732
661.86        42.91817
662.29         43.1699
662.72        44.11659
663.14        45.56539
663.57        45.86732
664.00        45.20005
664.42        45.24851
664.85        46.10025
665.27        46.74829
665.70        47.01958
666.13        47.19797
666.55        47.26632
666.98        47.15625
667.41        47.02301
667.83        47.14465
668.26        47.57624
668.69        48.20924
669.11        48.84233
669.54        49.36749
669.96        49.25412
670.39        49.03294
670.82        48.75416
671.24         48.6239
671.67        48.80119
672.09        49.42802
672.52        50.24052
672.94         50.9706
673.37        50.70897
673.80        50.78304
674.22        51.01487
674.65        51.24613
675.07        51.45288
675.50        51.54326
675.92        51.57076
676.35        51.74165
676.77        52.07376
677.20        52.41946
677.62        52.73771
678.05        52.99364
678.47        53.15884
678.90        53.26004
679.32        53.33022
679.75        53.32455
680.17        53.47268
680.60        53.59401
681.02        53.72908
681.45          53.815
681.87        53.85262
682.30        53.87317
682.72        53.92294
683.15        54.05908
683.57        54.33541
684.00        54.69849
684.42        55.25166
684.85        55.60687
685.27        55.61051
685.70        55.53692
686.12        55.42822
686.54        55.46331
686.97        55.68008
687.39        55.96963
687.82        56.26123
688.24        56.64882
688.66        56.99811
689.09        56.94236
689.51        56.60901
689.94        56.54249
690.36        56.81047
690.78        57.13134
691.21        57.41692
691.63        57.64021
692.06        57.77314
692.48        57.84176
692.90        57.90927
693.33        58.05813
693.75        58.30349
694.17        58.61558
694.60        58.95264
695.02        59.19806
695.44        59.28838
695.87         59.5029
696.29        59.83072
696.71        59.54455
697.14        58.93328
697.56        59.56703
697.98        61.12616
698.41        61.28399
698.83        60.62988
699.25         60.2304
699.68        60.39874
700.10        60.45646
700.52        60.44215
700.94        60.69935
701.37         61.1548
701.79        61.60075
702.21        61.95153
702.64        62.26392
703.06        62.48792
703.48        62.54015
703.90        62.43164
704.33        62.18819
704.75         61.9048
705.17        61.81919
705.59        61.99454
706.01        62.26965
706.44         62.5435
706.86         63.1888
707.28        63.31413
707.70        63.59769
708.12        63.77985
708.55        63.86087
708.97        63.83207
709.39        63.70207
709.81        63.56406
710.23        63.56822
710.66           63.75
711.08        64.09414
711.50        64.45564
711.92        64.61539
712.34        64.52578
712.76        64.24187
713.19        63.92372
713.61        63.85718
714.03        64.09703
714.45        64.56411
714.87        65.06197
715.29        65.27845
715.71        65.14938
716.13        64.77761
716.56        64.36817
716.98        64.27773
717.40        64.58319
717.82        65.16705
718.24        65.83223
718.66        66.24685
719.08        66.31497
719.50        66.14329
719.92        65.85775
720.34        65.67682
720.76        65.67311
721.19         65.6683
721.61        65.84288
722.03        66.03025
722.45        66.26067
722.87        66.54389
723.29        66.82802
723.71        67.01131
724.13        67.06823
724.55         67.0194
724.97        66.92857
725.39        66.88968
725.81        66.92961
726.23        67.06286
726.65        67.26218
727.07        67.26689
727.49        67.40102
727.91        67.42504
728.33        67.46141
728.75        67.52338
729.17        67.61715
729.59        67.74601
730.01        67.91116
730.43         68.0477
730.85        68.18724
731.27        68.51524
731.69        68.92426
732.10        69.07629
732.52        68.93707
732.94        68.67446
733.36        68.45728
733.78        68.43795
734.20        68.67274
734.62        69.18696
735.04        70.17052
735.46        70.14249
735.88        69.47363
736.30        69.78244
736.72        71.02157
737.13        71.60762
737.55        71.23927
737.97        71.07916
738.39        71.19537
738.81        70.38156
739.23         69.1652
739.65        70.11057
740.06        72.62965
740.48         73.1904
740.90        71.42254
741.32        70.63817
741.74        71.01785
742.16        71.21288
742.57        71.29115
742.99        72.00111
743.41        73.11978
743.83        73.86462
744.25        74.04686
744.67        73.90607
745.08        73.62386
745.50        73.51324
745.92        73.68327
746.34        74.02168
746.75        74.41972
747.17         74.6776
747.59        74.75712
748.01        74.77059
748.42        74.84591
748.84        75.03547
749.26        75.43394
749.68        76.23358
750.09        77.19686
750.51        77.69717
750.93         77.6452
751.35        77.22188
751.76        76.66179
752.18        76.47678
752.60        76.67711
753.01         76.8019
753.43        76.81796
753.85        77.04109
754.27        77.46575
754.68        77.98603
755.10        78.40981
755.52        78.83726
755.93        79.18323
756.35        79.34968
756.77        79.43151
757.18        79.58543
757.60        79.85542
758.02        80.40685
758.43        80.79694
758.85        80.81729
759.26           78.62
759.68        78.45089
760.10        79.56635
760.51        80.44915
760.93        80.57771
761.34        79.71873
761.76        79.39468
762.18        78.76141
762.59         78.5158
763.01        78.36163
763.42        79.10229
763.84        79.78573
764.26        80.46404
764.67        80.66682
765.09        80.42609
765.50        80.56293
765.92        80.85579
766.33         79.7689
766.75        77.81398
767.16        77.15314
767.58        78.03424
768.00        79.41779
768.41        80.98997
768.83         82.7103
769.24        83.80231
769.66        83.02771
770.07        81.03643
770.49        79.19495
770.90        78.09723
771.32        79.35251
771.73        82.12036
772.15        81.84287
772.56         78.9155
772.97        78.11295
773.39        79.46381
773.80        79.89059
774.22        79.22642
774.63        79.28007
775.05        79.94489
775.46        80.32258
775.88         80.2811
776.29        80.04723
776.70        79.75021
777.12        79.66203
777.53        79.85572
777.95        80.17106
778.36        80.46626
778.77        80.50354
779.19        80.27448
779.60        79.87531
780.02        79.47479
780.43        79.43102
780.84        79.87437
781.26        80.19181
781.67        80.40987
782.09        81.66039
782.50        83.32857
782.91          82.574
783.33        80.09508
783.74         79.2987
784.15        80.29909
784.57        81.10171
784.98        81.41366
785.39        80.91019
785.81         80.2774
786.22        80.45034
786.63         79.6076
787.04        79.71349
787.46        80.17506
787.87        81.27842
788.28        82.62965
788.70        83.28436
789.11        83.09062
789.52        82.50673
789.93        81.82863
790.35        81.19003
790.76        80.83544
791.17        81.16513
791.58        81.98188
792.00        82.51363
792.41        82.51368
792.82        82.22842
793.23        81.91373
793.65        81.33647
794.06        80.91557
794.47        82.33022
794.88        84.67336
795.29        84.47772
795.71        81.92067
796.12        79.74854
796.53        78.62907
796.94         77.9559
797.35         78.0005
797.76        79.40381
798.18        81.46394
798.59        82.74248
799.00        82.83372
799.41         81.5162
799.82        80.49905
800.23        79.68078
800.64        79.64784
801.06        80.02104
801.47         80.6482
801.88        81.15408
802.29        81.37524
802.70        81.46602
803.11        81.46223
803.52        81.39361
803.93        81.30964
804.34        81.16199
804.75        81.01019
805.17        81.08665
805.58        81.47005
805.99        81.72765
806.40        81.78415
806.81        82.43085
807.22        83.17956
807.63        82.00598
808.04        79.53278
808.45        78.49789
808.86        79.13605
809.27        80.07144
809.68         80.8784
810.09        81.38022
810.50        81.36913
810.91        80.92761
811.32        80.31403
811.73        79.94795
812.14        79.94343
812.55        80.12659
812.96         80.4429
813.37        80.78642
813.78        81.08177
814.19        81.42621
814.60        81.60452
815.01        81.26455
815.42        80.39158
815.83        79.05485
816.24        77.75255
816.65        77.36665
817.05        78.14124
817.46        79.78397
817.87        81.63762
818.28        82.52029
818.69        82.10718
819.10        80.69757
819.51         78.9739
819.92          78.137
820.33          78.519
820.74        79.65733
821.14         80.9836
821.55        81.72804
821.96        81.54126
822.37        80.23154
822.78        78.42958
823.19        77.54091
823.60        77.81512
824.00        78.70444
824.41        79.75138
824.82        80.46325
825.23         80.5763
825.64        80.27289
826.04        79.77515
826.45        79.40202
826.86        79.24981
827.27        79.18517
827.68        79.16003
828.08        79.14683
828.49        79.05951
828.90        78.99895
829.31        78.92309
829.72        78.72815
830.12        78.43956
830.53        78.07059
830.94        77.78709
831.35        77.80855
831.75        78.20903
832.16        78.85883
832.57        79.63194
832.97        80.23317
833.38        80.48277
833.79         80.4583
834.20        80.28838
834.60        80.17537
835.01         80.2082
835.42        80.31832
835.82        80.42068
836.23        80.29637
836.64        79.94682
837.04        79.46849
837.45        79.02473
837.86        78.87206
838.26        79.07317
838.67        79.50706
839.08         80.0273
839.48        80.36269
839.89        80.38461
840.29        80.18346
840.70        79.83556
841.11         79.4408
841.51        79.05547
841.92        78.63599
842.33        78.24741
842.73        78.00712
843.14         77.9093
843.54        77.98694
843.95        78.11299
844.35        78.13345
844.76        77.99168
845.17          77.729
845.57        77.46336
845.98        77.39355
846.38        77.55492
846.79        77.86108
847.19        78.18599
847.60        78.22002
848.00        77.93665
848.41        77.41715
848.81        76.87397
849.22        76.54216
849.62        76.53974
850.03        76.81586
850.43        77.29782
850.84        77.75068
851.24        78.12524
851.65        78.28654
852.05        78.48815
852.46        78.97102
852.86        79.76309
853.27        80.79787
853.67         81.4543
854.07        80.92175
854.48        79.21392
854.88        76.63168
855.29        74.13992
855.69        73.13204
856.10        73.88347
856.50        76.20632
856.90        79.23775
857.31        80.98045
857.71        80.79528
858.12        79.21178
858.52        77.18398
858.92        75.97009
859.33        75.84691
859.73        76.46367
860.13        77.55775
860.54        78.57598
860.94        79.32159
861.34        79.92791
861.75        80.38072
862.15        80.74532
862.55        81.00159
862.96         81.0479
863.36         80.9501
863.76        80.82294
864.17        80.71447
864.57        80.69852
864.97        80.72276
865.38         80.6698
865.78        80.57461
866.18        80.39572
866.58        80.29545
866.99        80.53027
867.39        81.20152
867.79        82.27139
868.19        83.30999
868.60        83.51646
869.00        82.71061
869.40        81.10532
869.80        79.55883
870.21        79.42113
870.61        81.07534
871.01        84.12376
871.41        87.53011
871.81        89.51965
872.22        89.60207
872.62        88.28928
873.02        86.57958
873.42        86.16492
873.82        87.27756
874.22        89.19745
874.63        91.29633
875.03         92.1851
875.43         91.2691
875.83        89.76518
876.23         87.4033
876.63        86.32352
877.03        86.66479
877.44        88.60403
877.84        102.3155
878.24         96.1636
878.64        96.03616
879.04        94.88573
879.44        91.23701
879.84        89.36094
880.24        92.40645
880.64         94.3761
881.04        95.75346
881.44        96.35147
881.84        95.42746
882.24         93.4239
882.65        91.54591
883.05          91.043
883.45        92.12372
883.85        94.63603
884.25        97.63974
884.65        99.24669
885.05        98.88062
885.45        97.18733
885.85        95.19125
886.25        94.29771
886.65        94.80451
887.05        96.23554
887.45        98.02927
887.85        99.18829
888.25         99.3504
888.65        98.89279
889.04        98.08629
889.44        97.38084
889.84        96.92344
890.24        96.50272
890.64        96.20609
891.04        96.20489
891.44        96.47911
891.84         97.0554
892.24        97.57351
892.64         97.3539
893.04        96.35128
893.44        94.88594
893.83        93.54105
894.23        93.16779
894.63        93.89349
895.03        95.38819
895.43        97.33939
895.83        99.13242
896.23        100.4233
896.63        101.3538
897.02        101.6645
897.42        100.9831
897.82        99.41338
898.22        97.14973
898.62        94.93969
899.01        93.88182
899.41        94.20329
899.81         95.5435
900.21        97.33236
900.61        98.59804
901.00        99.01879
901.40        98.88208
901.80        98.40849
902.20        97.95699
902.59        97.67192
902.99        97.40211
903.39        97.16176
903.79        97.00955
904.18        96.95641
904.58        97.07438
904.98        97.31361
905.38        97.56476
905.77        97.76567
906.17        97.90649
906.57        98.00964
906.96        98.16916
907.36        98.33636
907.76        98.50352
908.15        98.54819
908.55        98.16628
908.95        97.38107
909.34        96.26479
909.74        95.19263
910.14        94.56546
910.53        94.51418
910.93         94.9868
911.33        95.74937
911.72        96.37892
912.12        96.65398
912.52        96.63548
912.91        96.57821
913.31         96.8363
913.70        97.51691
914.10        98.54096
914.49        99.50669
914.89        99.35999
915.29        97.87511
915.68        95.48047
916.08        93.31944
916.47        92.41828
916.87        92.87003
917.26         94.3405
917.66        96.01984
918.05        96.60776
918.45        95.77629
918.84        94.00174
919.24        92.13329
919.64        91.40097
920.03        92.12079
920.42        93.87398
920.82         96.0442
921.21        97.69654
921.61        98.29964
922.00         98.1823
922.40        97.51542
922.79        96.51458
923.19        95.37001
923.58        93.96878
923.98        92.43602
924.37        91.39888
924.77        91.27541
925.16        90.17517
925.55        91.44064
925.95        92.54391
926.34         94.3488
926.74        96.46675
927.13        98.39523
927.52        99.06742
927.92        98.39026
928.31        96.71431
928.70        94.57402
929.10        92.90159
929.49        91.96334
929.89         91.5456
930.28        91.75686
930.67        92.75922
931.07        94.32738
931.46        96.44674
931.85        98.35023
932.24         98.8989
932.64        97.90141
933.03        95.53853
933.42         92.4253
933.82         90.0454
934.21        88.92525
934.60        88.79098
934.99        89.12312
935.39         89.3393
935.78        89.33782
936.17        89.01453
936.56        88.23522
936.96        89.21541
937.35        88.55177
937.74        88.78898
938.13        89.01102
938.53         89.5461
938.92        90.43268
939.31        91.72488
939.70        93.02959
940.09        93.24129
940.49        92.10578
940.88        90.14894
941.27        88.25019
941.66        87.43636
942.05         87.8145
942.44        89.01522
942.84        90.64873
943.23        92.10519
943.62        92.99709
944.01        93.46944
944.40         93.4777
944.79        92.95118
945.18        91.90167
945.57        90.25472
945.97        88.25489
946.36        86.70604
946.75        86.08762
947.14        86.24638
947.53        86.85007
947.92         87.5057
948.31         88.1315
948.70        88.85685
949.09        89.59582
949.48        90.08501
949.87        90.18452
950.26        89.86588
950.65        89.34196
951.04        89.00465
951.43        88.94132
951.82        89.05926
952.21        89.14799
952.60         88.8613
952.99        88.13301
953.38        87.10582
953.77        86.03427
954.16        85.25114
954.55        84.85252
954.94        84.81281
955.33        84.89231
955.72        84.68716
956.11        84.12465
956.50        83.29339
956.89        82.68594
957.28        83.16743
957.66        84.96803
958.05         87.5629
958.44          90.119
958.83        91.42031
959.22        91.17986
959.61        89.67124
960.00        87.58059
960.39        86.05338
960.78        85.43337
961.16        85.48488
961.55        85.58622
961.94        84.68433
962.33        82.64415
962.72        80.01384
963.11        77.62555
963.49        76.49966
963.88        76.79996
964.27        78.26668
964.66        80.34776
965.04        81.82172
965.43        82.05956
965.82         81.4426
966.21        80.59073
966.60        80.37057
966.98        80.96805
967.37        82.02499
967.76        83.15908
968.15        83.65659
968.53         83.2878
968.92        82.32967
969.31        81.15148
969.69        80.16406
970.08        79.50636
970.47         79.1021
970.86        78.82991
971.24        78.49949
971.63        78.06439
972.02        77.58446
972.40        77.35963
972.79         77.8614
973.17        79.26887
973.56        81.31075
973.95        83.37514
974.33        84.29746
974.72        83.68889
975.11        81.93154
975.49        79.91425
975.88        78.87804
976.26        79.00579
976.65        80.03545
977.04        81.26096
977.42        81.00883
977.81        78.78066
978.19        75.33167
978.58        72.35289
978.96        71.45735
979.35        72.85493
979.74        76.20126
980.12        80.71729
980.51        83.54105
980.89        83.80213
981.28        82.18449
981.66         79.9444
982.05        78.70318
982.43        78.71405
982.82        79.38773
983.20        80.44115
983.59        81.55273
983.97        82.65969
984.35        83.96867
984.74        85.06542
985.12        85.35549
985.51        84.39009
985.89        82.19923
986.28         79.5247
986.66        77.46563
987.04        76.59986
987.43        76.79704
987.81        77.31482
988.20        77.19582
988.58        76.15798
988.96        73.96864
989.35        71.38565
989.73        71.84713
990.12        76.83717
990.50        84.34915
990.88        90.02666
991.27        90.95733
991.65        87.72492
992.03        81.26649
992.42        73.92541
992.80        70.09872
993.18        71.17081
993.56         74.9418
993.95         79.2023
994.33        81.92235
994.71        82.63895
995.10        82.40155
995.48        81.40539
995.86        79.69577
996.24         77.3942
996.63        74.06687
997.01        70.60526
997.39        69.83317
997.77        72.80728
998.15        78.87636
998.54        84.96992
998.92        86.99928
999.30        83.77715
999.68        76.23222
1000.06        66.51273
1000.45        59.88981
1000.83         58.4486
1001.21        60.54398
1001.59        64.15498
1001.97        67.07048
1002.35        68.77903
1002.73        70.14738
1003.12        70.87595
1003.50        70.09859
1003.88        67.72858
1004.26        64.37821
1004.64        61.29988
1005.02        59.49057
1005.40        58.92585
1005.78         59.4299
1006.16        61.88404
1006.54        66.80022
1006.92        71.73331
1007.30        74.97715
1007.69        76.34779
1008.07         76.4147
1008.45        75.23106
1008.83        71.70416
1009.21        61.38389
1009.59        30.42489
1009.97       -45.20482
1010.35       -136.4392
1010.73       -106.2283
1011.11       -40.88222
1011.49         2.37388
1011.86         31.8583
1012.24         48.1641
1012.62        54.90244
1013.00        55.86844
1013.38        52.53231
1013.76        46.54227
1014.14        44.47741
1014.52        51.95607
1014.90        69.99232
1015.28        93.52219
1015.66        105.8979
1016.04        97.19908
1016.41        72.18546
1016.79        44.36517
1017.17        27.44616
1017.55        22.29494
1017.93        22.10238
1018.31         24.6061
1018.69        29.69658
1019.06        37.52232
1019.44        49.39776
1019.82         66.9816
1020.20        85.99974
1020.58        98.23537
1020.95        92.49648
1021.33        36.64571
1021.71        873.7736
1022.09          190.17
1022.46        153.0351
1022.84        143.2642
1023.22        147.4679
1023.60        173.0123
1023.97        446.5511
1024.35       -18.98037
1024.73        34.55164
