SpectraSmart Spectrum 2.9.0.0
--------- Device Information -----------
Spectrum Name :  反射率_0
Saving Time :  2024/04/26 00:50:25
Spectro-Module Model Name : SE2030-DUVN
Spectro-Module Serial Number : OS361AC55029948
Wavelength Start : 200
Wavelength End : 1025
Wavelength Unit : Wavelength(nm)
Spectrum Unit : Reflectance(%)
-----------Spectrum Setting ------------
Integration Time : 20ms
Average : 10
Boxcar : 0
Background removal :  enabled
linearity correction :  enabled
SC :  disabled
Intensity correction :  disabled
DWT denoise :  enabled
savitzky-golay :  disabled
FFT :  disabled
Running average :  disabled
Kalman :  disabled
High pass :  disabled
---------------BEGIN--------------------
Wavelength(nm)             Reflectance(%)
200.29               0
200.75        75.33603
201.21        65.09126
201.67        54.86475
202.13        49.55681
202.58        49.46741
203.04        53.43216
203.50        59.30921
203.96        63.07975
204.42        63.56955
204.88        62.26413
205.34        60.55914
205.80        59.86924
206.26        60.68025
206.72        63.22659
207.18        68.82368
207.64        75.39169
208.10        74.87602
208.55        69.82375
209.01        65.98833
209.47        64.46835
209.93        64.32953
210.39        65.10036
210.85        65.63742
211.31         63.8391
211.77        59.46913
212.23        53.47853
212.69        48.40092
213.14        48.20048
213.60        53.14458
214.06        62.14869
214.52        71.99113
214.98         77.6696
215.44        77.97343
215.90        74.52718
216.36        69.55329
216.81        66.18081
217.27        65.39514
217.73        65.94719
218.19        66.53957
218.65        65.47742
219.11        61.99008
219.57        55.69364
220.02        46.78891
220.48        39.53022
220.94        36.85733
221.40        38.78749
221.86        41.64863
222.32        41.05011
222.77          37.173
223.23        32.18172
223.69         28.6493
224.15        29.34068
224.61         33.6488
225.06        40.01896
225.52        45.71283
225.98        47.34419
226.44        44.45391
226.90        38.68718
227.36        32.15121
227.81        27.65626
228.27        26.20939
228.73        26.78249
229.19         28.7447
229.65        31.08828
230.10        33.23741
230.56         35.2831
231.02         37.0458
231.48        38.29831
231.93        39.06058
232.39        39.35535
232.85        39.29617
233.31        39.14334
233.77        38.95314
234.22        38.64612
234.68        38.21291
235.14        37.56734
235.60        36.77697
236.05        36.05004
236.51        35.41541
236.97         34.7699
237.43         34.1271
237.88        33.52138
238.34        33.34665
238.80        34.55866
239.26        37.45798
239.71        41.79139
240.17        46.44224
240.63        49.91504
241.08        51.76692
241.54        52.19398
242.00        51.88658
242.46        51.96818
242.91        53.15842
243.37        56.06898
243.83        65.98288
244.28        103.5464
244.74        156.2895
245.20        140.4236
245.66        119.1333
246.11        111.9246
246.57         112.535
247.03        120.8167
247.48        140.4598
247.94        104.6715
248.40        76.98718
248.85        71.50188
249.31        71.42116
249.77        73.60055
250.22        77.69834
250.68        84.65907
251.14        94.03198
251.59        98.61974
252.05        92.32159
252.51        78.94536
252.96        65.59874
253.42        58.54584
253.88        57.03473
254.33        58.76793
254.79        62.80966
255.25        67.22916
255.70         70.8842
256.16        74.24408
256.62        76.05521
257.07        75.00445
257.53        71.88042
257.99        67.08606
258.44        62.36327
258.90        60.56893
259.35        60.82581
259.81        62.04015
260.27        62.25164
260.72        59.57991
261.18        54.82358
261.63        48.90387
262.09         43.6076
262.55        40.37513
263.00        39.08894
263.46        39.02924
263.91        39.10281
264.37        38.37856
264.83        36.72221
265.28        34.43676
265.74        32.23259
266.19        30.94846
266.65        30.78926
267.11        31.26526
267.56        31.78416
268.02        31.65647
268.47        30.77193
268.93        29.38877
269.38        27.80459
269.84        26.73313
270.30        26.36921
270.75        26.50978
271.21        26.81942
271.66        26.81122
272.12        26.34763
272.57        25.59207
273.03        24.80703
273.48        24.29997
273.94        24.16353
274.39        24.24759
274.85        24.35364
275.31        24.19571
275.76         23.7122
276.22         23.0334
276.67        22.32609
277.13        21.90817
277.58        21.78714
278.04        21.87473
278.49        21.95746
278.95        21.78602
279.40        21.30176
279.86        20.65566
280.31        19.97123
280.77        19.53225
281.22        19.35421
281.68        19.35245
282.13        19.42228
282.59        19.44403
283.04        19.37822
283.50        19.30187
283.95        19.18654
284.41        18.99794
284.86        18.74491
285.32        18.44312
285.77        18.21289
286.22        18.29607
286.68        18.68588
287.13        19.26892
287.59        19.81339
288.04         19.9704
288.50        19.70022
288.95        19.11494
289.41        18.42604
289.86        17.85434
290.32        17.52374
290.77        17.35502
291.22        17.34646
291.68        17.45592
292.13        17.66477
292.59        17.99274
293.04        18.41019
293.50        18.86143
293.95        19.31082
294.40         19.7268
294.86        20.10548
295.31         20.4649
295.77        20.80951
296.22        21.13686
296.68        21.41187
297.13        21.55251
297.58         21.5749
298.04        21.53185
298.49        21.53498
298.95        21.78472
299.40        22.30421
299.85        23.02363
300.31        23.80216
300.76        24.42836
301.21        24.82243
301.67        25.06155
302.12        25.17815
302.58        25.26901
303.03        25.35438
303.48        25.41859
303.94        25.51409
304.39        25.69385
304.84        25.96726
305.30        26.31288
305.75        26.64283
306.20        26.82587
306.66        26.85248
307.11        26.75173
307.57        26.60795
308.02        26.48112
308.47        26.42231
308.93         26.4116
309.38        26.44636
309.83        26.55225
310.29        26.70911
310.74        26.89381
311.19        27.05918
311.65        27.13093
312.10        27.08986
312.55        26.96177
313.00        26.74656
313.46        26.45762
313.91         26.1132
314.36        25.73579
314.82        25.41718
315.27        25.28261
315.72        25.35309
316.18        25.58704
316.63         25.8775
317.08        26.02271
317.53        25.96365
317.99        25.74271
318.44        25.46012
318.89        25.28157
319.35        25.24285
319.80        25.29781
320.25        25.34479
320.70         25.2218
321.16        24.89661
321.61        24.42954
322.06        23.93638
322.51        23.58547
322.97        23.40672
323.42        23.35698
323.87        23.33204
324.32        23.16099
324.78        22.80244
325.23        22.31876
325.68        21.81083
326.13        21.44072
326.59        21.25128
327.04        21.21262
327.49        21.24722
327.94        21.22775
328.39        21.11599
328.85        20.93887
329.30        20.78257
329.75        20.76287
330.20        20.90381
330.66        21.13932
331.11        21.39061
331.56         21.4954
332.01        21.40533
332.46        21.14919
332.92        20.80252
333.37        20.52638
333.82        20.37593
334.27        20.33363
334.72        20.31575
335.17        20.17502
335.63        19.88158
336.08        19.48987
336.53        19.14317
336.98        19.06526
337.43        19.29262
337.88        19.75059
338.34        20.22454
338.79         20.4094
339.24        20.20547
339.69        19.69983
340.14         19.1091
340.59        18.81559
341.05        18.90991
341.50        19.26968
341.95        19.69643
342.40        19.89811
342.85        19.80637
343.30        19.53253
343.75        19.16669
344.20        18.86523
344.66        18.68615
345.11        18.53604
345.56        18.44032
346.01        18.43879
346.46         18.5116
346.91         18.6732
347.36         18.7578
347.81        18.49312
348.26        17.86688
348.72        17.00351
349.17         16.1628
349.62        15.85587
350.07        16.19024
350.52        16.98574
350.97        17.95086
351.42        18.63727
351.87        18.91168
352.32        18.89938
352.77        18.69813
353.22        18.47183
353.67        18.28607
354.13        18.08351
354.58         17.8739
355.03        17.71844
355.48        17.62636
355.93        17.61618
356.38        17.62426
356.83        17.52719
357.28        17.30451
357.73        16.98868
358.18        16.67626
358.63        16.52227
359.08        16.55569
359.53        16.72538
359.98        16.91806
360.43        16.95998
360.88        16.81103
361.33        16.52046
361.78        16.19563
362.23        16.01152
362.68        16.00546
363.13        16.11409
363.58         16.2314
364.03        16.19366
364.48        15.96835
364.93        15.62517
365.38        15.24695
365.83        14.96131
366.28         14.8107
366.73        14.74954
367.18        14.76146
367.63        14.82174
368.08        14.90162
368.53        15.00179
368.98        15.07299
369.43        15.03418
369.88        14.87873
370.33        14.63909
370.78        14.36667
371.23        14.15548
371.68        14.03963
372.13         13.9869
372.58        14.01496
373.03         14.1454
373.48        14.35697
373.93        14.63706
374.38        14.87517
374.83        14.90263
375.28        14.69551
375.72        14.29212
376.17        13.85389
376.62        13.60781
377.07        13.61501
377.52        13.80591
377.97        14.06943
378.42        14.22125
378.87        14.20843
379.32        14.09485
379.77        13.93867
380.22        13.82054
380.67        13.76399
381.11        13.73676
381.56        13.71921
382.01        13.69403
382.46        13.65132
382.91        13.59945
383.36        13.54129
383.81        13.47531
384.26        13.40433
384.71        13.33386
385.15         13.2512
385.60        13.14522
386.05        13.01199
386.50         12.8497
386.95        12.70163
387.40        12.64137
387.85        12.68045
388.29        12.79495
388.74        12.90718
389.19        12.90512
389.64        12.77781
390.09          12.554
390.54        12.33043
390.98        12.27015
391.43        12.41092
391.88        12.68168
392.33         12.9564
392.78        13.05107
393.23        12.93935
393.67        12.68685
394.12        12.41351
394.57        12.23808
395.02         12.1902
395.47        12.22574
395.91        12.30709
396.36        12.35237
396.81         12.3365
397.26        12.27738
397.71         12.1976
398.15        12.11355
398.60         12.0523
399.05        12.01198
399.50        11.96478
399.95        11.83877
400.39         11.6822
400.84        11.47232
401.29        11.29392
401.74         11.2774
402.18        11.45528
402.63        11.76481
403.08        12.09416
403.53        12.26368
403.97        12.22814
404.42        12.04065
404.87        11.78232
405.32         11.5982
405.76        11.53579
406.21        11.55345
406.66         11.6105
407.11        11.65244
407.55        11.66497
408.00        11.66548
408.45        11.65831
408.90        11.63922
409.34        11.60929
409.79        11.56421
410.24        11.51859
410.68        11.49681
411.13        11.50461
411.58        11.53888
412.03        11.57835
412.47        11.58736
412.92        11.54926
413.37        11.47389
413.81        11.39328
414.26        11.36932
414.71        11.40566
415.15        11.49033
415.60        11.56138
416.05        11.53792
416.49        11.40452
416.94        11.20025
417.39        10.98734
417.83        10.87334
418.28        10.89123
418.73        10.99116
419.17        11.13082
419.62        11.23742
420.07        11.28949
420.51        11.31114
420.96        11.28318
421.41        11.17105
421.85        10.98356
422.30        10.75577
422.74        10.54963
423.19        10.47947
423.64         10.5499
424.08        10.73306
424.53        10.95634
424.98        11.10972
425.42        11.15473
425.87        11.11342
426.31        11.00804
426.76        10.91319
427.21        10.83218
427.65        10.67388
428.10        10.51252
428.54        10.52967
428.99        10.73917
429.44        11.06968
429.88        11.38138
430.33        11.48386
430.77        11.34449
431.22        11.02163
431.66        10.66637
432.11        10.55408
432.56        10.71067
433.00         10.9961
433.45        11.27223
433.89        11.44915
434.34        11.44488
434.78         11.1931
435.23        10.87155
435.67        10.82839
436.12        11.02992
436.57        11.09349
437.01        10.97876
437.46        10.89513
437.90        10.86528
438.35        10.83163
438.79        10.79612
439.24          10.795
439.68        10.83277
440.13        10.84707
440.57        10.84785
441.02         10.9975
441.46        11.20315
441.91        11.07713
442.35        10.68392
442.80        10.44335
443.24        10.34149
443.69        10.22848
444.13        10.08399
444.58        9.885357
445.02        9.684981
445.47         9.68934
445.91         9.84908
446.36        9.906727
446.80        9.832645
447.24        9.760252
447.69        9.721107
448.13        9.696076
448.58        9.696984
449.02         9.72704
449.47        9.749747
449.91        9.706546
450.36        9.594785
450.80        9.432693
451.25        9.290268
451.69        9.265564
452.13        9.375619
452.58        9.572605
453.02        9.786425
453.47        9.901165
453.91        9.892578
454.36        9.800194
454.80         9.65959
455.24        9.534675
455.69        9.458567
456.13        9.405246
456.58        9.397006
457.02         9.45254
457.46        9.570642
457.91        9.740438
458.35        9.911391
458.79        9.989413
459.24        9.964458
459.68        9.851247
460.13        9.721364
460.57        9.656559
461.01          9.6908
461.46        9.791374
461.90        9.915433
462.34        9.979897
462.79         9.96548
463.23        9.893154
463.68        9.819841
464.12        9.835058
464.56        9.959484
465.01        10.16031
465.45        10.34875
465.89        10.43259
466.34        10.40466
466.78        10.24238
467.22        10.04468
467.67        10.07259
468.11        10.30292
468.55        10.42005
468.99        10.39278
469.44        10.38251
469.88        10.42358
470.32        10.55172
470.77        10.71422
471.21        10.74902
471.65        10.63752
472.10        10.49965
472.54        10.38707
472.98        10.35483
473.42        10.42389
473.87        10.57871
474.31        10.76541
474.75        10.89079
475.20        10.93471
475.64        10.91705
476.08        10.88228
476.52        10.90001
476.97        10.98674
477.41        11.12362
477.85        11.26514
478.29        11.36045
478.74        11.39868
479.18        11.34144
479.62        11.24151
480.06        11.37138
480.50        11.50775
480.95        11.65967
481.39         11.7129
481.83        11.73605
482.27        11.72484
482.72        11.59482
483.16        11.40941
483.60        11.43474
484.04        11.68353
484.48        11.80409
484.93        11.96401
485.37        12.32268
485.81        12.74339
486.25        12.99172
486.69        16.94818
487.14        13.31985
487.58        9.075007
488.02        11.16012
488.46        12.74883
488.90        12.73358
489.34        12.67121
489.79        12.63035
490.23        13.45454
490.67        13.91561
491.11        13.81488
491.55        13.72576
491.99        13.63145
492.43         13.5085
492.88        13.41615
493.32         13.4233
493.76        13.46523
494.20        13.67072
494.64        13.99955
495.08        14.41274
495.52        14.84235
495.96         15.1872
496.41        15.38914
496.85        15.49476
497.29        15.52758
497.73        15.33961
498.17        15.13184
498.61        15.29694
499.05         15.8322
499.49        15.97594
499.93        16.10417
500.37        16.24734
500.82        16.36068
501.26        16.60786
501.70        16.90228
502.14        17.09871
502.58        17.16537
503.02        17.22012
503.46        17.26542
503.90        17.21938
504.34        17.11768
504.78        17.06045
505.22        17.06825
505.66        17.12417
506.10        17.20208
506.54        17.25295
506.98        17.26772
507.42         17.2674
507.86        17.29067
508.30        17.39549
508.74        17.58724
509.18        17.83416
509.62        18.09128
510.06        18.28722
510.50         18.3997
510.94        18.45485
511.38        18.46266
511.82        18.44002
512.26        18.40217
512.70        18.34179
513.14        18.29871
513.58        18.33948
514.02        18.46235
514.46        18.64126
514.90         18.8102
515.34        18.82514
515.78        18.63394
516.22        18.44504
516.66        18.33227
517.10        17.95075
517.54        17.32563
517.98        18.11134
518.42        17.88269
518.86        18.24372
519.30        18.44752
519.74        18.71662
520.18        18.96875
520.62        19.04066
521.06         18.9366
521.50        18.68378
521.93        18.37437
522.37         18.1737
522.81        18.12685
523.25        18.18748
523.69         18.3075
524.13        18.40954
524.57        18.46252
525.01         18.4887
525.45        18.48361
525.89        18.43745
526.32        18.35225
526.76           18.23
527.20        18.08673
527.64        17.96016
528.08        17.86478
528.52        17.77589
528.96         17.6914
529.40        17.65264
529.83        17.66645
530.27        17.54412
530.71        17.60534
531.15        17.52722
531.59        17.41058
532.03        17.25573
532.46        17.12479
532.90        17.12319
533.34        17.25643
533.78        17.48238
534.22        17.70863
534.66        17.79876
535.09        17.72045
535.53         17.5267
535.97         17.2798
536.41         17.0829
536.85        16.97453
537.28        16.93078
537.72        16.93753
538.16        16.97082
538.60        17.01925
539.04        17.07855
539.47        17.15193
539.91        17.28382
540.35        17.45364
540.79        17.58301
541.22        17.66224
541.66        17.75009
542.10        17.84553
542.54        17.90232
542.97         17.9491
543.41        18.06284
543.85        18.24934
544.29         18.4998
544.72         18.7459
545.16        18.88667
545.60        18.90662
546.04        18.83435
546.47        18.77833
546.91        18.91978
547.35        19.27826
547.79         19.7937
548.22        20.31672
548.66        20.59502
549.10        20.58977
549.53        20.41372
549.97        20.20912
550.41        20.14116
550.84        20.26711
551.28        20.54907
551.72        20.92421
552.15        21.27695
552.59         21.5562
553.03        21.78916
553.46        21.98449
553.90        22.17215
554.34        22.36551
554.77        22.52645
555.21        22.63978
555.65        22.75291
556.08        22.88008
556.52        22.74076
556.96        22.89801
557.39        22.96805
557.83         23.1228
558.27        23.32193
558.70        23.54903
559.14        23.76067
559.57        23.92981
560.01        24.08047
560.45        24.18327
560.88        24.19277
561.32        24.13272
561.75        24.00667
562.19        23.89669
562.63        23.89547
563.06          24.016
563.50        24.23346
563.93        24.48545
564.37         24.6808
564.80        24.78568
565.24        24.83958
565.68        24.86477
566.11        24.89803
566.55        24.97341
566.98        25.07067
567.42        25.21091
567.85        25.42155
568.29        25.71393
568.72        26.00051
569.16         26.2838
569.60        26.66281
570.03        27.01681
570.47        27.05845
570.90        26.91282
571.34        26.62632
571.77        27.00738
572.21         27.1005
572.64        27.22018
573.08        26.87521
573.51        26.18268
573.95        27.40951
574.38        29.20767
574.82        28.32832
575.25        28.24205
575.69        27.18274
576.12        26.65351
576.56        26.71308
576.99        27.60763
577.42        28.77027
577.86        28.37232
578.29        28.17856
578.73        29.79533
579.16        27.42957
579.60        24.91834
580.03          25.972
580.47        27.78241
580.90        28.04633
581.33        27.59319
581.77         27.2067
582.20        29.43778
582.64        29.24466
583.07        24.81737
583.51        24.28189
583.94        23.74949
584.37        24.71318
584.81        25.80408
585.24        26.99433
585.68        27.48965
586.11        26.74319
586.54         24.9208
586.98        24.23123
587.41        24.32441
587.85        25.77736
588.28         26.2323
588.71        25.00005
589.15        24.30908
589.58        24.68005
590.01        25.02942
590.45        25.35641
590.88        25.37551
591.31        25.05647
591.75        25.01608
592.18        25.11816
592.61        25.62511
593.05        26.04252
593.48         27.1604
593.91        27.18957
594.35        25.32039
594.78         24.9832
595.21        25.06751
595.65        26.25464
596.08        27.20019
596.51        26.30471
596.94        25.87666
597.38        26.38299
597.81        27.59578
598.24        28.39704
598.68        28.10742
599.11        28.06928
599.54        29.46609
599.97        30.46583
600.41        28.84312
600.84         29.2871
601.27        30.19919
601.70        30.21428
602.14        30.53964
602.57        30.48187
603.00        31.09266
603.43         32.3003
603.87        33.64754
604.30        33.84818
604.73        33.05837
605.16        33.12875
605.60        34.14908
606.03         35.2487
606.46        36.00679
606.89         36.4589
607.32        35.79349
607.76        36.09425
608.19        37.60892
608.62        37.41699
609.05        37.13261
609.48        37.72396
609.92        37.90593
610.35        38.49377
610.78        39.78464
611.21        40.59156
611.64        39.15266
612.07        39.87505
612.50        40.37817
612.94        40.93317
613.37        40.94876
613.80        41.38633
614.23        42.00803
614.66         42.3091
615.09        42.80272
615.52        43.06819
615.96        43.18918
616.39        43.70985
616.82        43.19312
617.25        43.56709
617.68        44.29932
618.11        44.86448
618.54        45.09673
618.97        44.98982
619.40        44.80154
619.84        44.96583
620.27        45.78307
620.70        46.38803
621.13        46.73342
621.56         46.4645
621.99         45.8174
622.42        46.49054
622.85        47.78694
623.28        47.76012
623.71        47.30372
624.14        47.18546
624.57        47.20007
625.00        46.95995
625.43        47.02655
625.86        46.51828
626.29        46.56459
626.72        46.61192
627.15        46.41957
627.58        46.42986
628.01        46.42614
628.44        46.29823
628.87        45.89726
629.30         45.7724
629.73        45.78735
630.16        45.68917
630.59        45.10952
631.02        44.51342
631.45        43.90469
631.88        43.39751
632.31         43.0209
632.74        42.71962
633.17        42.43951
633.60        42.10205
634.03         41.6804
634.46        41.19989
634.89        40.67929
635.32        40.15142
635.75        39.63545
636.18        39.12358
636.61        38.63163
637.04        38.18297
637.47        37.77506
637.89        37.40407
638.32        37.04154
638.75        36.66172
639.18        36.26355
639.61        35.86715
640.04        35.47878
640.47        35.10262
640.90        34.74733
641.33        34.41021
641.76        34.11332
642.18        33.94409
642.61         33.9096
643.04        33.90512
643.47        33.86377
643.90         34.1167
644.33        33.94024
644.76        33.92745
645.18        33.88897
645.61        33.87796
646.04        33.90236
646.47        33.94632
646.90        34.05799
647.33        34.28695
647.75        34.65144
648.18        35.16574
648.61        35.70501
649.04        36.07411
649.47        36.24477
649.89        36.17468
650.32        36.11859
650.75        36.61564
651.18        37.62828
651.61        38.65122
652.03        39.44526
652.46        39.87667
652.89        40.16072
653.32        40.35147
653.74        40.70833
654.17        41.86764
654.60        42.88346
655.03        42.08359
655.46        42.95053
655.88        46.17588
656.31        49.46887
656.74        113.8756
657.16        73.68218
657.59        25.93014
658.02        19.93179
658.45        34.94998
658.87        45.65133
659.30        47.76354
659.73        47.99456
660.15        46.47726
660.58        48.79621
661.01        50.35872
661.44        49.04007
661.86        48.87352
662.29        49.29256
662.72        50.14539
663.14        51.25612
663.57        51.46066
664.00        50.92929
664.42        50.98584
664.85        51.69847
665.27        52.21638
665.70        52.39967
666.13        52.43464
666.55        52.47639
666.98        52.31291
667.41        52.11641
667.83        52.12324
668.26        52.38422
668.69         52.7961
669.11        53.20144
669.54        53.59935
669.96        53.44634
670.39        53.25083
670.82        53.00946
671.24         52.9212
671.67        53.27068
672.09        53.61121
672.52        53.86053
672.94        54.61214
673.37        54.61821
673.80        54.59835
674.22        54.31929
674.65         54.2563
675.07        54.43705
675.50        54.49312
675.92        54.46446
676.35        54.60438
676.77        54.91494
677.20        55.29382
677.62        55.68247
678.05        55.89599
678.47        55.87299
678.90        56.02946
679.32        55.81723
679.75        55.74246
680.17        55.86353
680.60        56.06178
681.02        56.30731
681.45        56.24707
681.87        55.94786
682.30         55.8948
682.72         56.1116
683.15        56.18431
683.57        56.18708
684.00          56.485
684.42        57.17158
684.85        57.48888
685.27         57.4357
685.70          57.279
686.12        57.11981
686.54         57.0765
686.97        57.19206
687.39         57.4403
687.82        57.72081
688.24         57.9985
688.66        58.05074
689.09        58.06854
689.51        58.06559
689.94        58.14077
690.36        58.32663
690.78        58.53005
691.21        58.71682
691.63        58.96689
692.06        59.20408
692.48        59.16531
692.90        58.94375
693.33        58.92923
693.75        59.15897
694.17        59.43158
694.60         59.7031
695.02        59.94901
695.44        60.10532
695.87        60.37722
696.29        60.73997
696.71        60.54584
697.14        60.02304
697.56        60.52581
697.98        61.78739
698.41          61.756
698.83        61.05387
699.25        60.61346
699.68        60.70923
700.10        60.69965
700.52        60.61135
700.94        60.78994
701.37        61.16568
701.79        61.53371
702.21        61.81236
702.64        62.05798
703.06        62.22913
703.48        62.25097
703.90         62.1236
704.33         61.8938
704.75        61.65113
705.17        61.52639
705.59        61.55555
706.01        61.98672
706.44        62.03271
706.86         62.6197
707.28        62.66603
707.70        62.86015
708.12         62.9669
708.55        63.03142
708.97        63.05333
709.39        63.02284
709.81        62.98602
710.23        63.00977
710.66        63.11072
711.08         63.2997
711.50        63.48936
711.92        63.55661
712.34        63.48615
712.76        63.28504
713.19        63.06326
713.61         63.0988
714.03        63.43532
714.45        63.70626
714.87         64.2594
715.29        64.41505
715.71        64.27208
716.13        63.90958
716.56         63.4898
716.98        63.29118
717.40        63.37981
717.82        63.67576
718.24        64.06845
718.66        64.36934
719.08        64.51324
719.50        64.55457
719.92        64.52756
720.34        64.50573
720.76           64.52
721.19        64.43813
721.61        64.47171
722.03        64.51798
722.45         64.6346
722.87        64.80904
723.29         65.0105
723.71        65.17542
724.13         65.2807
724.55        65.34109
724.97        65.36443
725.39        65.36893
725.81        65.36514
726.23        65.34843
726.65        65.33454
727.07        65.34763
727.49        65.39688
727.91        65.48681
728.33        65.59721
728.75        65.69071
729.17        65.75084
729.59        65.77297
730.01        65.79531
730.43        65.87102
730.85        66.01442
731.27         66.2416
731.69        66.45616
732.10        66.48162
732.52        66.28746
732.94        65.96295
733.36        65.70712
733.78         65.6869
734.20        65.94049
734.62         66.7672
735.04        67.85079
735.46        67.82581
735.88        66.96984
736.30        67.21923
736.72        68.53267
737.13        69.09452
737.55        68.62352
737.97        68.44487
738.39        68.62296
738.81        67.87354
739.23        66.67343
739.65        67.51568
740.06        69.86575
740.48        70.19565
740.90        68.55528
741.32        67.74012
741.74        68.06068
742.16        68.25542
742.57        68.38972
742.99        69.23478
743.41        70.49092
743.83        71.10595
744.25        70.98612
744.67           70.69
745.08        70.46012
745.50         70.4286
745.92        70.68007
746.34        71.16019
746.75        71.72396
747.17        72.06006
747.59        72.10452
748.01        72.09295
748.42        72.11192
748.84        71.96052
749.26        71.86954
749.68        72.48442
750.09        73.61227
750.51        74.42929
750.93        74.71222
751.35        74.42062
751.76        73.78288
752.18        73.56936
752.60        73.78127
753.01        73.78443
753.43        73.60494
753.85        73.64513
754.27         73.9009
754.68        74.79013
755.10        75.07922
755.52        75.58665
755.93        75.89777
756.35        75.98476
756.77          75.997
757.18        76.00909
757.60        76.05151
758.02        76.64172
758.43        77.38237
758.85        76.49043
759.26        74.61237
759.68        74.44934
760.10         75.8139
760.51        76.97919
760.93        76.71768
761.34        75.33417
761.76        75.00957
762.18        74.34368
762.59         74.2132
763.01         74.7598
763.42        75.87203
763.84        76.63248
764.26        76.85953
764.67        76.90977
765.09        76.78916
765.50        76.48235
765.92        75.99274
766.33        74.87999
766.75        73.57024
767.16        73.22057
767.58        73.97276
768.00         75.4075
768.41        77.19558
768.83        78.63651
769.24        79.16026
769.66        78.57818
770.07        77.32754
770.49        75.68981
770.90        74.22436
771.32         75.0438
771.73        77.45541
772.15        77.06632
772.56        74.29427
772.97        73.63876
773.39        75.08436
773.80         75.7044
774.22        75.25681
774.63         75.2942
775.05        75.74664
775.46        75.98637
775.88        75.91848
776.29        75.62965
776.70        75.24709
777.12        75.09754
777.53        75.25272
777.95        75.54613
778.36        75.83129
778.77         75.8603
779.19        75.62423
779.60        75.22225
780.02        74.80832
780.43        74.76601
780.84        75.23631
781.26        75.46322
781.67        75.49803
782.09        76.88981
782.50        78.92999
782.91        77.81282
783.33        74.93573
783.74        73.95069
784.15        75.23271
784.57        76.24807
784.98        76.55669
785.39        76.51594
785.81        76.17542
786.22        75.54657
786.63         75.0191
787.04        74.96781
787.46        75.46902
787.87        76.48727
788.28         77.6733
788.70        78.31575
789.11        78.24852
789.52        77.75939
789.93        77.09856
790.35        76.52651
790.76        76.21019
791.17        76.24052
791.58        76.52444
792.00        76.78584
792.41        76.88683
792.82        76.78911
793.23        76.60763
793.65        76.41262
794.06        76.46794
794.47        77.40636
794.88        78.41827
795.29        78.99079
795.71         75.9324
796.12        74.09544
796.53        73.07977
796.94        72.68404
797.35        73.04429
797.76        74.45341
798.18         76.3046
798.59        77.41273
799.00         77.3877
799.41        76.46532
799.82        75.14507
800.23         74.3206
800.64        74.22727
801.06        74.51099
801.47        75.05952
801.88        75.59155
802.29        75.96455
802.70        76.28706
803.11        76.51351
803.52        76.53699
803.93        76.37904
804.34        76.03991
804.75        75.64075
805.17        75.55656
805.58         75.9134
805.99        76.12718
806.40        76.14297
806.81        77.06431
807.22         78.2562
807.63        77.06017
808.04         74.1773
808.45        73.00709
808.86        73.81968
809.27        74.85195
809.68        75.65576
810.09        76.20769
810.50        76.28941
810.91        75.93866
811.32        75.36938
811.73         74.9259
812.14        74.71564
812.55        74.60693
812.96        74.61271
813.37        74.74716
813.78        74.98417
814.19        75.38519
814.60        75.72045
815.01        75.61353
815.42        75.01803
815.83        73.99795
816.24        72.97083
816.65         72.6771
817.05        73.32796
817.46        74.67644
817.87        76.15332
818.28        76.73711
818.69        76.16242
819.10          74.698
819.51        73.01867
819.92        72.26992
820.33        72.74819
820.74        74.08701
821.14        75.65824
821.55         76.3696
821.96        75.95213
822.37        74.72853
822.78         73.2441
823.19        72.35609
823.60        72.29152
824.00        72.80468
824.41        73.56645
824.82        74.15469
825.23        74.36475
825.64         74.3567
826.04        74.24327
826.45        74.17294
826.86        74.19117
827.27        74.19617
827.68        74.17581
828.08        74.16981
828.49        74.12177
828.90        74.10555
829.31        74.05448
829.72        73.83154
830.12         73.4604
830.53        72.97816
830.94         72.6006
831.35        72.61104
831.75        73.09007
832.16        73.89142
832.57        74.82813
832.97        75.49004
833.38        75.66717
833.79         75.4711
834.20        75.09396
834.60        74.83444
835.01        74.80568
835.42        74.90953
835.82        75.03257
836.23        74.91383
836.64        74.53518
837.04        74.00893
837.45        73.50169
837.86        73.27041
838.26        73.37885
838.67        73.70729
839.08        74.11877
839.48        74.36255
839.89        74.32889
840.29        74.11771
840.70        73.80017
841.11        73.46594
841.51        73.17017
841.92          72.866
842.33        72.63445
842.73        72.62229
843.14        72.81009
843.54        73.19226
843.95        73.58785
844.35        73.75082
844.76        73.60775
845.17        73.25198
845.57        72.81745
845.98        72.52522
846.38        72.43618
846.79          72.449
847.19        72.55943
847.60         72.6725
848.00        72.78073
848.41        72.89711
848.81        72.97223
849.22        72.84649
849.62        72.55551
850.03         72.1352
850.43        71.77834
850.84        71.76827
851.24        72.21754
851.65        72.87157
852.05        73.68072
852.46         74.3814
852.86        74.87059
853.27        75.25044
853.67        75.19208
854.07        74.30833
854.48         72.7037
854.88        70.54526
855.29        68.54396
855.69        67.72533
856.10        68.27728
856.50        70.08957
856.90        72.55389
857.31        74.20371
857.71        74.54195
858.12        73.87566
858.52        72.77381
858.92        72.01505
859.33        71.79182
859.73        71.87635
860.13        72.20459
860.54        72.65448
860.94        73.21438
861.34        73.92297
861.75        74.61398
862.15        75.08903
862.55        75.25901
862.96        75.14201
863.36        74.90561
863.76        74.82448
864.17        74.97999
864.57        75.34122
864.97        75.79178
865.38        76.14648
865.78        76.39452
866.18         76.5035
866.58        76.56622
866.99        76.72571
867.39        77.06055
867.79        77.55917
868.19        77.91705
868.60        77.57874
869.00        76.46787
869.40        74.79515
869.80        73.32896
870.21        73.24271
870.61        74.85709
871.01        77.80013
871.41        81.14702
871.81        83.30322
872.22         83.7991
872.62        83.06071
873.02        81.83077
873.42        81.48935
873.82        82.17513
874.22        83.09683
874.63         83.9608
875.03        84.25025
875.43        83.67951
875.83        83.47337
876.23        81.85507
876.63        80.98939
877.03        80.68453
877.44        81.06796
877.84        105.3074
878.24        87.00217
878.64        87.63884
879.04        88.53981
879.44         84.1864
879.84        82.20295
880.24        87.11062
880.64          89.495
881.04        90.39697
881.44        90.76849
881.84        90.08823
882.24        88.54266
882.65        87.08784
883.05        86.61674
883.45        87.28598
883.85        89.10508
884.25        91.37183
884.65        92.55865
885.05        92.21685
885.45        90.87751
885.85        89.30619
886.25        88.54192
886.65        88.81745
887.05        89.78241
887.45         91.0453
887.85        91.92515
888.25        92.14771
888.65        91.93405
889.04        91.46913
889.44        91.07146
889.84         90.8286
890.24        90.61427
890.64        90.37506
891.04        90.05738
891.44        89.64416
891.84        89.20171
892.24        88.77384
892.64        88.39874
893.04        88.15307
893.44        88.09948
893.83         88.2266
894.23        88.53291
894.63        88.99404
895.03        89.52195
895.43        90.25079
895.83        91.40369
896.23        92.91148
896.63        94.64305
897.02        95.98145
897.42        95.95939
897.82        94.48186
898.22        91.97121
898.62        89.30637
899.01        87.75869
899.41        87.64463
899.81        88.53687
900.21        89.96964
900.61        91.16496
901.00        91.81181
901.40        92.13644
901.80        92.17255
902.20        91.96989
902.59        91.58919
902.99        90.95524
903.39        90.20527
903.79        89.62757
904.18         89.3346
904.58        89.36635
904.98        89.61871
905.38         89.8933
905.77        90.10448
906.17        90.25364
906.57        90.44221
906.96        90.87978
907.36        91.49415
907.76        92.20361
908.15        92.70331
908.55         92.3946
908.95        91.25739
909.34        89.50826
909.74        87.70589
910.14        86.53938
910.53        86.24281
910.93        86.67165
911.33        87.66805
911.72        88.90643
912.12        90.05849
912.52        91.08071
912.91        91.90167
913.31         92.4723
913.70        92.86562
914.10        93.07314
914.49        92.93413
914.89         92.1412
915.29        90.78836
915.68        89.04531
916.08        87.69617
916.47        87.37758
916.87        88.09065
917.26        89.64452
917.66        91.21801
918.05        91.47353
918.45        90.12779
918.84        87.67908
919.24        85.12119
919.64        83.91768
920.03        84.44148
920.42        86.23923
920.82        88.64294
921.21        90.56049
921.61        91.38592
922.00        91.48147
922.40        90.97746
922.79        90.08369
923.19        89.01355
923.58          87.533
923.98        85.80735
924.37        84.86012
924.77        85.20597
925.16        83.72064
925.55        85.73265
925.95        86.73022
926.34        88.17164
926.74        89.69483
927.13        91.09751
927.52        91.72256
927.92        91.51503
928.31         90.7138
928.70         89.4894
929.10        88.18825
929.49        86.94305
929.89        85.72385
930.28        84.99261
930.67        85.51328
931.07        87.22989
931.46        89.93169
931.85        92.56844
932.24        93.57203
932.64        92.61864
933.03        89.99876
933.42        86.45628
933.82        83.72385
934.21        82.44696
934.60        82.28545
934.99        82.57683
935.39        82.65614
935.78         82.4069
936.17        81.50332
936.56        79.84142
936.96        81.61312
937.35        81.03242
937.74        82.29562
938.13        83.32573
938.53        84.20496
938.92        85.01353
939.31        85.90641
939.70        86.66067
940.09        86.55822
940.49        85.52281
940.88        83.93337
941.27         82.4892
941.66        82.01003
942.05        82.56274
942.44        83.85641
942.84        85.52276
943.23        86.95926
943.62        87.80119
944.01        88.18309
944.40        88.08337
944.79        87.48482
945.18        86.39819
945.57         84.7092
945.97        82.67493
946.36        81.08601
946.75        80.42654
947.14        80.58054
947.53        81.09224
947.92        81.38864
948.31        81.38484
948.70        81.24144
949.09         81.1078
949.48        81.29951
949.87        81.88219
950.26        82.60368
950.65        83.31299
951.04        83.86466
951.43        84.17765
951.82        84.30604
952.21        84.04574
952.60        83.09488
952.99        81.50844
953.38        79.45526
953.77        77.46792
954.16        76.30308
954.55        76.10286
954.94         76.7132
955.33        77.60866
955.72        77.87061
956.11        77.26788
956.50        76.04283
956.89        74.79312
957.28        74.62278
957.66        75.91288
958.05        78.07001
958.44        80.42699
958.83        82.01678
959.22        82.55673
959.61        82.27752
960.00        81.51309
960.39        80.80235
960.78        80.33938
961.16         80.0179
961.55        79.59444
961.94        78.70189
962.33        77.35312
962.72        75.80752
963.11        74.51293
963.49        74.00291
963.88        74.32829
964.27        75.36897
964.66        76.70537
965.04        77.43343
965.43        77.13807
965.82        76.16716
966.21        75.07662
966.60        74.59875
966.98        74.89664
967.37        75.69817
967.76        76.73682
968.15        77.48064
968.53        77.69022
968.92        77.45883
969.31        77.01128
969.69         76.6114
970.08        76.33925
970.47        76.16064
970.86        75.83326
971.24        74.96536
971.63        73.50089
972.02        71.55189
972.40        69.75124
972.79        69.19476
973.17        70.28031
973.56        72.69775
973.95         75.5386
974.33        77.01338
974.72        76.50645
975.11        74.55342
975.49        72.29822
975.88        71.31378
976.26        71.86047
976.65        73.61689
977.04        75.67237
977.42        75.84271
977.81        73.46376
978.19        69.51206
978.58        66.08221
978.96        65.31799
979.35        67.54517
979.74        72.27693
980.12        78.53087
980.51         82.8281
980.89        83.86102
981.28        82.47182
981.66        79.95915
982.05        78.01139
982.43        77.05586
982.82        76.57462
983.20        76.59019
983.59        77.24526
983.97        78.58119
984.35        80.71904
984.74         83.1339
985.12         84.7642
985.51        84.79129
985.89        83.23969
986.28        80.57686
986.66        77.62421
987.04        75.12556
987.43        73.20785
987.81        71.61865
988.20        69.78887
988.58        67.32244
988.96        63.71555
989.35        59.65089
989.73        58.68065
990.12        62.95547
990.50        70.73267
990.88         77.2204
991.27         78.8985
991.65        76.39525
992.03        70.75288
992.42        64.49834
992.80        62.20659
993.18        65.04603
993.56        70.49024
993.95        76.17463
994.33        80.01614
994.71        81.56459
995.10         81.9135
995.48        81.23016
995.86          79.489
996.24        76.82042
996.63        72.83533
997.01        68.49755
997.39        66.90721
997.77         69.3316
998.15        75.09686
998.54        81.23126
998.92         83.7069
999.30        81.28498
999.68        74.94133
1000.06        66.31274
1000.45        59.61017
1000.83        56.75563
1001.21        56.59936
1001.59        58.03365
1001.97         59.8196
1002.35        61.52161
1002.73        63.78738
1003.12        66.04285
1003.50         66.2155
1003.88        63.59489
1004.26        59.37038
1004.64        55.24171
1005.02        52.52676
1005.40        51.18342
1005.78        50.58636
1006.16        52.17916
1006.54         58.4816
1006.92        66.83033
1007.30        73.71929
1007.69        77.48405
1008.07        78.18467
1008.45        76.05304
1008.83        69.21728
1009.21        50.96098
1009.59        5.731009
1009.97       -82.23738
1010.35       -155.9794
1010.73       -93.84504
1011.11       -23.02005
1011.49        15.66435
1011.86        39.98566
1012.24        52.66179
1012.62         57.3948
1013.00        57.41938
1013.38        53.43225
1013.76        47.41254
1014.14         47.3073
1014.52        59.96088
1014.90        87.48246
1015.28        123.1197
1015.66        144.6246
1016.04         137.694
1016.41        105.7167
1016.79        66.31671
1017.17        40.19054
1017.55        30.09059
1017.93        27.74612
1018.31        28.91183
1018.69        31.72756
1019.06        35.76818
1019.44        41.51263
1019.82         50.5934
1020.20        63.23996
1020.58        78.69405
1020.95        97.96415
1021.33        114.4481
1021.71        120.1542
1022.09        130.2609
1022.46        137.2443
1022.84         144.458
1023.22        156.9755
1023.60         188.987
1023.97         501.829
1024.35       -24.39382
1024.73        40.97382
