SpectraSmart Spectrum 2.9.0.0
--------- Device Information -----------
Spectrum Name :  反射率_0
Saving Time :  2024/04/26 00:41:24
Spectro-Module Model Name : SE2030-DUVN
Spectro-Module Serial Number : OS361AC55029948
Wavelength Start : 200
Wavelength End : 1025
Wavelength Unit : Wavelength(nm)
Spectrum Unit : Reflectance(%)
-----------Spectrum Setting ------------
Integration Time : 20ms
Average : 10
Boxcar : 0
Background removal :  enabled
linearity correction :  enabled
SC :  disabled
Intensity correction :  disabled
DWT denoise :  enabled
savitzky-golay :  disabled
FFT :  disabled
Running average :  disabled
Kalman :  disabled
High pass :  disabled
---------------BEGIN--------------------
Wavelength(nm)             Reflectance(%)
200.29               0
200.75        93.09564
201.21         87.3464
201.67          79.965
202.13        74.68264
202.58        72.17271
203.04        71.82867
203.50        72.91117
203.96        74.21384
204.42        75.15075
204.88        75.88246
205.34        76.87968
205.80        78.97654
206.26         82.9989
206.72        90.94186
207.18        105.1086
207.64        114.7438
208.10        102.0202
208.55        82.50669
209.01         71.0971
209.47        67.55558
209.93        68.44054
210.39        72.22817
210.85        77.13022
211.31         79.1477
211.77        76.91553
212.23        72.09668
212.69        67.03808
213.14        65.47018
213.60        67.91656
214.06         73.1598
214.52        79.75307
214.98        85.56358
215.44         89.5061
215.90        92.02207
216.36        92.92204
216.81        91.69069
217.27        89.15578
217.73        85.86903
218.19        82.34621
218.65        79.07283
219.11        75.92455
219.57        72.12415
220.02        68.66896
220.48        69.73907
220.94        76.25957
221.40        86.47496
221.86        94.11774
222.32        93.41087
222.77        85.83799
223.23         75.4848
223.69        66.88807
224.15        64.81041
224.61        68.70036
225.06        76.31225
225.52         84.1928
225.98        87.77723
226.44        86.31227
226.90        81.68156
227.36        76.56837
227.81         74.6252
228.27        76.79243
228.73        81.36785
229.19        86.47313
229.65        89.38407
230.10        89.55346
230.56        88.44382
231.02        86.95557
231.48        86.08655
231.93        85.97819
232.39         86.2161
232.85        86.78776
233.31        87.87767
233.77        89.37602
234.22        91.32325
234.68        92.98991
235.14        92.95934
235.60        90.96636
236.05        87.56649
236.51        83.80341
236.97        81.05444
237.43        79.58031
237.88        79.05493
238.34        79.22028
238.80        79.82507
239.26         80.5702
239.71        81.97144
240.17        82.83813
240.63        81.68625
241.08        78.52627
241.54        73.77287
242.00        69.31433
242.46        67.70015
242.91        70.39547
243.37        80.36375
243.83        111.7417
244.28        201.1607
244.74         276.478
245.20        202.8329
245.66        149.9517
246.11        133.4464
246.57        134.1244
247.03        152.4034
247.48        206.1893
247.94         155.622
248.40        91.63611
248.85        74.93236
249.31        71.60384
249.77        73.90079
250.22        80.22572
250.68        91.67842
251.14        108.0359
251.59        118.7823
252.05        113.4743
252.51        96.92242
252.96        79.32317
253.42        70.15076
253.88        68.89149
254.33        72.08961
254.79         78.3857
255.25        85.22612
255.70        90.93912
256.16        96.19448
256.62        99.47101
257.07        99.13665
257.53        96.23966
257.99        91.31171
258.44        86.22224
258.90         84.1852
259.35        84.21715
259.81        85.24424
260.27        85.29343
260.72        82.46982
261.18         77.6692
261.63        71.71774
262.09        66.32623
262.55         62.6763
263.00        60.69185
263.46        59.89348
263.91        59.34047
264.37         58.4404
264.83         56.9593
265.28        55.02535
265.74        53.15181
266.19        51.78886
266.65        51.17746
267.11        51.01026
267.56        50.82267
268.02         50.1149
268.47        48.76049
268.93        46.97404
269.38        45.09021
269.84        43.91193
270.30        43.64153
270.75        44.02607
271.21        44.62229
271.66        44.76011
272.12         44.2611
272.57        43.32893
273.03        42.25664
273.48         41.3841
273.94         40.8574
274.39        40.51118
274.85         40.2477
275.31         39.9013
275.76        39.41052
276.22        38.87529
276.67         38.3292
277.13        37.93045
277.58         37.6324
278.04        37.42166
278.49        37.14737
278.95        36.70058
279.40        36.02499
279.86        35.24545
280.31        34.41951
280.77        33.77221
281.22        33.30106
281.68        32.98354
282.13        32.74172
282.59        32.52421
283.04        32.28387
283.50        32.07527
283.95        31.84506
284.41        31.55214
284.86         31.1757
285.32        30.73239
285.77        30.29822
286.22        30.06573
286.68        30.03531
287.13        30.12058
287.59        30.14418
288.04        29.81747
288.50        29.13621
288.95        28.18974
289.41        27.21017
289.86        26.42448
290.32        25.95208
290.77        25.69952
291.22        25.60953
291.68        25.55311
292.13        25.48942
292.59         25.4576
293.04        25.49162
293.50        25.64859
293.95        25.91799
294.40        26.24222
294.86        26.54779
295.31        26.73735
295.77         26.7974
296.22        26.76808
296.68        26.70129
297.13        26.65247
297.58        26.67023
298.04        26.76183
298.49        26.95393
298.95         27.3209
299.40        27.84889
299.85         28.5031
300.31        29.19998
300.76        29.81703
301.21        30.29658
301.67        30.68685
302.12        30.96319
302.58        31.15457
303.03        31.26518
303.48        31.30782
303.94        31.39242
304.39        31.65095
304.84        32.10533
305.30        32.70203
305.75        33.28277
306.20        33.61428
306.66        33.66872
307.11        33.50779
307.57        33.28089
308.02        33.13329
308.47        33.14036
308.93        33.25333
309.38        33.43035
309.83        33.64074
310.29        33.84901
310.74        34.05017
311.19        34.21823
311.65        34.30801
312.10        34.30677
312.55        34.22913
313.00        34.06383
313.46        33.80972
313.91        33.47967
314.36        33.10252
314.82        32.77787
315.27        32.63545
315.72          32.702
316.18        32.93451
316.63        33.22429
317.08        33.36624
317.53        33.29941
317.99        33.06451
318.44        32.76878
318.89        32.58961
319.35        32.56148
319.80        32.63874
320.25        32.69775
320.70        32.54053
321.16        32.13339
321.61        31.55364
322.06        30.95398
322.51        30.55971
322.97         30.4108
323.42        30.44745
323.87        30.53828
324.32        30.46354
324.78        30.16228
325.23        29.71427
325.68        29.21928
326.13        28.84338
326.59        28.63142
327.04        28.54609
327.49        28.53383
327.94        28.51277
328.39        28.45263
328.85        28.37353
329.30         28.3128
329.75        28.28576
330.20        28.29952
330.66        28.32042
331.11        28.35767
331.56        28.38553
332.01        28.39127
332.46         28.3675
332.92        28.30792
333.37          28.239
333.82        28.15539
334.27        28.06986
334.72        27.95197
335.17        27.75202
335.63        27.47226
336.08        27.14008
336.53        26.85688
336.98        26.78621
337.43        26.95318
337.88        27.31111
338.34        27.69087
338.79        27.86168
339.24        27.73964
339.69        27.38672
340.14         26.9703
340.59        26.78801
341.05        26.90516
341.50        27.22391
341.95         27.5807
342.40        27.73701
342.85        27.64109
343.30        27.38666
343.75        27.05605
344.20        26.79328
344.66        26.65164
345.11        26.54577
345.56        26.49428
346.01        26.52372
346.46        26.61419
346.91        26.78088
347.36         26.8734
347.81        26.64695
348.26        26.09021
348.72        25.31246
349.17        24.55159
349.62        24.28034
350.07        24.59607
350.52        25.33425
350.97        26.21241
351.42        26.79672
351.87         26.9632
352.32        26.83297
352.77        26.52625
353.22        26.24121
353.67        26.04819
354.13        25.88574
354.58        25.72174
355.03        25.54982
355.48        25.36869
355.93        25.21792
356.38        25.08641
356.83         24.9374
357.28        24.76276
357.73        24.55466
358.18        24.35842
358.63         24.2495
359.08        24.23487
359.53        24.29706
359.98        24.33354
360.43        24.18558
360.88        23.83195
361.33        23.32048
361.78        22.80848
362.23        22.55205
362.68        22.59842
363.13        22.85815
363.58        23.15047
364.03        23.19114
364.48        22.91599
364.93        22.42435
365.38        21.85239
365.83        21.41889
366.28        21.19366
366.73        21.10462
367.18        21.10343
367.63        21.11348
368.08        21.09634
368.53        21.08069
368.98        21.04394
369.43        20.94087
369.88        20.77084
370.33        20.54439
370.78        20.30177
371.23        20.12081
371.68          20.026
372.13        19.99467
372.58        20.01945
373.03        20.08164
373.48        20.16039
373.93        20.25519
374.38        20.32095
374.83         20.2892
375.28        20.15009
375.72        19.91119
376.17         19.6517
376.62        19.46291
377.07        19.37407
377.52        19.35964
377.97        19.38269
378.42        19.38063
378.87        19.33187
379.32        19.25523
379.77        19.16466
380.22          19.077
380.67        18.99675
381.11        18.91881
381.56        18.82748
382.01        18.70864
382.46        18.56318
382.91        18.39762
383.36        18.24282
383.81        18.14548
384.26        18.11281
384.71         18.1312
385.15        18.14812
385.60        18.09747
386.05        17.95845
386.50        17.74536
386.95        17.51425
387.40        17.36617
387.85         17.3292
388.29         17.3699
388.74         17.4262
389.19        17.38972
389.64        17.24576
390.09        17.02103
390.54        16.80031
390.98        16.72365
391.43        16.82704
391.88        17.05128
392.33        17.28006
392.78        17.34417
393.23        17.22215
393.67        16.96923
394.12        16.71778
394.57         16.5939
395.02        16.62588
395.47        16.76683
395.91        16.95548
396.36        17.05911
396.81         17.0411
397.26         16.9319
397.71        16.78667
398.15         16.6695
398.60        16.62189
399.05        16.62358
399.50         16.6256
399.95        16.51348
400.39        16.35063
400.84        16.11337
401.29        15.89939
401.74        15.85114
402.18        16.00909
402.63        16.30163
403.08         16.6291
403.53        16.83072
403.97         16.8613
404.42        16.76871
404.87        16.60092
405.32        16.44554
405.76        16.33816
406.21        16.25848
406.66        16.21107
407.11        16.20834
407.55        16.25183
408.00        16.34195
408.45        16.44641
408.90        16.48761
409.34        16.44422
409.79        16.33658
410.24        16.22578
410.68        16.20152
411.13        16.28427
411.58        16.44967
412.03        16.63847
412.47        16.74739
412.92        16.73505
413.37         16.6358
413.81         16.5146
414.26        16.48813
414.71        16.56989
415.15        16.72126
415.60        16.86329
416.05        16.88932
416.49        16.77515
416.94         16.5763
417.39        16.33989
417.83        16.14533
418.28        16.03397
418.73        15.97151
419.17         15.9778
419.62        16.07549
420.07        16.25272
420.51        16.50097
420.96        16.72671
421.41         16.7673
421.85        16.59092
422.30        16.27522
422.74        15.93209
423.19         15.7566
423.64        15.77177
424.08        15.93116
424.53         16.1436
424.98        16.27682
425.42        16.29169
425.87        16.22297
426.31        16.11232
426.76        16.07016
427.21        16.09552
427.65         16.0442
428.10        15.98323
428.54        16.12278
428.99        16.46625
429.44        16.92061
429.88        17.30039
430.33        17.37084
430.77        17.09883
431.22        16.56408
431.66        15.99601
432.11        15.80635
432.56         16.0336
433.00        16.47446
433.45        16.91799
433.89        17.20779
434.34        17.21635
434.78        16.84505
435.23         16.3728
435.67        16.35087
436.12        16.73121
436.57         16.9267
437.01        16.84958
437.46        16.77867
437.90          16.738
438.35        16.64812
438.79        16.53442
439.24        16.48264
439.68        16.51308
440.13        16.53201
440.57        16.54324
441.02        16.77804
441.46        17.09509
441.91        16.90856
442.35        16.34527
442.80        16.07817
443.24        16.09258
443.69        16.13436
444.13        16.12978
444.58         15.9614
445.02        15.68998
445.47        15.66961
445.91        15.85106
446.36        15.86698
446.80        15.69537
447.24        15.54713
447.69        15.46444
448.13        15.40982
448.58        15.39863
449.02        15.43867
449.47        15.49409
449.91        15.50397
450.36        15.45923
450.80        15.37258
451.25        15.29304
451.69        15.28573
452.13        15.36481
452.58        15.49439
453.02        15.63107
453.47        15.70653
453.91        15.70636
454.36        15.65694
454.80        15.57582
455.24        15.49136
455.69        15.42794
456.13        15.37093
456.58        15.35322
457.02        15.39975
457.46        15.51669
457.91        15.68785
458.35        15.86724
458.79        15.97408
459.24        15.99831
459.68        15.94587
460.13         15.8736
460.57        15.83193
461.01        15.85231
461.46        15.91309
461.90         15.9848
462.34        16.01196
462.79        15.97885
463.23        15.89679
463.68        15.81869
464.12         15.8336
464.56        15.95844
465.01        16.17228
465.45        16.35967
465.89         16.4114
466.34        16.32276
466.78         16.0411
467.22        15.71725
467.67         15.7526
468.11        16.10725
468.55        16.29477
468.99        16.25034
469.44        16.20016
469.88        16.19597
470.32        16.29986
470.77        16.46831
471.21        16.51101
471.65        16.41097
472.10        16.32539
472.54        16.28826
472.98        16.30135
473.42        16.37548
473.87        16.51327
474.31        16.66635
474.75        16.75309
475.20        16.76047
475.64        16.70378
476.08        16.62911
476.52        16.60736
476.97        16.65748
477.41        16.76281
477.85        16.88036
478.29        16.97317
478.74        17.03075
479.18        16.98021
479.62        16.86866
480.06        17.05438
480.50        17.19379
480.95        17.32505
481.39        17.30177
481.83        17.25511
482.27          17.186
482.72        16.96296
483.16        16.68379
483.60        16.70892
484.04        17.04947
484.48        17.24618
484.93        17.48526
485.37         17.8638
485.81        18.41061
486.25         18.6397
486.69        25.09617
487.14        20.12554
487.58        13.08708
488.02        15.69372
488.46         17.8239
488.90        18.01143
489.34         18.2863
489.79        18.18822
490.23         18.9425
490.67        19.39449
491.11        19.32828
491.55        19.21906
491.99        19.03326
492.43        18.84179
492.88        18.72624
493.32        18.79726
493.76        18.91003
494.20        19.12613
494.64         19.3768
495.08          19.652
495.52        19.93815
495.96         20.2359
496.41        20.48391
496.85        20.65141
497.29         20.7315
497.73        20.51384
498.17        20.24351
498.61        20.42981
499.05        21.07398
499.49        21.19247
499.93        21.29541
500.37        21.40882
500.82        21.47542
501.26        21.71157
501.70        22.00633
502.14        22.18018
502.58        22.19354
503.02         22.1952
503.46         22.1912
503.90        22.07885
504.34        21.91945
504.78        21.86492
505.22        21.94161
505.66        22.11493
506.10        22.32222
506.54        22.45336
506.98        22.47886
507.42        22.43284
507.86        22.38219
508.30        22.43104
508.74        22.59767
509.18        22.83852
509.62        23.08752
510.06        23.23932
510.50         23.2674
510.94        23.21562
511.38        23.12323
511.82        23.04914
512.26        23.01824
512.70        23.00923
513.14        23.03792
513.58        23.13095
514.02        23.27407
514.46        23.45244
514.90        23.61139
515.34        23.62861
515.78        23.45818
516.22        23.28649
516.66        23.18377
517.10        22.82909
517.54        22.24572
517.98        22.99338
518.42        22.77919
518.86        23.09025
519.30        23.22532
519.74        23.40406
520.18        23.57694
520.62        23.63467
521.06        23.58868
521.50        23.44628
521.93        23.26709
522.37        23.16123
522.81          23.155
523.25        23.21747
523.69        23.30763
524.13        23.36054
524.57        23.35517
525.01        23.31113
525.45        23.24235
525.89        23.17015
526.32        23.10173
526.76        23.03193
527.20        22.95492
527.64        22.87105
528.08         22.7869
528.52        22.68602
528.96        22.57556
529.40        22.52691
529.83        22.55481
530.27         22.4068
530.71        22.50335
531.15        22.45383
531.59        22.38553
532.03        22.29386
532.46         22.2196
532.90        22.22858
533.34        22.32032
533.78        22.46837
534.22        22.60977
534.66        22.65288
535.09        22.57545
535.53        22.41845
535.97        22.22563
536.41        22.07172
536.85        21.98526
537.28        21.94959
537.72        21.95495
538.16        21.98583
538.60        22.03287
539.04        22.08256
539.47        22.13562
539.91        22.24797
540.35        22.39411
540.79        22.47931
541.22        22.50124
541.66        22.54809
542.10        22.62247
542.54        22.66502
542.97        22.70425
543.41        22.82342
543.85        23.02555
544.29        23.29851
544.72        23.56548
545.16         23.7155
545.60        23.72802
546.04        23.63152
546.47        23.54054
546.91        23.64754
547.35        23.97582
547.79        24.46844
548.22        24.96598
548.66        25.19849
549.10         25.1286
549.53        24.88102
549.97        24.62181
550.41        24.54333
550.84        24.70581
551.28        25.06147
551.72        25.51323
552.15        25.88588
552.59        26.11642
553.03        26.25392
553.46        26.33776
553.90        26.44832
554.34        26.61102
554.77        26.76724
555.21        26.89047
555.65        27.02427
556.08        27.17604
556.52         27.0125
556.96        27.19044
557.39        27.23375
557.83         27.3455
558.27        27.48666
558.70        27.64992
559.14        27.80764
559.57        27.93705
560.01        28.05933
560.45        28.14818
560.88         28.1613
561.32        28.12121
561.75        28.02744
562.19         27.9462
562.63        27.94122
563.06        28.02087
563.50        28.16932
563.93        28.34636
564.37        28.50063
564.80        28.60548
565.24        28.68923
565.68        28.75081
566.11        28.79173
566.55        28.84133
566.98        28.88871
567.42        28.96622
567.85        29.14815
568.29        29.46162
568.72        29.74131
569.16        29.97164
569.60         30.5202
570.03        30.81024
570.47         30.8401
570.90        30.62418
571.34        30.33479
571.77        30.71564
572.21        30.83073
572.64        30.95868
573.08        30.57649
573.51        29.70754
573.95         31.0455
574.38        33.02507
574.82        32.24494
575.25         31.9724
575.69        30.85196
576.12        30.39214
576.56        30.14741
576.99        30.76694
577.42         32.2879
577.86        32.25375
578.29        31.91515
578.73        33.70746
579.16        30.93638
579.60        28.16543
580.03        29.38555
580.47        31.43371
580.90        31.82729
581.33        31.44501
581.77        30.96835
582.20        33.78353
582.64        33.36617
583.07         28.4371
583.51        27.89536
583.94        27.42656
584.37        28.61344
584.81        29.60176
585.24        30.95108
585.68        31.66346
586.11        30.98508
586.54        28.89803
586.98        27.99676
587.41         28.1912
587.85        29.68646
588.28        30.63444
588.71        29.24604
589.15        28.30457
589.58        28.76167
590.01        29.08897
590.45        29.43513
590.88        29.52686
591.31        29.18251
591.75        29.13166
592.18         29.2267
592.61        29.80942
593.05        30.18315
593.48         31.4843
593.91        31.64705
594.35        29.14625
594.78        28.69874
595.21        28.80924
595.65        30.24312
596.08        31.41746
596.51         30.2093
596.94        29.74712
597.38        30.24949
597.81        31.59546
598.24         32.7076
598.68        31.90507
599.11        32.18462
599.54        33.79696
599.97        34.41835
600.41        32.64833
600.84        32.94595
601.27         33.8905
601.70        33.80824
602.14        34.06609
602.57        33.99146
603.00         34.7355
603.43        36.00643
603.87         37.2805
604.30            37.6
604.73        36.77921
605.16        36.57806
605.60         37.4574
606.03        38.53428
606.46        39.54676
606.89        39.64697
607.32        38.79313
607.76        39.36505
608.19        40.76882
608.62        40.63202
609.05        40.34167
609.48        40.95172
609.92        41.08565
610.35        41.39317
610.78         43.0843
611.21        43.65856
611.64        42.14427
612.07        42.89326
612.50        43.53138
612.94         44.1441
613.37        44.05545
613.80        44.61768
614.23        45.19622
614.66        45.39077
615.09         45.6892
615.52        45.93965
615.96        46.21881
616.39        46.54164
616.82        46.12484
617.25        46.17945
617.68        46.96163
618.11        47.56277
618.54         47.9346
618.97        47.76979
619.40        47.37099
619.84        47.44264
620.27        48.43879
620.70        49.12372
621.13        49.46062
621.56         49.1721
621.99        48.51787
622.42        49.14998
622.85        50.51196
623.28         50.4362
623.71        49.92642
624.14        49.58434
624.57        49.86958
625.00          49.166
625.43         49.4819
625.86        48.89713
626.29        48.95577
626.72        49.01791
627.15        48.82786
627.58        48.82244
628.01        48.79168
628.44        48.69615
628.87        48.54873
629.30        48.42105
629.73        48.22973
630.16        48.21976
630.59        47.53627
631.02        46.99355
631.45        46.41908
631.88         45.9052
632.31        45.47496
632.74        45.12085
633.17        44.80864
633.60        44.45438
634.03        44.03946
634.46        43.59002
634.89        43.13091
635.32         42.7025
635.75        42.31676
636.18        41.95624
636.61        41.60505
637.04        41.23894
637.47        40.84632
637.89        40.43864
638.32        40.01323
638.75         39.5935
639.18        39.19585
639.61        38.82731
640.04         38.4883
640.47        38.17255
640.90        37.88137
641.33        37.61562
641.76        37.38285
642.18        37.24899
642.61        37.21682
643.04        37.17998
643.47        37.08692
643.90        37.33768
644.33         37.1513
644.76        37.16604
645.18        37.16495
645.61        37.18945
646.04        37.23737
646.47        37.28922
646.90        37.39501
647.33        37.60534
647.75         37.9435
648.18        38.43178
648.61        38.92552
649.04        39.21814
649.47        39.29031
649.89        39.05098
650.32        38.82518
650.75        39.39244
651.18        40.67157
651.61        41.79953
652.03        42.49769
652.46        42.95292
652.89        43.38245
653.32         43.4241
653.74        43.39734
654.17        44.68597
654.60        45.88285
655.03        44.78801
655.46        45.94597
655.88        49.16299
656.31        52.75776
656.74        120.6686
657.16        78.94953
657.59         27.6514
658.02        21.20902
658.45        37.09274
658.87        48.30805
659.30        50.94688
659.73        50.50029
660.15        49.55604
660.58         51.7483
661.01        53.46593
661.44        51.94581
661.86        51.67974
662.29        52.10476
662.72        53.18361
663.14        54.65246
663.57        54.77587
664.00        53.81614
664.42        53.75706
664.85        54.69415
665.27        55.38427
665.70        55.61526
666.13        55.74541
666.55        55.75091
666.98        55.53943
667.41        55.27246
667.83        55.25436
668.26        55.54624
668.69        56.02166
669.11        56.51036
669.54         56.9798
669.96        56.83473
670.39        56.69377
670.82        56.48959
671.24        56.25304
671.67        56.19935
672.09        56.54208
672.52        57.10192
672.94        58.11597
673.37        57.52018
673.80        57.46473
674.22        57.45874
674.65         57.5185
675.07        57.64539
675.50        57.71471
675.92        57.76593
676.35        57.94371
676.77        58.25436
677.20         58.5837
677.62        58.88784
678.05        59.10046
678.47        59.18563
678.90        59.20212
679.32        59.20652
679.75        59.10263
680.17        59.12879
680.60        59.38524
681.02        59.38383
681.45        59.40399
681.87         59.3004
682.30        59.21872
682.72        59.20039
683.15        59.19327
683.57        59.27709
684.00        59.55184
684.42        60.12544
684.85        60.44707
685.27        60.51701
685.70        60.53009
686.12        60.50432
686.54        60.45053
686.97        60.40538
687.39        60.37245
687.82        60.35717
688.24        60.51557
688.66        60.77034
689.09        60.81489
689.51        60.71829
689.94        60.84267
690.36        61.20858
690.78        61.59844
691.21        61.91064
691.63        62.08008
692.06        62.08121
692.48        61.94689
692.90        61.77618
693.33        61.71397
693.75        61.80509
694.17        62.01961
694.60        62.30306
695.02        62.54784
695.44        62.68676
695.87        62.88476
696.29        63.15829
696.71        63.07478
697.14        62.79213
697.56        63.30024
697.98        64.35291
698.41        64.21079
698.83        63.53905
699.25        63.08628
699.68        63.12599
700.10        63.07812
700.52        62.97175
700.94        63.13944
701.37        63.51921
701.79        63.92645
702.21        64.27902
702.64        64.60645
703.06        64.82335
703.48        64.92178
703.90        64.69099
704.33        64.33696
704.75        63.92855
705.17        63.76946
705.59        63.93225
706.01        64.23807
706.44        64.54044
706.86        65.13688
707.28        65.09439
707.70        65.17776
708.12        65.17305
708.55        65.07821
708.97        64.93725
709.39        64.90959
709.81        65.01099
710.23        65.09665
710.66        65.16026
711.08        65.33289
711.50        65.53437
711.92         65.5968
712.34        65.50059
712.76        65.28091
713.19        65.06601
713.61         65.0939
714.03        65.39415
714.45        65.88947
714.87        66.38963
715.29        66.59288
715.71        66.43651
716.13        66.02233
716.56        65.52729
716.98        65.26653
717.40         65.3205
717.82        65.59345
718.24        65.96722
718.66        66.23959
719.08         66.3413
719.50        66.33565
719.92        66.25865
720.34        66.18398
720.76        66.14621
721.19        66.01259
721.61        66.00915
722.03        66.04534
722.45        66.18388
722.87        66.40697
723.29        66.67524
723.71        66.91012
724.13        67.07819
724.55        67.19361
724.97        67.26752
725.39        67.29458
725.81        67.27789
726.23        67.27406
726.65        67.30986
727.07        67.11983
727.49        67.20786
727.91        67.19024
728.33        67.21027
728.75        67.24999
729.17        67.31065
729.59         67.3539
730.01        67.39055
730.43        67.51218
730.85        67.73739
731.27        67.80324
731.69        68.10368
732.10        68.08405
732.52        67.87994
732.94        67.51328
733.36        67.17045
733.78          67.172
734.20        67.59283
734.62        67.99743
735.04        69.34766
735.46        69.26797
735.88        68.40338
736.30        68.64142
736.72         69.9591
737.13        70.50005
737.55        70.00171
737.97        69.97715
738.39        70.41538
738.81        69.69026
739.23        68.28878
739.65        69.01836
740.06        71.37922
740.48        71.67063
740.90        69.96497
741.32        69.19171
741.74        69.62567
742.16        69.88398
742.57        70.01148
742.99        70.75573
743.41        71.87469
743.83        72.54605
744.25        72.62406
744.67        72.32637
745.08        71.87947
745.50        71.65544
745.92        71.77541
746.34        72.10425
746.75        72.53425
747.17        72.83861
747.59        72.96477
748.01        73.11146
748.42        73.33414
748.84        73.40545
749.26        73.48865
749.68        74.15306
750.09        75.20142
750.51        75.81221
750.93        75.84385
751.35        75.46224
751.76        74.86079
752.18        74.57034
752.60        74.60042
753.01        74.42589
753.43        74.12325
753.85        74.24461
754.27        74.82566
754.68        75.64682
755.10        76.49643
755.52         77.0653
755.93        77.42812
756.35        77.41621
756.77        77.28501
757.18        77.20776
757.60        77.25112
758.02        77.78503
758.43        78.41779
758.85        77.74789
759.26        76.25784
759.68        75.88326
760.10         76.9657
760.51        78.16511
760.93        77.53683
761.34        76.58729
761.76        76.40983
762.18        75.80837
762.59        75.43764
763.01        75.75462
763.42        76.73388
763.84        77.42393
764.26        77.70052
764.67        77.92522
765.09        78.04908
765.50         78.0274
765.92        77.76572
766.33        76.63601
766.75         75.1336
767.16        74.62902
767.58        75.32722
768.00        76.91792
768.41        78.95135
768.83        80.21587
769.24        80.20912
769.66        79.29727
770.07         78.0022
770.49        76.50208
770.90        75.24672
771.32        76.04453
771.73         78.2477
772.15        77.86456
772.56        75.32288
772.97        74.92796
773.39        76.58662
773.80        77.18829
774.22        76.51798
774.63        76.44647
775.05        76.94424
775.46        77.18388
775.88        77.07732
776.29        76.86311
776.70        76.62166
777.12        76.51213
777.53        76.58646
777.95        76.73905
778.36        76.86467
778.77        76.77884
779.19        76.49606
779.60        76.09046
780.02        75.71934
780.43        75.74583
780.84        76.28536
781.26        76.67904
781.67        76.93806
782.09        78.25611
782.50        79.97634
782.91          79.098
783.33        76.35073
783.74        75.38261
784.15        76.37591
784.57        77.09502
784.98        77.19596
785.39        77.05919
785.81        76.72118
786.22        76.41982
786.63        76.36779
787.04        76.55159
787.46        76.99878
787.87        77.85267
788.28        78.82178
788.70        79.24476
789.11         78.9975
789.52         78.3466
789.93        77.59439
790.35        77.05106
790.76        76.89574
791.17        77.30436
791.58        78.03426
792.00        78.41748
792.41         78.3155
792.82        77.95081
793.23        77.63548
793.65        77.58317
794.06        77.92809
794.47        79.12336
794.88        80.41243
795.29        80.01907
795.71        77.69617
796.12         75.5731
796.53        74.18926
796.94         73.7782
797.35        74.44456
797.76        75.81779
798.18        77.25294
798.59        78.19262
799.00        78.28752
799.41        77.18303
799.82        75.86751
800.23        75.04401
800.64         75.0899
801.06        75.58866
801.47        76.35615
801.88        76.97758
802.29        77.27173
802.70        77.38911
803.11        77.38039
803.52         77.2994
803.93        77.21085
804.34        77.06918
804.75        76.90002
805.17        76.92529
805.58        77.23159
805.99        77.26546
806.40         77.0476
806.81        77.86478
807.22        79.09588
807.63        77.91358
808.04        75.01044
808.45        73.87904
808.86        74.78188
809.27        75.90892
809.68        76.77696
810.09        77.32773
810.50        77.33524
810.91        76.84244
811.32        76.14163
811.73        75.70414
812.14        75.66003
812.55        75.85336
812.96        76.20162
813.37        76.49895
813.78        76.68015
814.19        76.95719
814.60        77.14352
815.01        76.84694
815.42        76.05199
815.83        74.85703
816.24        73.71115
816.65        73.38389
817.05        74.09656
817.46        75.60426
817.87        77.28755
818.28        78.03065
818.69        77.53436
819.10        76.07506
819.51         74.3651
819.92        73.61805
820.33        74.15044
820.74        75.59254
821.14        77.26476
821.55        77.96379
821.96        77.42027
822.37        76.04636
822.78        74.45878
823.19        73.55974
823.60        73.59633
824.00        74.34677
824.41        75.36435
824.82        75.98994
825.23         75.9623
825.64         75.5086
826.04        74.93895
826.45         74.7008
826.86        74.89429
827.27        75.33084
827.68        75.78719
828.08         75.9409
828.49         75.6331
828.90        75.04482
829.31        74.31928
829.72        73.70801
830.12        73.36503
830.53        73.20198
830.94        73.26529
831.35        73.60016
831.75        74.21617
832.16        75.03462
832.57        75.91897
832.97        76.54263
833.38        76.72836
833.79        76.55354
834.20        76.17503
834.60        75.85016
835.01        75.69189
835.42        75.63046
835.82         75.6194
836.23        75.49998
836.64        75.27276
837.04        75.00897
837.45        74.79278
837.86        74.75343
838.26        74.92066
838.67        75.21018
839.08        75.52419
839.48        75.68758
839.89        75.61971
840.29        75.39027
840.70        75.07814
841.11        74.78616
841.51        74.56196
841.92          74.361
842.33        74.21056
842.73        74.16522
843.14        74.18763
843.54        74.29402
843.95         74.3811
844.35        74.34022
844.76        74.13359
845.17        73.81936
845.57        73.45299
845.98        73.12734
846.38        72.87962
846.79        72.66041
847.19        72.53374
847.60        72.52618
848.00        72.66672
848.41        72.91006
848.81        73.17706
849.22        73.27278
849.62        73.20676
850.03        73.02656
850.43        72.85733
850.84        72.85474
851.24        73.11194
851.65        73.41556
852.05        73.84724
852.46        74.36429
852.86        74.92654
853.27        75.57228
853.67        75.88033
854.07        75.32037
854.48        73.93659
854.88        71.91249
855.29         69.9791
855.69        69.19288
856.10        69.75069
856.50        71.54009
856.90        73.88795
857.31          75.234
857.71        75.10592
858.12        73.88589
858.52        72.33002
858.92        71.43173
859.33        71.40324
859.73        71.97447
860.13        72.90231
860.54        73.67384
860.94         74.1303
861.34        74.40271
861.75        74.54556
862.15        74.73126
862.55        74.97495
862.96        75.18383
863.36        75.37316
863.76        75.55554
864.17        75.72359
864.57        75.93787
864.97        76.17223
865.38        76.36842
865.78        76.55684
866.18        76.65952
866.58        76.73285
866.99        76.86829
867.39        77.13109
867.79        77.53929
868.19         77.8219
868.60        77.47489
869.00        76.43279
869.40        74.87415
869.80        73.53913
870.21        73.56004
870.61        75.24166
871.01        78.23262
871.41        81.57861
871.81         83.6409
872.22        83.95556
872.62        82.96033
873.02         81.5034
873.42        81.12431
873.82        81.97823
874.22        83.24348
874.63        84.50815
875.03        84.94533
875.43        84.17445
875.83        83.55165
876.23        81.53629
876.63        80.50055
877.03        80.32343
877.44        81.15874
877.84        105.0326
878.24         88.3516
878.64         89.1113
879.04        89.72482
879.44        85.48706
879.84        83.43881
880.24        87.92056
880.64        90.08244
881.04        90.82304
881.44        91.00058
881.84        90.15582
882.24        88.54183
882.65        87.06976
883.05        86.53545
883.45        87.07302
883.85        88.69524
884.25        90.82697
884.65        92.15913
885.05        92.26085
885.45        91.55713
885.85        90.54845
886.25        89.92982
886.65        89.87365
887.05        90.10211
887.45        90.48845
887.85        90.83331
888.25        91.03168
888.65        91.23104
889.04        91.28683
889.44        90.98523
889.84        90.32397
890.24        89.34096
890.64        88.44825
891.04        88.29194
891.44        88.96188
891.84        90.28845
892.24        91.70403
892.64        92.17603
893.04        91.50253
893.44        90.10647
893.83        88.63465
894.23        88.01575
894.63        88.42997
895.03        89.52724
895.43          91.051
895.83         92.5061
896.23        93.61285
896.63        94.53263
897.02        94.99259
897.42        94.56937
897.82        93.31394
898.22        91.37812
898.62        89.48855
899.01        88.73235
899.41         89.3092
899.81        90.85825
900.21        92.70547
900.61        93.72438
901.00        93.61105
901.40        92.73972
901.80        91.56437
902.20        90.79507
902.59        90.65242
902.99        90.89258
903.39         91.3358
903.79        91.68719
904.18        91.82767
904.58         91.9171
904.98        91.99413
905.38        92.10031
905.77        92.23181
906.17        92.31973
906.57        92.37198
906.96        92.47753
907.36        92.57081
907.76         92.6444
908.15        92.59251
908.55        92.12287
908.95        91.26563
909.34        90.12198
909.74        88.98346
910.14         88.1134
910.53        87.63147
910.93        87.51344
911.33        87.77909
911.72        88.45277
912.12        89.35694
912.52        90.35131
912.91        91.28027
913.31        91.99426
913.70        92.52177
914.10        92.87281
914.49        92.89517
914.89        92.24904
915.29        90.99838
915.68        89.33675
916.08         87.9455
916.47        87.34078
916.87        87.55033
917.26        88.41394
917.66        89.41083
918.05        89.72359
918.45        89.15152
918.84        88.00932
919.24        86.82268
919.64        86.33214
920.03        86.75161
920.42        87.82622
920.82        89.26239
921.21        90.70102
921.61        91.74858
922.00        92.46566
922.40        92.72834
922.79        92.41171
923.19        91.63155
923.58        90.36411
923.98        88.68648
924.37        87.30737
924.77        86.77936
925.16         84.2301
925.55        85.13708
925.95        85.86671
926.34        87.97039
926.74        90.88257
927.13        93.70717
927.52         94.7035
927.92        93.63514
928.31        91.08264
928.70        87.92206
929.10         85.6553
929.49        84.70787
929.89        84.67023
930.28        85.45533
930.67        86.90685
931.07          88.672
931.46        90.84474
931.85        92.66898
932.24        93.00748
932.64        91.69619
933.03        88.87093
933.42         85.2575
933.82        82.59465
934.21        81.48505
934.60        81.58828
934.99         82.1733
935.39         82.4911
935.78        82.41398
936.17        81.64352
936.56        80.01196
936.96        81.56559
937.35        80.57249
937.74        81.37794
938.13        82.08044
938.53        82.90852
938.92        83.92484
939.31        85.25009
939.70        86.56875
940.09        86.86194
940.49         85.8908
940.88         84.1222
941.27         82.3696
941.66         81.5936
942.05        81.89811
942.44        82.94565
942.84        84.39225
943.23        85.69206
943.62        86.50258
944.01        86.97222
944.40        87.02946
944.79        86.56155
945.18        85.56507
945.57        83.95261
945.97        82.04424
946.36         80.7355
946.75        80.48024
947.14        81.04044
947.53        81.90073
947.92        82.48083
948.31        82.72117
948.70        82.81969
949.09        82.88213
949.48        83.10912
949.87        83.53315
950.26        83.93219
950.65        84.31068
951.04         84.7541
951.43        85.22626
951.82        85.73035
952.21        85.88031
952.60        85.06372
952.99        83.26599
953.38        80.75806
953.77        78.27756
954.16        76.88161
954.55           76.78
954.94        77.73799
955.33        79.04962
955.72        79.49873
956.11        78.76916
956.50        77.16816
956.89        75.49448
957.28        75.22518
957.66        76.82359
958.05        79.54379
958.44        82.43057
958.83         84.0971
959.22        84.17873
959.61        83.06518
960.00        81.31305
960.39        79.81751
960.78        78.90954
961.16        78.39876
961.55        78.00474
961.94        77.27566
962.33        76.17051
962.72        74.97659
963.11        74.08659
963.49        73.96959
963.88         74.6683
964.27        76.04249
964.66        77.68656
965.04        78.72223
965.43        78.69518
965.82        77.91642
966.21        76.87698
966.60        76.23727
966.98        76.15747
967.37        76.38384
967.76        76.76533
968.15        77.00227
968.53         76.9684
968.92        76.74669
969.31        76.40688
969.69        75.97668
970.08        75.48647
970.47        74.93704
970.86        74.31079
971.24        73.60413
971.63        72.86909
972.02        72.15459
972.40        71.66658
972.79        71.73235
973.17        72.50946
973.56        73.79172
973.95         75.3253
974.33        76.53316
974.72        77.05059
975.11        76.95328
975.49        76.48969
975.88        76.14896
976.26        76.01243
976.65        75.95811
977.04        75.68024
977.42        74.56684
977.81         72.6004
978.19        70.18877
978.58         68.3854
978.96        68.02648
979.35        69.18544
979.74        71.74037
980.12          75.224
980.51        77.52814
980.89        78.07147
981.28        77.20889
981.66        75.84281
982.05        75.17237
982.43        75.38608
982.82        76.07009
983.20        77.01276
983.59        77.96112
983.97        78.88458
984.35        79.90642
984.74        80.72087
985.12        80.98633
985.51        80.33441
985.89        78.71748
986.28        76.54333
986.66        74.33166
987.04        72.61542
987.43        71.56235
987.81        70.74606
988.20        69.43365
988.58         67.2618
988.96        63.70173
989.35        59.55143
989.73        58.83534
990.12         63.8431
990.50        72.47828
990.88        79.50192
991.27        81.10712
991.65        77.95911
992.03        71.23792
992.42        63.65411
992.80         60.2442
993.18        62.42878
993.56         67.5336
993.95        73.08567
994.33        76.88473
994.71        78.40372
995.10        78.78387
995.48        78.09707
995.86        76.13402
996.24        72.98258
996.63        68.25175
997.01        63.03941
997.39        60.92192
997.77         63.4045
998.15        69.71359
998.54          76.643
998.92        79.76942
999.30        77.79319
999.68        71.92414
1000.06         63.7145
1000.45        57.20678
1000.83        54.27061
1001.21        53.60489
1001.59        54.75863
1001.97        57.39138
1002.35        61.26142
1002.73        67.31051
1003.12        73.75229
1003.50        74.62738
1003.88        67.70569
1004.26         56.0686
1004.64        45.30059
1005.02        40.04385
1005.40         40.5803
1005.78        46.54616
1006.16        58.90986
1006.54         72.0925
1006.92        77.88338
1007.30        77.68184
1007.69        75.27076
1008.07         73.5563
1008.45        72.62347
1008.83        71.02982
1009.21        65.80634
1009.59         45.3339
1009.97       -16.56386
1010.35       -104.4021
1010.73       -90.76543
1011.11       -36.49169
1011.49        2.634806
1011.86        30.24434
1012.24         46.1911
1012.62        54.18105
1013.00        57.78324
1013.38        58.75272
1013.76         58.7386
1014.14         61.9273
1014.52        71.14374
1014.90        86.15208
1015.28        101.4573
1015.66        103.8408
1016.04        86.53429
1016.41        55.02523
1016.79        25.68442
1017.17        12.67702
1017.55        13.32657
1017.93        19.06337
1018.31        25.54925
1018.69        31.13212
1019.06        36.23635
1019.44        41.65628
1019.82        49.03505
1020.20        59.51834
1020.58        73.55366
1020.95        92.96954
1021.33          114.13
1021.71        47.01242
1022.09        116.7925
1022.46        127.3796
1022.84        135.4614
1023.22        147.4572
1023.60        176.8278
1023.97        459.9679
1024.35       -18.43553
1024.73        36.12373
