SpectraSmart Spectrum 2.9.0.0
--------- Device Information -----------
Spectrum Name :  反射率_0
Saving Time :  2024/04/26 00:43:02
Spectro-Module Model Name : SE2030-DUVN
Spectro-Module Serial Number : OS361AC55029948
Wavelength Start : 200
Wavelength End : 1025
Wavelength Unit : Wavelength(nm)
Spectrum Unit : Reflectance(%)
-----------Spectrum Setting ------------
Integration Time : 20ms
Average : 10
Boxcar : 0
Background removal :  enabled
linearity correction :  enabled
SC :  disabled
Intensity correction :  disabled
DWT denoise :  enabled
savitzky-golay :  disabled
FFT :  disabled
Running average :  disabled
Kalman :  disabled
High pass :  disabled
---------------BEGIN--------------------
Wavelength(nm)             Reflectance(%)
200.29               0
200.75        92.37511
201.21        81.95156
201.67        70.90231
202.13         65.3913
202.58        65.94305
203.04        71.12377
203.50        78.06905
203.96         81.5793
204.42        80.50796
204.88        77.05648
205.34        73.54261
205.80        72.22128
206.26         73.8307
206.72        79.29588
207.18        91.40098
207.64        104.5645
208.10        101.8012
208.55        90.02766
209.01        81.88807
209.47        79.18828
209.93        79.79855
210.39        82.38313
210.85        85.20231
211.31         84.7705
211.77         80.1994
212.23        73.03928
212.69        66.24699
213.14        64.34067
213.60        67.84263
214.06        75.50164
214.52        84.34551
214.98        89.76511
215.44         90.5099
215.90        88.03326
216.36         84.1679
216.81        81.38777
217.27        80.66082
217.73         81.0647
218.19        81.45743
218.65        80.37169
219.11        77.15923
219.57        71.29545
220.02        63.58006
220.48        59.19803
220.94        60.73795
221.40        66.99172
221.86          72.327
222.32        70.87143
222.77        63.69508
223.23        54.65735
223.69         47.5729
224.15        46.40334
224.61        50.59914
225.06        58.05821
225.52        65.91346
225.98        70.55897
226.44         71.2338
226.90        69.37802
227.36        66.70249
227.81        65.50759
228.27         66.5879
228.73        68.82426
229.19        71.32731
229.65        72.86333
230.10        73.12032
230.56        72.81834
231.02        72.30304
231.48        71.91215
231.93        71.70646
232.39        71.59834
232.85        71.57497
233.31        71.74741
233.77         72.0801
234.22        72.54063
234.68        72.94349
235.14        72.91484
235.60        72.37596
236.05         71.5127
236.51        70.45087
236.97        69.27998
237.43        67.99937
237.88        66.53778
238.34        65.08883
238.80         64.6803
239.26        65.78185
239.71        68.46227
240.17         71.4729
240.63        73.04074
241.08         72.7783
241.54        71.11475
242.00         69.2112
242.46        68.70882
242.91        70.71456
243.37        76.76907
243.83        96.20566
244.28        158.3416
244.74        225.7101
245.20        185.1824
245.66        149.4842
246.11        139.1515
246.57        142.8111
247.03         163.157
247.48        220.0302
247.94        170.4237
248.40         104.123
248.85        86.33404
249.31        81.86784
249.77        81.77821
250.22        84.08823
250.68        89.09431
251.14        96.53374
251.59        101.1435
252.05        98.15339
252.51        90.01905
252.96        81.70755
253.42        78.37481
253.88        79.42722
254.33        82.71826
254.79        87.36877
255.25        91.53833
255.70        94.31709
256.16        96.58539
256.62        97.37974
257.07        95.61451
257.53        92.16219
257.99        87.24586
258.44        82.42931
258.90        80.52238
259.35        80.48695
259.81        81.35018
260.27        81.13444
260.72        77.93723
261.18        72.66968
261.63        66.19752
262.09        60.33239
262.55        56.42606
263.00        54.39802
263.46         53.6671
263.91         53.1825
264.37        52.17051
264.83        50.42366
265.28        48.15223
265.74        45.98882
266.19        44.60186
266.65         44.2167
267.11        44.40188
267.56        44.58782
268.02         44.1491
268.47        42.95063
268.93          41.238
269.38        39.33854
269.84        38.03667
270.30        37.55608
270.75        37.68147
271.21        38.01949
271.66        37.97818
272.12        37.40179
272.57        36.47305
273.03        35.51547
273.48        34.91581
273.94        34.78464
274.39        34.92316
274.85        35.08085
275.31        34.88035
275.76        34.24214
276.22        33.34524
276.67        32.39312
277.13        31.78386
277.58        31.52809
278.04        31.52024
278.49        31.51845
278.95        31.26438
279.40        30.67793
279.86        29.93557
280.31        29.13247
280.77        28.53053
281.22        28.14526
281.68        27.91939
282.13        27.78719
282.59        27.71026
283.04        27.64048
283.50        27.62162
283.95        27.56714
284.41        27.37268
284.86        27.01513
285.32        26.53632
285.77        26.05858
286.22         25.8379
286.68         25.8919
287.13         26.1185
287.59        26.32233
288.04        26.19366
288.50        25.71223
288.95        24.97334
289.41        24.19581
289.86        23.59496
290.32        23.28209
290.77        23.16079
291.22        23.18241
291.68         23.2351
292.13        23.28536
292.59        23.37529
293.04         23.5226
293.50        23.75558
293.95        24.06493
294.40        24.40513
294.86        24.75145
295.31        25.07957
295.77        25.39078
296.22        25.71095
296.68         26.0259
297.13        26.28013
297.58        26.49592
298.04         26.7064
298.49        27.02003
298.95        27.64409
299.40        28.58477
299.85        29.75415
300.31        30.96404
300.76         31.9253
301.21        32.54243
301.67        32.92643
302.12        33.13887
302.58        33.34086
303.03        33.56916
303.48        33.79278
303.94        34.08891
304.39         34.5373
304.84        35.14224
305.30        35.87479
305.75        36.56786
306.20        36.97115
306.66        37.06195
307.11        36.90284
307.57        36.67812
308.02        36.58486
308.47        36.70614
308.93        36.97367
309.38        37.31079
309.83        37.63146
310.29        37.88746
310.74        38.09512
311.19        38.24329
311.65        38.30936
312.10        38.29067
312.55        38.19204
313.00        38.02181
313.46        37.81187
313.91        37.57477
314.36        37.32964
314.82        37.12878
315.27        37.02524
315.72        37.03481
316.18        37.13638
316.63        37.27693
317.08        37.34367
317.53        37.30066
317.99        37.16275
318.44        36.98827
318.89        36.87719
319.35        36.84069
319.80        36.85411
320.25        36.82963
320.70         36.6307
321.16        36.23802
321.61          35.705
322.06         35.1426
322.51        34.71429
322.97        34.44719
323.42        34.30796
323.87        34.20501
324.32        33.98652
324.78        33.61489
325.23        33.15196
325.68        32.67722
326.13         32.3217
326.59        32.11681
327.04        32.04242
327.49        32.03782
327.94        32.01026
328.39        31.92732
328.85        31.79733
329.30        31.69049
329.75        31.67691
330.20        31.77223
330.66        31.93165
331.11        32.09699
331.56        32.13009
332.01        31.99707
332.46        31.71883
332.92        31.38548
333.37        31.20774
333.82         31.2338
334.27        31.43058
334.72        31.65406
335.17        31.65532
335.63        31.37299
336.08        30.88777
336.53        30.39032
336.98        30.19187
337.43         30.3574
337.88         30.7905
338.34         31.2562
338.79         31.4217
339.24         31.1754
339.69         30.6235
340.14        29.98789
340.59        29.65402
341.05         29.7219
341.50        30.06609
341.95        30.49259
342.40        30.72215
342.85        30.68275
343.30        30.46934
343.75        30.16728
344.20        29.92379
344.66        29.79171
345.11        29.68723
345.56        29.59878
346.01        29.51111
346.46        29.40936
346.91        29.32771
347.36        29.19849
347.81        28.90222
348.26        28.44847
348.72        27.91035
349.17        27.41919
349.62         27.2694
350.07         27.5144
350.52        28.04138
350.97        28.67522
351.42        29.14865
351.87        29.37525
352.32        29.42306
352.77        29.32253
353.22         29.1313
353.67        28.88735
354.13        28.57918
354.58        28.25212
355.03        28.02069
355.48        27.90834
355.93        27.90359
356.38        27.93174
356.83        27.85843
357.28        27.65101
357.73        27.34538
358.18        27.01296
358.63        26.76788
359.08        26.63848
359.53        26.59141
359.98        26.55753
360.43        26.43147
360.88        26.19156
361.33        25.87079
361.78        25.54853
362.23        25.35211
362.68        25.30211
363.13        25.34527
363.58        25.38851
364.03        25.28871
364.48         25.0154
364.93        24.62647
365.38        24.18573
365.83        23.79393
366.28        23.49071
366.73         23.2448
367.18        23.06755
367.63        22.97728
368.08         22.9618
368.53        23.01542
368.98        23.07114
369.43        23.01835
369.88        22.83799
370.33        22.56259
370.78        22.25715
371.23        22.03875
371.68        21.94334
372.13        21.93159
372.58        21.98113
373.03        22.05064
373.48        22.11264
373.93        22.17925
374.38        22.21077
374.83        22.14391
375.28        21.97389
375.72        21.70697
376.17        21.43235
376.62        21.25884
377.07        21.21612
377.52        21.27043
377.97        21.36654
378.42         21.4122
378.87        21.37708
379.32        21.28806
379.77        21.16806
380.22        21.04838
380.67        20.93877
381.11        20.82975
381.56        20.70918
382.01        20.56885
382.46         20.4115
382.91         20.2464
383.36        20.09688
383.81        19.99483
384.26        19.94659
384.71        19.94383
385.15        19.94621
385.60        19.90923
386.05         19.8119
386.50        19.65547
386.95        19.48242
387.40        19.36987
387.85          19.338
388.29        19.36417
388.74         19.3877
389.19        19.29314
389.64        19.07059
390.09        18.74858
390.54        18.44364
390.98        18.35026
391.43        18.51308
391.88        18.85317
392.33          19.207
392.78        19.33426
393.23        19.20252
393.67        18.89235
394.12        18.57469
394.57        18.42487
395.02        18.48144
395.47        18.67714
395.91        18.93665
396.36        19.09938
396.81        19.11535
397.26        19.02479
397.71        18.87568
398.15         18.7187
398.60        18.60489
399.05        18.52398
399.50        18.45267
399.95        18.30746
400.39        18.16551
400.84        17.98685
401.29        17.85659
401.74        17.88638
402.18        18.10268
402.63        18.43884
403.08        18.79638
403.53        19.01899
403.97        19.06492
404.42        18.97772
404.87        18.81134
405.32        18.66464
405.76        18.57564
406.21        18.52477
406.66        18.50956
407.11        18.53257
407.55        18.59396
408.00        18.69381
408.45        18.80729
408.90        18.86851
409.34         18.8564
409.79        18.78683
410.24         18.7048
410.68        18.67762
411.13        18.72482
411.58        18.82901
412.03        18.95372
412.47        19.03765
412.92        19.04842
413.37        19.00678
413.81         18.9533
414.26        18.96726
414.71        19.05334
415.15        19.18823
415.60        19.30243
416.05        19.30516
416.49        19.17859
416.94        18.96676
417.39        18.72958
417.83        18.56771
418.28        18.52126
418.73         18.5516
419.17        18.63818
419.62         18.7446
420.07        18.85283
420.51        18.97468
420.96        19.07291
421.41        19.08121
421.85        18.98579
422.30        18.82776
422.74         18.6598
423.19        18.60294
423.64        18.66265
424.08        18.81715
424.53        18.99683
424.98        19.11277
425.42        19.14238
425.87        19.10017
426.31         19.0188
426.76        19.00407
427.21        19.04707
427.65        18.99224
428.10        18.91341
428.54        19.04862
428.99        19.40506
429.44        19.87535
429.88        20.26493
430.33        20.33673
430.77        20.05541
431.22         19.5016
431.66        18.91333
432.11         18.7358
432.56         19.0057
433.00        19.47598
433.45        19.92576
433.89        20.25943
434.34        20.33029
434.78        19.93222
435.23        19.37376
435.67        19.34407
436.12        19.77979
436.57        19.95053
437.01        19.79462
437.46        19.72752
437.90         19.7889
438.35        19.86023
438.79         19.8924
439.24         19.8664
439.68        19.78961
440.13        19.59235
440.57        19.38348
441.02         19.5936
441.46        20.09196
441.91         20.1397
442.35        19.76579
442.80        19.60879
443.24        19.64093
443.69        19.63851
444.13        19.56334
444.58         19.3207
445.02        19.01024
445.47        19.04951
445.91        19.35916
446.36        19.45056
446.80        19.28439
447.24        19.13855
447.69        19.06587
448.13        19.01983
448.58        19.01955
449.02        19.06775
449.47        19.13319
449.91        19.16473
450.36        19.15326
450.80        19.11076
451.25        19.06575
451.69         19.0494
452.13        19.07327
452.58        19.11271
453.02        19.16087
453.47        19.20806
453.91        19.25055
454.36        19.29977
454.80        19.32901
455.24        19.29038
455.69        19.19088
456.13        19.03683
456.58        18.91413
457.02        18.92076
457.46        19.07791
457.91        19.34479
458.35        19.62415
458.79        19.75866
459.24         19.7251
459.68        19.55701
460.13        19.36392
460.57        19.26969
461.01        19.32377
461.46        19.48018
461.90        19.66673
462.34        19.76688
462.79        19.74642
463.23        19.63405
463.68        19.51308
464.12        19.52822
464.56        19.70693
465.01        20.00946
465.45        20.27802
465.89        20.36074
466.34        20.25002
466.78         19.8906
467.22        19.47594
467.67        19.51101
468.11        19.94979
468.55        20.18426
468.99        20.13957
469.44         20.1058
469.88        20.14455
470.32        20.33011
470.77        20.58878
471.21        20.64722
471.65        20.48113
472.10         20.2996
472.54        20.17438
472.98         20.1508
473.42         20.2533
473.87        20.47098
474.31         20.7265
474.75        20.89424
475.20        20.94718
475.64        20.91097
476.08        20.84075
476.52        20.81642
476.97        20.86277
477.41        20.96727
477.85         21.0894
478.29        21.16547
478.74        21.25301
479.18        21.20555
479.62        21.09523
480.06        21.35183
480.50        21.53789
480.95        21.72976
481.39        21.74903
481.83        21.70419
482.27        21.57891
482.72        21.47495
483.16        21.04253
483.60        21.14172
484.04        21.63488
484.48        21.98388
484.93        22.38768
485.37        22.78241
485.81        23.12166
486.25        23.37675
486.69        31.21883
487.14        24.79687
487.58        16.08527
488.02         19.8158
488.46        22.41541
488.90        22.55736
489.34        22.79803
489.79        22.66835
490.23        23.80405
490.67        24.44169
491.11        24.31109
491.55        24.17599
491.99        23.99579
492.43        23.79083
492.88        23.65457
493.32        23.73583
493.76        23.86697
494.20        24.15174
494.64        24.50453
495.08        24.92782
495.52         25.3645
495.96        25.69097
496.41        25.85358
496.85        25.98086
497.29        26.08675
497.73        25.81086
498.17        25.46492
498.61        25.75426
499.05        26.66434
499.49        26.87426
499.93        27.01203
500.37         27.1386
500.82        27.18469
501.26        27.42675
501.70        27.73221
502.14        27.86859
502.58        27.81938
503.02        27.82552
503.46        27.89952
503.90        27.89668
504.34        27.83566
504.78        27.81178
505.22        27.83293
505.66        27.89583
506.10        27.98675
506.54        28.02773
506.98        27.99983
507.42        28.12796
507.86        28.07755
508.30        28.19288
508.74         28.3698
509.18        28.59723
509.62        28.82182
510.06        28.96505
510.50        29.01278
510.94           28.99
511.38        28.94465
511.82        28.95198
512.26        29.03295
512.70        29.16108
513.14        29.31315
513.58        29.45111
514.02        29.54887
514.46        29.61046
514.90        29.63247
515.34        29.57847
515.78         29.4261
516.22        29.32625
516.66        29.30458
517.10        29.01553
517.54        28.43971
517.98        29.05718
518.42        28.78656
518.86         29.0555
519.30        29.22771
519.74        29.48006
520.18        29.73646
520.62         29.8494
521.06        29.81547
521.50        29.66037
521.93        29.44729
522.37        29.28978
522.81        29.22463
523.25        29.22204
523.69          29.265
524.13        29.32644
524.57        29.38804
525.01        29.45403
525.45        29.50671
525.89        29.51466
526.32        29.46742
526.76         29.3738
527.20        29.23967
527.64         29.0874
528.08        28.93772
528.52        28.76706
528.96        28.59112
529.40        28.51139
529.83        28.54863
530.27        28.38227
530.71        28.54303
531.15        28.53184
531.59        28.50369
532.03        28.44867
532.46        28.40519
532.90        28.43271
533.34        28.52905
533.78        28.67189
534.22        28.79477
534.66        28.80229
535.09        28.67515
535.53        28.45974
535.97        28.22031
536.41        28.06473
536.85        28.02597
537.28        28.07684
537.72        28.17621
538.16        28.25844
538.60        28.30265
539.04        28.30676
539.47         28.2992
539.91        28.39584
540.35        28.57539
540.79        28.70309
541.22        28.76553
541.66        28.85926
542.10        28.98021
542.54        29.06003
542.97         29.1286
543.41        29.28004
543.85        29.51771
544.29        29.82542
544.72        30.12304
545.16        30.29897
545.60        30.33196
546.04        30.25207
546.47         30.1782
546.91        30.31088
547.35        30.67278
547.79        31.20498
548.22        31.74067
548.66         31.9955
549.10        31.93229
549.53         31.6918
549.97        31.44194
550.41        31.36428
550.84        31.52127
551.28        31.86859
551.72        32.32315
552.15        32.72829
552.59        33.02194
553.03        33.24461
553.46        33.40427
553.90        33.54513
554.34         33.6861
554.77        33.77337
555.21        33.81028
555.65        33.91198
556.08        34.10358
556.52        33.94695
556.96        34.23185
557.39        34.30566
557.83        34.41304
558.27        34.52423
558.70        34.66235
559.14        34.84556
559.57        35.05529
560.01        35.29571
560.45        35.50369
560.88        35.58209
561.32        35.54439
561.75        35.40435
562.19        35.26083
562.63        35.21656
563.06        35.29165
563.50        35.46401
563.93        35.67691
564.37        35.85744
564.80         35.9715
565.24        36.05827
565.68        36.13342
566.11        36.22222
566.55        36.35777
566.98        36.51819
567.42         36.7171
567.85        36.95646
568.29        37.27864
568.72        37.54989
569.16        37.80194
569.60        38.22133
570.03        38.64347
570.47         38.6058
570.90        38.28535
571.34        37.92624
571.77        38.41796
572.21        38.59986
572.64        38.71425
573.08        38.34069
573.51         36.9801
573.95         38.5709
574.38        41.03305
574.82        40.09694
575.25        39.80533
575.69          38.446
576.12         37.9036
576.56        37.58132
576.99        38.38223
577.42         40.3335
577.86        40.06062
578.29        39.67015
578.73        41.83819
579.16        38.45176
579.60        35.07533
580.03        36.65049
580.47        39.22029
580.90        39.67235
581.33        39.17164
581.77        38.60323
582.20        41.97593
582.64        41.57541
583.07        35.35746
583.51        34.57983
583.94        33.84846
584.37        35.32305
584.81        37.13302
585.24        39.02964
585.68        39.79054
586.11        38.91368
586.54        36.26949
586.98        34.89686
587.41        35.46521
587.85        37.29274
588.28        38.40469
588.71        36.61626
589.15        35.25417
589.58        36.30112
590.01         36.2619
590.45        36.93964
590.88         37.2079
591.31        36.85047
591.75        36.69778
592.18        36.79425
592.61        37.60113
593.05        38.03418
593.48        39.67108
593.91        39.80666
594.35         36.9625
594.78        36.26498
595.21        36.29792
595.65        38.03828
596.08        39.56787
596.51        38.19358
596.94        37.31689
597.38        37.90882
597.81        39.66115
598.24         40.8695
598.68        40.36353
599.11        40.06777
599.54        42.10266
599.97        43.00127
600.41        40.85219
600.84        41.28201
601.27        42.47409
601.70        42.10085
602.14        42.51151
602.57        42.27543
603.00        42.99792
603.43         44.5993
603.87        45.84923
604.30         46.0983
604.73        45.42495
605.16        44.73613
605.60        45.84745
606.03        47.11184
606.46        48.54205
606.89        48.44824
607.32        47.43899
607.76        47.88428
608.19        49.71862
608.62        49.48038
609.05        48.96009
609.48         49.7326
609.92        50.17572
610.35        50.07238
610.78        51.94377
611.21        53.18201
611.64        50.82496
612.07         51.6568
612.50        52.20131
612.94        52.83094
613.37        52.75714
613.80        53.11421
614.23         53.9231
614.66         54.1214
615.09        54.50124
615.52         54.7824
615.96        55.06385
616.39        55.43541
616.82        54.95516
617.25        55.02236
617.68        55.92282
618.11        56.66438
618.54         57.1677
618.97        57.02387
619.40        56.54754
619.84        56.56215
620.27        57.43935
620.70        58.17703
621.13         58.6665
621.56        58.27385
621.99        57.30928
622.42        57.95492
622.85        59.84172
623.28        59.55337
623.71        58.94615
624.14        59.05363
624.57        58.92593
625.00        58.24329
625.43        58.82868
625.86        58.24692
626.29        58.20856
626.72        58.72377
627.15        58.17198
627.58        58.11842
628.01        57.97863
628.44        57.81431
628.87        57.62568
629.30        57.50974
629.73        57.45256
630.16        57.20621
630.59         56.7666
631.02        56.24318
631.45        55.69284
631.88         55.1652
632.31        54.68396
632.74        54.23693
633.17        53.81585
633.60        53.40729
634.03        53.00732
634.46        52.62777
634.89         52.2579
635.32         51.8761
635.75        51.47952
636.18        51.07067
636.61        50.66698
637.04        50.29713
637.47        49.96067
637.89        49.64852
638.32        49.32573
638.75        48.97178
639.18         48.5869
639.61        48.19312
640.04        47.80142
640.47        47.42157
640.90        47.06473
641.33        46.72784
641.76         46.4248
642.18        46.24667
642.61        46.19878
643.04        46.14889
643.47        46.03246
643.90        46.34132
644.33        46.10384
644.76        46.11697
645.18        46.10455
645.61        46.09871
646.04        46.10303
646.47        46.10824
646.90          46.193
647.33        46.44755
647.75        46.89203
648.18        47.52483
648.61        48.17289
649.04        48.54149
649.47        48.58668
649.89        48.35911
650.32        48.16369
650.75        48.47032
651.18        49.33115
651.61        50.50837
652.03        51.65838
652.46        52.31606
652.89        52.66821
653.32        52.61258
653.74        52.58222
654.17        54.14286
654.60        55.28739
655.03        54.24962
655.46        55.66537
655.88         58.6956
656.31          63.272
656.74        143.8908
657.16        93.28777
657.59        33.00599
658.02        25.12089
658.45        44.23395
658.87        57.30711
659.30        60.60458
659.73        60.07702
660.15        58.51483
660.58         60.7162
661.01        62.58659
661.44        61.00298
661.86         60.5864
662.29        60.71215
662.72        61.79553
663.14        63.55766
663.57        63.77088
664.00        62.69311
664.42        62.63902
664.85        63.70502
665.27        64.45174
665.70        64.65599
666.13        64.75891
666.55        64.73887
666.98        64.48078
667.41        64.15612
667.83        64.08514
668.26        64.33549
668.69        64.80272
669.11        65.30499
669.54        65.79032
669.96         65.5639
670.39        65.49312
670.82         65.1762
671.24        65.06275
671.67        65.19515
672.09        65.77325
672.52        66.49979
672.94        67.13113
673.37        66.50745
673.80        66.35599
674.22        66.44131
674.65        66.51031
675.07        66.55875
675.50        66.62172
675.92        66.73474
676.35        66.93389
676.77        67.20805
677.20        67.66718
677.62        67.90185
678.05        68.14628
678.47        68.26091
678.90        68.28525
679.32         68.2798
679.75        68.20167
680.17        68.34492
680.60         68.5144
681.02        68.73132
681.45        68.64818
681.87        68.61884
682.30         68.3926
682.72        68.20061
683.15        68.25043
683.57        68.59364
684.00        69.05645
684.42        69.64514
684.85        69.98251
685.27        70.04303
685.70        69.91434
686.12        69.68962
686.54        69.56821
686.97        69.59365
687.39        69.71872
687.82        69.89242
688.24        70.08475
688.66        70.25729
689.09         70.4356
689.51        70.61852
689.94        70.79543
690.36        70.97547
690.78        71.06936
691.21        71.10928
691.63        71.34025
692.06        71.68925
692.48        71.74787
692.90        71.57008
693.33        71.57864
693.75        71.79313
694.17        71.97604
694.60        72.12152
695.02        72.27573
695.44        72.38703
695.87        72.71186
696.29         73.1754
696.71        72.87371
697.14        72.09934
697.56        72.60679
697.98        74.08622
698.41        74.13106
698.83        73.23573
699.25        72.78336
699.68        73.00246
700.10        73.05965
700.52        72.96651
700.94        73.15189
701.37         73.5634
701.79        73.99599
702.21        74.36246
702.64        74.71819
703.06        74.96091
703.48         74.9258
703.90        74.61797
704.33        74.09372
704.75        73.52903
705.17        73.29942
705.59        73.49504
706.01        73.89371
706.44        74.31602
706.86        75.07603
707.28        75.08132
707.70         75.2603
708.12        75.33812
708.55        75.16872
708.97        74.85023
709.39        74.81092
709.81        75.05562
710.23        75.17913
710.66        75.16346
711.08        75.30661
711.50        75.52624
711.92        75.57586
712.34        75.43266
712.76        75.14716
713.19        74.87427
713.61        74.89902
714.03        75.25766
714.45        75.86355
714.87        76.46819
715.29        76.67959
715.71         76.4202
716.13         75.8147
716.56        75.13179
716.98        74.84036
717.40        75.05154
717.82        75.62582
718.24          76.323
718.66        76.74181
719.08        76.77483
719.50        76.50713
719.92        76.08994
720.34        75.91098
720.76        76.08079
721.19        75.85686
721.61        76.31008
722.03         76.4309
722.45        76.51659
722.87        76.58136
723.29        76.66312
723.71         76.7874
724.13         76.9472
724.55        77.12528
724.97        77.28595
725.39        77.38165
725.81        77.40021
726.23        77.36793
726.65        77.31204
727.07        77.23287
727.49        77.21212
727.91        77.20095
728.33        77.21771
728.75        77.25812
729.17        77.31895
729.59        77.39409
730.01        77.49003
730.43        77.63595
730.85        77.83814
731.27        78.05784
731.69        78.21624
732.10        78.46177
732.52        78.32995
732.94        78.21363
733.36        78.08505
733.78        78.14655
734.20        78.45817
734.62        78.65339
735.04        79.65476
735.46         79.4762
735.88        78.76015
736.30        78.86008
736.72        80.36913
737.13        80.90681
737.55        80.37887
737.97        80.28414
738.39        80.65589
738.81        79.88135
739.23        78.47659
739.65        79.37933
740.06        82.01926
740.48        82.37755
740.90        80.53807
741.32        79.72904
741.74        80.25168
742.16        80.53816
742.57        80.63635
742.99        81.44249
743.41        82.68829
743.83        83.35497
744.25        83.32381
744.67        83.04617
745.08        82.74468
745.50        82.58585
745.92         82.6866
746.34        83.03864
746.75        83.50767
747.17        83.78243
747.59        83.81167
748.01         83.7672
748.42        83.79533
748.84        83.92737
749.26        84.29681
749.68         85.1754
750.09        86.30552
750.51        86.97277
750.93        87.03568
751.35        86.63023
751.76        86.01018
752.18        85.77168
752.60        85.91565
753.01        86.05994
753.43        85.86298
753.85        86.02286
754.27        86.45296
754.68        86.99078
755.10        87.52309
755.52        87.95995
755.93        88.27149
756.35        88.54855
756.77         88.8452
757.18        89.01621
757.60        89.06266
758.02        89.44528
758.43        89.79014
758.85        89.31939
759.26        86.81759
759.68        86.92502
760.10        88.80495
760.51        89.50169
760.93        88.69942
761.34         87.2605
761.76        87.25004
762.18        86.60372
762.59        86.13963
763.01        86.64173
763.42        88.05726
763.84        89.07027
764.26        89.46893
764.67           89.88
765.09        90.14899
765.50        89.75688
765.92        88.79469
766.33        87.29237
766.75        85.79082
767.16        85.36741
767.58        86.18169
768.00        87.78011
768.41        89.78543
768.83        91.57706
769.24        92.42611
769.66        91.60754
770.07        89.74083
770.49        87.87016
770.90         86.5466
771.32        87.44841
771.73        89.80717
772.15        89.30228
772.56        86.46764
772.97        85.96465
773.39         87.5965
773.80        89.04824
774.22        87.79363
774.63        87.83499
775.05        88.44799
775.46        88.70638
775.88        88.49696
776.29        88.13033
776.70        87.76542
777.12        87.62617
777.53        87.79173
777.95        88.12197
778.36        88.45641
778.77        88.51395
779.19        88.27649
779.60        87.83167
780.02        87.38062
780.43         87.3561
780.84        87.90424
781.26        88.32362
781.67        88.58736
782.09        89.90345
782.50        91.56919
782.91        90.38508
783.33        87.26346
783.74        86.29562
784.15        87.68585
784.57        88.99406
784.98        89.65366
785.39        89.62645
785.81        88.94657
786.22        88.27998
786.63        87.97315
787.04        87.93481
787.46        88.23952
787.87        89.13218
788.28        90.29454
788.70        90.89296
789.11        90.75895
789.52        90.30536
789.93        89.73789
790.35         89.0303
790.76        88.42416
791.17        88.51393
791.58        89.17502
792.00        89.52556
792.41        89.44403
792.82        89.51332
793.23        89.82869
793.65        89.67522
794.06        89.31284
794.47        90.36517
794.88        92.08056
795.29        91.57452
795.71        88.92194
796.12        86.80329
796.53        85.77438
796.94        85.35178
797.35        85.68832
797.76        87.00696
798.18        88.63128
798.59        89.69232
799.00         89.8624
799.41        88.19032
799.82        87.18886
800.23        86.32809
800.64        86.42856
801.06        87.03524
801.47        87.93931
801.88        88.63225
802.29        88.90273
802.70        88.95625
803.11        88.85561
803.52        88.68285
803.93        88.51187
804.34        88.26508
804.75        88.04663
805.17        88.15937
805.58        88.68907
805.99        89.19855
806.40        89.48736
806.81        90.12252
807.22        90.58411
807.63        88.93336
808.04        85.98244
808.45        84.74861
808.86        85.52706
809.27        86.86448
809.68         88.1776
810.09        88.99039
810.50         88.9869
810.91        88.33503
811.32        87.41053
811.73        86.80354
812.14        86.68859
812.55        86.89783
812.96        87.33218
813.37        87.66113
813.78        87.85126
814.19        88.36581
814.60        88.93062
815.01        88.81092
815.42        87.96201
815.83        86.63387
816.24         85.3591
816.65        84.99204
817.05         85.7949
817.46          87.495
817.87        89.38175
818.28        90.17854
818.69        89.54376
819.10        87.79419
819.51        85.75646
819.92        84.83421
820.33        85.39355
820.74        87.01492
821.14        88.89558
821.55        89.61988
821.96        88.88069
822.37        87.17142
822.78        85.24488
823.19        84.20853
823.60        84.35242
824.00        85.38483
824.41        86.75562
824.82        87.63898
825.23        87.69911
825.64        87.23292
826.04        86.54896
826.45        86.09332
826.86        85.99573
827.27        86.06171
827.68        86.21048
828.08        86.37582
828.49        86.43784
828.90         86.5187
829.31        86.54066
829.72        86.33496
830.12        85.92124
830.53        85.33072
830.94        84.81566
831.35         84.7206
831.75         85.1467
832.16        85.93668
832.57        86.89052
832.97        87.56818
833.38        87.73871
833.79        87.52586
834.20        87.14544
834.60        86.93069
835.01        86.99841
835.42        87.23637
835.82        87.48486
836.23         87.3935
836.64        86.93489
837.04        86.25613
837.45        85.59184
837.86        85.30812
838.26        85.49772
838.67        85.99419
839.08        86.62066
839.48        87.04989
839.89        87.12353
840.29        86.95935
840.70        86.61425
841.11        86.15219
841.51         85.6347
841.92        85.02198
842.33        84.45352
842.73        84.17734
843.14        84.20383
843.54        84.52292
843.95        84.90347
844.35        85.01504
844.76        84.76502
845.17        84.27615
845.57        83.73852
845.98         83.4614
846.38        83.52121
846.79        83.78413
847.19        84.18031
847.60        84.48205
848.00        84.64393
848.41        84.70574
848.81        84.69894
849.22        84.59268
849.62        84.46019
850.03        84.30512
850.43        84.24116
850.84         84.3722
851.24        84.77012
851.65        85.19507
852.05        85.75079
852.46        86.40565
852.86        87.10671
853.27        87.89457
853.67        88.21538
854.07        87.35436
854.48        85.37735
854.88        82.55583
855.29        79.88612
855.69        78.81123
856.10        79.61145
856.50        82.11107
856.90        85.41116
857.31        87.40987
857.71        87.40662
858.12        85.91344
858.52        83.90719
858.92        82.71001
859.33         82.6126
859.73        83.26739
860.13        84.35262
860.54        85.20771
860.94        85.64169
861.34        85.82602
861.75        85.91713
862.15        86.23627
862.55        86.81367
862.96        87.48363
863.36        88.09827
863.76         88.3812
864.17        88.27208
864.57        87.95168
864.97        87.58099
865.38        87.38194
865.78        87.46957
866.18        87.69118
866.58        88.05435
866.99        88.55505
867.39        89.21647
867.79        90.07659
868.19         90.8012
868.60         90.7554
869.00        89.84518
869.40        88.23997
869.80        86.74179
870.21         86.6114
870.61        88.20586
871.01        91.14568
871.41        94.46442
871.81        96.49644
872.22        96.74612
872.62        95.67976
873.02        94.17533
873.42        93.67115
873.82        94.45724
874.22        96.08278
874.63        97.92541
875.03        98.66432
875.43        97.76153
875.83        96.04404
876.23        94.17107
876.63        93.76638
877.03        95.21394
877.44        98.87369
877.84        98.57101
878.24        106.7772
878.64        105.2621
879.04        101.5528
879.44        98.43166
879.84        96.70716
880.24        98.07889
880.64        100.0177
881.04        102.5507
881.44        104.0454
881.84        103.2559
882.24        100.9175
882.65        98.51567
883.05        97.79642
883.45        99.05875
883.85        101.8823
884.25         105.193
884.65        106.9858
885.05        106.6194
885.45        104.8154
885.85        102.6714
886.25        101.6704
886.65         102.137
887.05        103.5619
887.45        105.3893
887.85        106.6388
888.25        106.9317
888.65        106.6329
889.04        105.9607
889.44        105.2785
889.84        104.7301
890.24        104.1584
890.64        103.6906
891.04        103.5598
891.44        103.7722
891.84        104.3205
892.24        104.9212
892.64        105.0134
893.04         104.532
893.44        103.7417
893.83        103.0041
894.23         102.877
894.63        103.4494
895.03        104.4711
895.43        105.8685
895.83        107.4784
896.23        109.0809
896.63         110.665
897.02        111.7239
897.42        111.4553
897.82        109.8415
898.22        107.2425
898.62        104.5125
899.01        102.8963
899.41        102.7091
899.81        103.5351
900.21        104.9314
900.61        106.1409
901.00         106.849
901.40        107.2818
901.80        107.4155
902.20        107.2134
902.59        106.7388
902.99        105.9492
903.39         105.072
903.79        104.5547
904.18        104.5244
904.58        104.9097
904.98        105.5392
905.38         106.113
905.77        106.4884
906.17        106.7365
906.57        106.8335
906.96         106.793
907.36        106.5912
907.76        106.2409
908.15        105.7755
908.55        105.1639
908.95        104.4867
909.34        103.7325
909.74        103.1165
910.14        102.7673
910.53        102.7484
910.93         103.107
911.33        103.6594
911.72        104.0823
912.12        104.2171
912.52        104.0636
912.91        103.9784
913.31        104.4927
913.70        105.7368
914.10        107.6477
914.49        109.5876
914.89        109.7887
915.29        107.8031
915.68        104.3225
916.08         101.069
916.47        99.69721
916.87        100.3724
917.26        102.5475
917.66        105.1053
918.05        106.2127
918.45        105.3602
918.84          103.18
919.24        100.7618
919.64        99.68852
920.03        100.3861
920.42        102.3563
920.82        104.7721
921.21         106.358
921.61         106.522
922.00         105.729
922.40        104.5025
922.79        103.4909
923.19        102.9095
923.58        102.6158
923.98        102.4025
924.37        101.7366
924.77        100.6808
925.16        99.43839
925.55        98.66508
925.95        99.06022
926.34        100.8297
926.74        103.4325
927.13        106.0321
927.52        107.0885
927.92         106.404
928.31        104.4703
928.70        102.0215
929.10        100.2839
929.49        99.60521
929.89        99.65198
930.28        100.3821
930.67        101.7258
931.07        103.3837
931.46        105.4112
931.85        107.1747
932.24         107.739
932.64        106.9625
933.03        104.9897
933.42         102.283
933.82        100.0449
934.21        98.72179
934.60         98.1462
934.99        98.06596
935.39        98.06004
935.78        98.04517
936.17         98.1934
936.56         98.3446
936.96        98.38618
937.35        97.78753
937.74        97.01986
938.13        96.52755
938.53        96.94098
938.92        98.27484
939.31        100.4981
939.70        102.9195
940.09        103.7285
940.49        102.3529
940.88        99.55229
941.27        96.69837
941.66        95.40382
942.05        95.86677
942.44        97.57768
942.84        99.82812
943.23         101.462
943.62        101.9475
944.01         101.603
944.40        100.8408
944.79         100.298
945.18        100.1672
945.57        100.2324
945.97        100.1647
946.36        99.45349
946.75        98.12762
947.14        96.68184
947.53        95.58794
947.92        95.18149
948.31        95.44023
948.70        96.24633
949.09        97.41853
949.48        98.48777
949.87        99.15052
950.26        99.42241
950.65        99.43916
951.04        99.47953
951.43        99.60857
951.82        99.70983
952.21        99.56962
952.60        98.90341
952.99        97.70359
953.38        96.13056
953.77        94.56551
954.16        93.50904
954.55        93.07652
954.94        93.21311
955.33        93.51707
955.72        93.29328
956.11        92.40108
956.50        91.01224
956.89         89.8028
957.28        89.99133
957.66        91.92208
958.05        94.93987
958.44        98.06641
958.83        99.87637
959.22        99.99873
959.61         98.7562
960.00        96.82909
960.39        95.34161
960.78        94.67027
961.16        94.62939
961.55        94.63062
961.94        93.70877
962.33        91.76861
962.72        89.30773
963.11        87.26633
963.49        86.84991
963.88        88.23339
964.27        91.12569
964.66        94.60254
965.04        96.61387
965.43        96.23627
965.82        94.16122
966.21        91.60125
966.60        90.15215
966.98        90.13445
967.37        91.00478
967.76        92.18905
968.15        92.61494
968.53         91.9497
968.92        90.64046
969.31        89.17902
969.69        88.11206
970.08        87.60769
970.47        87.50649
970.86        87.61398
971.24        87.64921
971.63        87.49103
972.02        87.19593
972.40        87.10201
972.79        87.72266
973.17        89.26893
973.56        91.45099
973.95        93.52918
974.33        94.12967
974.72        92.87833
975.11        90.27219
975.49        87.51495
975.88        86.22202
976.26        86.63106
976.65        88.46468
977.04        90.71886
977.42        90.93826
977.81         88.3324
978.19        83.92966
978.58        80.11462
978.96        79.39822
979.35        82.13203
979.74        87.73631
980.12        94.90113
980.51        99.29735
980.89        99.43234
981.28        96.56812
981.66        92.51614
982.05         89.6039
982.43        88.31398
982.82        87.88017
983.20        88.22795
983.59        89.42169
983.97        91.43927
984.35        94.50602
984.74          97.755
985.12        99.41518
985.51        98.38896
985.89        94.97515
986.28        90.38343
986.66        86.75576
987.04        85.09283
987.43        84.97813
987.81        85.64235
988.20        86.18365
988.58        86.37669
988.96        86.38317
989.35        86.78465
989.73        89.30246
990.12        93.70486
990.50        98.56936
990.88        101.3749
991.27        100.8652
991.65        97.55822
992.03         91.9128
992.42        85.85041
992.80        82.94669
993.18        84.22879
993.56        87.83878
993.95        91.75022
994.33         94.0265
994.71        94.27396
995.10        93.44773
995.48        91.79945
995.86         89.4987
996.24        86.72919
996.63        83.14468
997.01        79.58117
997.39        78.62781
997.77        81.28036
998.15        86.81859
998.54        92.78162
998.92        96.02507
999.30        95.50574
999.68        92.08378
1000.06        86.37853
1000.45        80.44961
1000.83        75.73656
1001.21        72.03461
1001.59        70.02798
1001.97        70.40885
1002.35        73.05762
1002.73        78.47113
1003.12        85.24607
1003.50        88.31174
1003.88        85.05896
1004.26        77.66567
1004.64        70.27937
1005.02        66.65323
1005.40         67.1958
1005.78        71.48214
1006.16        80.19647
1006.54        89.58427
1006.92        93.90627
1007.30        94.10223
1007.69        92.86945
1008.07         92.2577
1008.45        92.63314
1008.83        93.54035
1009.21        94.33276
1009.59        89.41167
1009.97        59.78014
1010.35       0.2137709
1010.73       -8.798596
1011.11        17.75672
1011.49        41.16467
1011.86        59.57744
1012.24        70.78087
1012.62        76.41293
1013.00        78.97005
1013.38         79.6888
1013.76         80.8689
1014.14        88.49974
1014.52        106.9131
1014.90        136.9411
1015.28         170.313
1015.66         186.048
1016.04        171.4887
1016.41        130.4781
1016.79        84.69704
1017.17         57.9321
1017.55         50.6455
1017.93        52.22704
1018.31        56.82275
1018.69        61.57476
1019.06        66.65095
1019.44        73.50562
1019.82        84.78871
1020.20        103.5234
1020.58        133.7001
1020.95        183.2755
1021.33        283.2303
1021.71       -1153.337
1022.09        5.179348
1022.46        70.69305
1022.84        93.70329
1023.22        107.2416
1023.60          125.07
1023.97         261.089
1024.35         35.0415
1024.73        59.75456
