SpectraSmart Spectrum 2.9.0.0
--------- Device Information -----------
Spectrum Name :  反射率_0
Saving Time :  2024/04/26 00:38:13
Spectro-Module Model Name : SE2030-DUVN
Spectro-Module Serial Number : OS361AC55029948
Wavelength Start : 200
Wavelength End : 1025
Wavelength Unit : Wavelength(nm)
Spectrum Unit : Reflectance(%)
-----------Spectrum Setting ------------
Integration Time : 20ms
Average : 10
Boxcar : 0
Background removal :  enabled
linearity correction :  enabled
SC :  disabled
Intensity correction :  disabled
DWT denoise :  enabled
savitzky-golay :  disabled
FFT :  disabled
Running average :  disabled
Kalman :  disabled
High pass :  disabled
---------------BEGIN--------------------
Wavelength(nm)             Reflectance(%)
200.29               0
200.75        80.13862
201.21        73.69586
201.67        66.87902
202.13        63.58949
202.58        64.16706
203.04        67.82343
203.50        72.68093
203.96        75.33254
204.42        74.91844
204.88        72.73157
205.34         70.3439
205.80        69.27061
206.26        69.88218
206.72        72.58373
207.18        77.75677
207.64        79.25688
208.10        70.47496
208.55        60.80095
209.01        56.11923
209.47        55.68847
209.93        57.83327
210.39        62.19449
210.85        67.08424
211.31        68.57124
211.77         65.5122
212.23        59.38057
212.69        53.66448
213.14        53.92785
213.60        60.82553
214.06        72.49245
214.52        85.07802
214.98        92.76611
215.44        93.96555
215.90         90.6493
216.36        84.92371
216.81        79.63435
217.27        76.19905
217.73        73.88127
218.19        71.84198
218.65        68.81985
219.11        64.08388
219.57        57.05386
220.02        48.66977
220.48        44.59895
220.94        47.55606
221.40        56.00849
221.86        63.52688
222.32        63.62416
222.77        57.33552
223.23        48.54943
223.69        41.43697
224.15        40.34564
224.61         44.7158
225.06        52.33949
225.52        60.04575
225.98        63.79205
226.44         62.8484
226.90        58.96289
227.36        54.26455
227.81        51.60359
228.27        51.91794
228.73        53.95858
229.19        56.74287
229.65        58.85926
230.10        59.83307
230.56        60.26349
231.02        60.39608
231.48         60.4553
231.93        60.51021
232.39        60.49259
232.85        60.39804
233.31        60.34574
233.77        60.32283
234.22        60.27674
234.68        60.16983
235.14        59.89241
235.60        59.43705
236.05        58.93682
236.51        58.29174
236.97        57.22827
237.43        55.67949
237.88        53.65371
238.34        51.54237
238.80        50.83194
239.26        52.24095
239.71        55.55816
240.17        59.58864
240.63        62.56489
241.08         63.8866
241.54         63.9221
242.00        63.09359
242.46        61.88474
242.91        60.37827
243.37        57.01604
243.83        50.36573
244.28        48.94396
244.74        83.19612
245.20        108.8794
245.66        111.0855
246.11        111.3656
246.57        113.0845
247.03        117.2983
247.48        115.9059
247.94        69.52492
248.40        59.91069
248.85        62.27204
249.31        65.45761
249.77        69.31155
250.22        74.63916
250.68        83.04807
251.14         94.7787
251.59        102.9473
252.05        100.3307
252.51        89.76315
252.96        77.33099
253.42        69.11189
253.88        64.80518
254.33        62.37668
254.79        62.48028
255.25        65.39771
255.70        69.96111
256.16           75.49
256.62        79.22263
257.07        78.37565
257.53        73.94494
257.99        67.12176
258.44        60.58366
258.90        58.20525
259.35        58.98603
259.81         61.1747
260.27        62.25283
260.72        59.84637
261.18        54.83591
261.63        48.45701
262.09        42.72908
262.55        39.33905
263.00         38.1735
263.46        38.35848
263.91        38.72517
264.37          38.285
264.83        36.88836
265.28        34.85704
265.74        32.87333
266.19        31.71164
266.65        31.57454
267.11        32.00514
267.56        32.44909
268.02        32.26527
268.47        31.35395
268.93        29.96064
269.38         28.3973
269.84        27.39939
270.30        27.15705
270.75        27.45777
271.21        27.92154
271.66        27.99172
272.12        27.52293
272.57        26.70349
273.03        25.83792
273.48        25.29992
273.94        25.19796
274.39        25.35241
274.85        25.55404
275.31        25.49886
275.76        25.11125
276.22        24.52945
276.67        23.88651
277.13        23.45458
277.58        23.24111
278.04        23.17857
278.49        23.11082
278.95        22.87357
279.40        22.41734
279.86        21.86868
280.31        21.29272
280.77        20.88569
281.22        20.64955
281.68        20.53715
282.13        20.49356
282.59        20.47404
283.04        20.44482
283.50        20.44202
283.95        20.39949
284.41        20.23351
284.86        19.93002
285.32        19.51964
285.77        19.11775
286.22        18.95704
286.68        19.04895
287.13        19.30669
287.59        19.53279
288.04        19.42755
288.50        18.96762
288.95        18.24859
289.41        17.49424
289.86         16.9418
290.32        16.69557
290.77        16.65652
291.22        16.74473
291.68        16.80431
292.13        16.79481
292.59        16.76304
293.04        16.76165
293.50         16.8713
293.95        17.09621
294.40        17.37741
294.86        17.64143
295.31        17.79272
295.77        17.81518
296.22        17.75011
296.68        17.64996
297.13        17.56952
297.58        17.55515
298.04        17.61069
298.49        17.75329
298.95        18.03704
299.40        18.45005
299.85        18.96549
300.31        19.51818
300.76        20.02007
301.21        20.42076
301.67        20.74929
302.12        20.97937
302.58        21.11728
303.03        21.16636
303.48        21.14039
303.94        21.13235
304.39        21.25751
304.84        21.53903
305.30         21.9357
305.75        22.33126
306.20        22.54684
306.66        22.56696
307.11        22.44888
307.57        22.30513
308.02         22.2443
308.47        22.32051
308.93        22.48412
309.38        22.71843
309.83        23.02435
310.29        23.36506
310.74        23.72741
311.19        24.03024
311.65        24.14975
312.10        24.06906
312.55        23.82883
313.00        23.50507
313.46        23.23669
313.91        23.06519
314.36        22.97182
314.82        22.95709
315.27        23.00804
315.72         23.1128
316.18        23.27152
316.63        23.44208
317.08          23.531
317.53        23.51193
317.99        23.39368
318.44        23.23356
318.89         23.1313
319.35        23.10612
319.80        23.13703
320.25        23.15577
320.70        23.05057
321.16        22.80275
321.61        22.45365
322.06        22.09048
322.51        21.84124
322.97        21.72741
323.42        21.71961
323.87        21.73666
324.32        21.64368
324.78        21.40845
325.23        21.07895
325.68        20.73409
326.13        20.50325
326.59        20.41731
327.04        20.44941
327.49        20.53731
327.94        20.58016
328.39        20.54624
328.85        20.45772
329.30        20.37454
329.75         20.3679
330.20        20.45874
330.66        20.60451
331.11        20.77626
331.56        20.88871
332.01        20.91556
332.46        20.86687
332.92        20.78262
333.37         20.7532
333.82        20.79835
334.27        20.90644
334.72         20.9976
335.17        20.93956
335.63        20.70707
336.08        20.34469
336.53        19.99113
336.98        19.86863
337.43        20.02162
337.88        20.38991
338.34        20.78324
338.79        20.93009
339.24        20.74129
339.69        20.29741
340.14        19.80085
340.59        19.60354
341.05         19.7814
341.50        20.21585
341.95        20.70469
342.40        20.95633
342.85        20.90382
343.30         20.6524
343.75        20.30517
344.20        20.04043
344.66        19.92238
345.11        19.86009
345.56        19.84979
346.01        19.88644
346.46        19.94506
346.91        20.04762
347.36        20.08627
347.81        19.87968
348.26        19.42657
348.72        18.82312
349.17        18.23344
349.62        18.01085
350.07        18.23304
350.52        18.77452
350.97        19.45974
351.42        20.01887
351.87        20.35668
352.32        20.53822
352.77        20.57333
353.22        20.48486
353.67        20.30107
354.13        20.01854
354.58        19.69378
355.03        19.45867
355.48        19.35008
355.93        19.36022
356.38        19.42554
356.83        19.42846
357.28        19.33656
357.73        19.17355
358.18        19.00606
358.63        18.93957
359.08        18.98955
359.53        19.11878
359.98        19.22449
360.43        19.15204
360.88        18.87861
361.33        18.45864
361.78         18.0258
362.23        17.79578
362.68        17.81211
363.13        17.99569
363.58        18.21801
364.03        18.27691
364.48        18.12265
364.93        17.83222
365.38        17.47278
365.83        17.15027
366.28        16.90987
366.73        16.71336
367.18        16.58748
367.63        16.57993
368.08        16.67987
368.53        16.87058
368.98        17.06099
369.43        17.10169
369.88        16.96792
370.33        16.71028
370.78        16.40794
371.23        16.20186
371.68        16.13833
372.13        16.16716
372.58         16.2803
373.03        16.45877
373.48        16.67014
373.93        16.91722
374.38        17.11174
374.83        17.11705
375.28        16.91862
375.72        16.54522
376.17        16.14482
376.62        15.92394
377.07         15.9358
377.52        16.11452
377.97        16.35752
378.42        16.49417
378.87         16.4732
379.32        16.35339
379.77        16.17947
380.22        16.01169
380.67        15.87405
381.11         15.7477
381.56        15.63343
382.01         15.5466
382.46         15.4883
382.91        15.45637
383.36        15.44667
383.81        15.44555
384.26        15.44359
384.71        15.44164
385.15        15.41168
385.60        15.32448
386.05        15.17215
386.50        14.95877
386.95        14.73541
387.40        14.59389
387.85        14.56051
388.29        14.61228
388.74        14.68237
389.19        14.66434
389.64        14.54239
390.09        14.33757
390.54        14.13846
390.98        14.09146
391.43        14.23038
391.88        14.49576
392.33        14.75058
392.78        14.79617
393.23        14.61253
393.67        14.26922
394.12        13.93261
394.57        13.78279
395.02        13.85458
395.47        14.08677
395.91        14.37565
396.36        14.51498
396.81        14.44668
397.26        14.22572
397.71         13.9557
398.15        13.77537
398.60        13.73775
399.05        13.79696
399.50        13.86579
399.95        13.78551
400.39        13.59621
400.84        13.29804
401.29        13.01323
401.74        12.93275
402.18         13.1115
402.63        13.46587
403.08         13.8597
403.53         14.0773
403.97        14.06254
404.42        13.88005
404.87        13.62217
405.32        13.45094
405.76         13.4151
406.21        13.46113
406.66        13.53982
407.11        13.58775
407.55         13.5893
408.00        13.56873
408.45        13.52759
408.90        13.45649
409.34        13.36425
409.79         13.2543
410.24        13.16564
410.68        13.15554
411.13         13.2329
411.58        13.38298
412.03         13.5573
412.47        13.66808
412.92        13.67735
413.37         13.6087
413.81        13.50711
414.26        13.45947
414.71        13.47824
415.15        13.54055
415.60        13.59233
416.05        13.56671
416.49        13.44866
416.94        13.27712
417.39        13.09133
417.83        12.95656
418.28        12.90189
418.73        12.89694
419.17        12.93455
419.62        12.99451
420.07        13.06578
420.51        13.15409
420.96        13.22042
421.41        13.19542
421.85         13.0687
422.30        12.88197
422.74        12.69339
423.19        12.61759
423.64        12.66069
424.08        12.79528
424.53        12.95554
424.98        13.05053
425.42         13.0544
425.87        12.99083
426.31        12.88182
426.76        12.80231
427.21        12.74902
427.65        12.61213
428.10        12.47598
428.54        12.55089
428.99        12.84755
429.44        13.28128
429.88        13.66236
430.33        13.73593
430.77        13.46802
431.22        12.94565
431.66         12.3987
432.11        12.22048
432.56        12.45419
433.00        12.92103
433.45        13.41113
433.89         13.7142
434.34         13.6972
434.78        13.31283
435.23        12.82338
435.67        12.70703
436.12        12.93596
436.57        13.03952
437.01        12.95093
437.46         12.8848
437.90        12.85657
438.35        12.81086
438.79        12.75589
439.24        12.73847
439.68        12.76929
440.13          12.776
440.57        12.77281
441.02        12.95786
441.46        13.22394
441.91        13.10865
442.35        12.69171
442.80         12.4759
443.24        12.44564
443.69        12.41605
444.13        12.33901
444.58        12.14412
445.02        11.88684
445.47         11.8317
445.91        11.94561
446.36        11.96017
446.80        11.85637
447.24        11.78973
447.69        11.77467
448.13        11.75153
448.58        11.72682
449.02        11.71441
449.47        11.70574
449.91        11.68648
450.36        11.65807
450.80        11.61808
451.25        11.59174
451.69        11.60874
452.13        11.67315
452.58        11.76187
453.02        11.84651
453.47        11.87592
453.91        11.84514
454.36        11.77918
454.80        11.69197
455.24        11.60871
455.69        11.55094
456.13        11.50302
456.58        11.50706
457.02        11.60719
457.46        11.80492
457.91        12.07528
458.35         12.3387
458.79        12.46018
459.24        12.42298
459.68        12.25635
460.13        12.06184
460.57        11.96322
461.01        12.00622
461.46        12.14568
461.90        12.31873
462.34        12.41376
462.79        12.40113
463.23        12.30936
463.68        12.20732
464.12        12.20703
464.56        12.33511
465.01        12.55577
465.45        12.75884
465.89        12.83133
466.34        12.76618
466.78        12.53577
467.22         12.2725
467.67        12.31184
468.11        12.62784
468.55        12.82822
468.99        12.85166
469.44        12.86267
469.88         12.8958
470.32         13.0049
470.77        13.14439
471.21        13.14625
471.65        12.99967
472.10         12.8419
472.54        12.72638
472.98        12.70082
473.42        12.78444
473.87        12.96385
474.31        13.18065
474.75        13.33447
475.20        13.40201
475.64        13.40257
476.08        13.37516
476.52         13.3818
476.97        13.44004
477.41        13.53354
477.85         13.6293
478.29        13.70284
478.74        13.74759
479.18        13.70393
479.62        13.61174
480.06        13.76226
480.50        13.87812
480.95        13.98973
481.39        13.97342
481.83        13.92859
482.27        13.85638
482.72        13.65092
483.16        13.40299
483.60        13.43562
484.04        13.76095
484.48        13.98019
484.93        14.23686
485.37        14.62944
485.81        15.05975
486.25        15.26245
486.69         20.0076
487.14        15.90542
487.58        10.54123
488.02        12.82062
488.46        14.66546
488.90        14.61078
489.34        14.81515
489.79        14.73692
490.23         15.5013
490.67        15.97607
491.11        15.93756
491.55        15.78826
491.99        15.52331
492.43        15.31141
492.88        15.23546
493.32        15.30121
493.76        15.39727
494.20        15.62859
494.64        15.93724
495.08        16.29173
495.52        16.65073
495.96        16.97333
496.41        17.19676
496.85        17.30474
497.29        17.31771
497.73        17.10498
498.17        16.88366
498.61        17.06867
499.05        17.64235
499.49        17.74439
499.93        17.79464
500.37        17.83266
500.82        17.83688
501.26        18.02632
501.70        18.31518
502.14        18.53641
502.58        18.63603
503.02        18.70726
503.46        18.74394
503.90         18.6696
504.34        18.53312
504.78        18.45922
505.22        18.47445
505.66        18.54985
506.10        18.65729
506.54         18.7462
506.98        18.80137
507.42        18.84247
507.86        18.89299
508.30        18.98695
508.74        19.12725
509.18        19.29088
509.62        19.45281
510.06        19.57555
510.50        19.64884
510.94        19.69211
511.38          19.706
511.82         19.6907
512.26        19.65426
512.70        19.59243
513.14        19.54722
513.58        19.58797
514.02        19.71353
514.46        19.89655
514.90        20.06276
515.34        20.05801
515.78        19.82983
516.22        19.58661
516.66        19.42274
517.10        19.03186
517.54        18.44621
517.98        19.29039
518.42         19.1407
518.86         19.5272
519.30        19.70498
519.74        19.90737
520.18        20.09327
520.62        20.16667
521.06        20.14327
521.50        20.02587
521.93        19.85922
522.37        19.73129
522.81        19.66847
523.25        19.65282
523.69        19.67335
524.13         19.7089
524.57        19.74666
525.01        19.79167
525.45        19.82972
525.89        19.83579
526.32        19.80208
526.76        19.73413
527.20        19.64113
527.64        19.54843
528.08        19.46861
528.52        19.37851
528.96         19.2785
529.40         19.2207
529.83        19.21839
530.27        19.06675
530.71        19.12632
531.15        19.06606
531.59        18.99598
532.03        18.90787
532.46        18.84951
532.90        18.89954
533.34        19.05556
533.78        19.28601
534.22        19.50017
534.66        19.56574
535.09        19.45579
535.53        19.22138
535.97        18.94579
536.41        18.76616
536.85        18.72368
537.28        18.78391
537.72        18.89367
538.16        18.96523
538.60        18.97433
539.04        18.93597
539.47        18.89469
539.91        18.96276
540.35        19.13204
540.79        19.29699
541.22        19.42125
541.66        19.52836
542.10        19.60578
542.54        19.61892
542.97        19.61114
543.41        19.68335
543.85        19.84785
544.29        20.08591
544.72        20.32322
545.16        20.45235
545.60        20.45355
546.04        20.35719
546.47         20.2709
546.91        20.37385
547.35        20.68591
547.79        21.14927
548.22        21.61459
548.66        21.82984
549.10        21.75944
549.53         21.5199
549.97        21.26032
550.41        21.15308
550.84        21.25605
551.28        21.52858
551.72        21.89996
552.15        22.23992
552.59        22.49292
553.03        22.69172
553.46        22.84929
553.90        22.99036
554.34        23.15004
554.77        23.27139
555.21        23.34316
555.65         23.4129
556.08        23.49499
556.52        23.30092
556.96        23.41211
557.39        23.44018
557.83        23.56209
558.27        23.73848
558.70        23.94182
559.14         24.1111
559.57        24.21776
560.01        24.29009
560.45        24.32336
560.88         24.3104
561.32        24.27874
561.75        24.21768
562.19        24.17249
562.63        24.17993
563.06        24.24384
563.50        24.35904
563.93         24.4987
564.37        24.62979
564.80        24.73175
565.24        24.82133
565.68        24.89548
566.11        24.95267
566.55         25.0147
566.98        25.07528
567.42        25.15885
567.85        25.29599
568.29        25.50208
568.72        25.69746
569.16        25.91844
569.60        26.22754
570.03        26.49415
570.47        26.59244
570.90         26.6527
571.34        25.98148
571.77         26.6015
572.21          26.582
572.64        26.58129
573.08        26.26323
573.51        25.52242
573.95        26.72519
574.38        28.43565
574.82        27.77479
575.25        27.46412
575.69        26.47384
576.12        26.06264
576.56        26.09137
576.99        26.80605
577.42        28.09282
577.86        27.73838
578.29        27.68288
578.73        28.98075
579.16        26.74599
579.60        24.54063
580.03        25.67603
580.47        27.35068
580.90        27.63123
581.33        27.16438
581.77        26.68688
582.20        29.24774
582.64        28.72863
583.07        24.64359
583.51        24.05252
583.94         23.7381
584.37        24.83046
584.81        25.59018
585.24        26.78211
585.68        27.45935
586.11        26.91023
586.54        24.94152
586.98        24.29115
587.41        24.54215
587.85        25.70461
588.28        26.46386
588.71        25.06793
589.15         24.2792
589.58        24.98047
590.01        25.08067
590.45        25.59053
590.88        25.62552
591.31        25.33413
591.75        25.23941
592.18        25.26304
592.61        25.75562
593.05         26.1071
593.48        27.29445
593.91        27.57653
594.35        25.22026
594.78        24.62238
595.21        24.95502
595.65         26.2557
596.08        27.27871
596.51         26.2786
596.94        25.61525
597.38        26.04554
597.81        27.38325
598.24          28.004
598.68        27.77392
599.11        27.70834
599.54        29.06219
599.97         29.9918
600.41        28.36414
600.84        28.72651
601.27        29.51989
601.70        29.38948
602.14        29.54542
602.57        29.42407
603.00        30.00634
603.43        31.14797
603.87        32.16312
604.30        32.27561
604.73        31.60153
605.16        31.60572
605.60        32.41578
606.03        33.37524
606.46        34.20814
606.89        34.15659
607.32        33.74788
607.76        34.19378
608.19        35.30882
608.62        35.04773
609.05        34.71875
609.48        35.20354
609.92        35.33217
610.35        35.70296
610.78        37.37997
611.21        37.82991
611.64        36.59838
612.07        37.11776
612.50        37.48661
612.94        37.92133
613.37        37.87958
613.80        38.34545
614.23        38.89839
614.66        39.19707
615.09        39.64146
615.52        39.91002
615.96        40.08356
616.39        40.31352
616.82        39.91639
617.25        40.08228
617.68        40.59264
618.11        41.13432
618.54        41.54244
618.97        41.51931
619.40        41.27299
619.84        41.43855
620.27        42.28884
620.70        42.77489
621.13        42.90431
621.56        42.74254
621.99        42.43374
622.42        42.94302
622.85        44.00238
623.28        43.74579
623.71        43.49314
624.14        43.75881
624.57        43.31221
625.00        43.33809
625.43        43.40483
625.86        43.03834
626.29        43.03418
626.72        43.30061
627.15        42.99886
627.58        42.94518
628.01        42.80144
628.44        42.83377
628.87        42.71348
629.30        42.46851
629.73        42.54189
630.16        42.30311
630.59        41.91761
631.02        41.45982
631.45        40.99194
631.88        40.56128
632.31        40.18542
632.74        39.85651
633.17        39.56004
633.60        39.27251
634.03        38.98272
634.46        38.69709
634.89         38.4039
635.32          38.083
635.75        37.73089
636.18        37.35135
636.61        36.95475
637.04        36.55791
637.47         36.1652
637.89         35.7767
638.32        35.38918
638.75        35.02032
639.18        34.67985
639.61        34.37421
640.04        34.09525
640.47        33.82216
640.90        33.55119
641.33        33.28474
641.76        33.02954
642.18        32.84756
642.61        32.74467
643.04         32.6269
643.47        32.46052
643.90        32.60938
644.33        32.39193
644.76        32.37743
645.18        32.36522
645.61        32.33606
646.04        32.27525
646.47        32.32068
646.90        32.28454
647.33        32.45333
647.75        32.77701
648.18        33.26768
648.61        33.76446
649.04        34.03223
649.47        34.04184
649.89        33.73919
650.32        33.43747
650.75        33.82291
651.18        34.84163
651.61        35.81913
652.03        36.45884
652.46        36.76237
652.89        36.96521
653.32        36.92596
653.74        36.81588
654.17        38.35989
654.60        38.54138
655.03        37.84856
655.46        39.15541
655.88        41.92779
656.31        44.54987
656.74        100.6791
657.16        65.03903
657.59        22.88897
658.02        17.62129
658.45        31.06652
658.87         40.3572
659.30        42.98567
659.73        42.30302
660.15        41.30723
660.58         43.3477
661.01        44.81529
661.44         43.5586
661.86         43.2581
662.29        43.49461
662.72        44.41709
663.14        45.78449
663.57        45.90751
664.00        45.01142
664.42        44.95481
664.85        45.82122
665.27        46.46795
665.70        46.69593
666.13        46.82188
666.55        46.82001
666.98        46.60989
667.41        46.34407
667.83        46.30312
668.26        46.54903
668.69        46.97902
669.11        47.43631
669.54        47.84752
669.96        47.69974
670.39        47.54887
670.82        47.40656
671.24        47.13761
671.67         47.3008
672.09        47.73781
672.52        48.35318
672.94        48.91136
673.37        48.55578
673.80        48.56528
674.22        48.74879
674.65        48.88689
675.07        48.96876
675.50        49.01819
675.92        49.06002
676.35        49.15786
676.77        49.32104
677.20        49.47731
677.62        49.62415
678.05        49.76262
678.47        49.87923
678.90        49.99125
679.32        50.10444
679.75         50.1169
680.17        50.23487
680.60        50.34497
681.02        50.47856
681.45        50.48668
681.87        50.44168
682.30        50.38396
682.72        50.38156
683.15        50.48638
683.57        50.72406
684.00        50.96099
684.42        51.35046
684.85        51.54049
685.27        51.56351
685.70         51.4669
686.12        51.32436
686.54        51.28643
686.97        51.37932
687.39        51.56865
687.82          51.786
688.24          51.934
688.66        51.97247
689.09        51.93603
689.51        51.89498
689.94        51.94222
690.36         52.1062
690.78        52.35126
691.21        52.61163
691.63        52.78699
692.06        52.85414
692.48        52.85205
692.90        52.84288
693.33        52.91098
693.75        53.08144
694.17         53.3323
694.60        53.61473
695.02        53.83541
695.44        53.93989
695.87         54.0834
696.29        54.29834
696.71          54.211
697.14        53.98079
697.56        54.53131
697.98        55.60672
698.41        55.56855
698.83        54.97579
699.25        54.53338
699.68        54.51755
700.10        54.47098
700.52        54.43425
700.94        54.68022
701.37        55.11598
701.79         55.5081
702.21        55.76764
702.64        55.96886
703.06        56.08704
703.48        56.07559
703.90        55.95353
704.33        55.72966
704.75        55.49133
705.17        55.45777
705.59        55.67968
706.01        56.01113
706.44        56.32399
706.86        56.89321
707.28        56.90704
707.70        56.99584
708.12        56.98232
708.55        56.95074
708.97        56.91063
709.39        56.84764
709.81        56.79979
710.23        56.82114
710.66        56.92302
711.08        57.12149
711.50        57.32858
711.92         57.4123
712.34        57.34758
712.76        57.15974
713.19        56.96746
713.61        56.98849
714.03        57.25465
714.45        57.69893
714.87        58.14215
715.29        58.32519
715.71        58.19723
716.13        57.79957
716.56            57.3
716.98        57.24464
717.40        57.31211
717.82        57.72257
718.24        58.20297
718.66        58.50733
719.08        58.55212
719.50        58.40855
719.92        58.18248
720.34        58.06082
720.76        58.09946
721.19        58.13456
721.61        58.31317
722.03        58.47416
722.45        58.64391
722.87        58.83448
723.29        59.02473
723.71        59.16827
724.13        59.25217
724.55        59.27856
724.97        59.27512
725.39        59.29696
725.81        59.35674
726.23        59.44004
726.65         59.5224
727.07        59.56054
727.49        59.55165
727.91        59.52471
728.33        59.50085
728.75        59.51282
729.17        59.56973
729.59        59.64837
730.01        59.76788
730.43        59.95293
730.85        60.19869
731.27        60.51574
731.69        60.80682
732.10         60.8978
732.52        60.75879
732.94          60.474
733.36        60.21225
733.78        60.13213
734.20        60.28374
734.62         60.8814
735.04        61.69082
735.46        61.73042
735.88        61.18647
736.30        61.40057
736.72        62.36581
737.13        62.88147
737.55        62.68062
737.97        62.60965
738.39        62.71187
738.81        61.97467
739.23        60.86553
739.65        61.68793
740.06         63.9401
740.48        64.29066
740.90        62.78083
741.32        62.05604
741.74        62.38992
742.16        62.58119
742.57        62.69297
742.99        63.39029
743.41        64.45707
743.83        65.15895
744.25        65.35295
744.67        65.21468
745.08        64.94473
745.50        64.87272
745.92        65.10378
746.34        65.52824
746.75        65.97949
747.17        66.18112
747.59        66.09017
748.01        65.79883
748.42        65.53851
748.84         65.6599
749.26        66.23386
749.68        67.11781
750.09        68.04406
750.51         68.5788
750.93        68.61905
751.35        68.24098
751.76        67.65806
752.18        67.38087
752.60        67.43742
753.01        67.40133
753.43        67.29961
753.85        67.51116
754.27        68.04608
754.68        68.73474
755.10         69.4045
755.52        69.90771
755.93        70.15192
756.35        70.10432
756.77        69.95197
757.18        69.86669
757.60        69.89978
758.02        70.43488
758.43        71.09637
758.85        70.47666
759.26        68.72453
759.68        68.55986
760.10        69.81761
760.51        70.47359
760.93        70.18108
761.34         69.7059
761.76        69.47598
762.18         68.9309
762.59        68.43594
763.01          68.717
763.42        69.72407
763.84        70.35389
764.26        70.49128
764.67        70.59563
765.09        70.68082
765.50        70.73468
765.92        70.64803
766.33         69.8115
766.75        68.59618
767.16        68.10545
767.58        68.50615
768.00        69.85668
768.41        71.77487
768.83         72.9375
769.24        72.85738
769.66        72.08365
770.07        71.03105
770.49        69.48338
770.90        67.98221
771.32        68.79464
771.73        71.27139
772.15        71.11006
772.56        68.65389
772.97        68.20649
773.39        69.72098
773.80        70.26192
774.22        69.64952
774.63        69.61599
775.05         70.1279
775.46         70.4187
775.88         70.4003
776.29        70.28568
776.70        70.14615
777.12        70.12461
777.53        70.26692
777.95         70.4805
778.36        70.64868
778.77        70.56595
779.19        70.23235
779.60        69.74055
780.02        69.28785
780.43        69.19537
780.84        69.61287
781.26        70.14761
781.67        70.66721
782.09        71.71478
782.50        72.90415
782.91        71.65257
783.33        70.12528
783.74        69.42992
784.15        70.17078
784.57        70.69993
784.98        70.79118
785.39        70.87453
785.81        70.86648
786.22        70.52433
786.63        70.09035
787.04        70.06608
787.46        70.50444
787.87         71.2336
788.28        71.99747
788.70        72.41527
789.11        72.29601
789.52        71.85946
789.93         71.3108
790.35        70.96576
790.76        70.91662
791.17        71.11676
791.58        71.43684
792.00        71.60355
792.41        71.53564
792.82        71.35696
793.23        71.24034
793.65        71.07224
794.06        71.05234
794.47        72.06845
794.88        73.42113
795.29        73.21055
795.71        71.02309
796.12        69.14676
796.53        68.02612
796.94         67.8737
797.35        68.71853
797.76        70.01483
798.18        71.21075
798.59        72.04303
799.00        72.20485
799.41        71.45026
799.82        70.20103
800.23        69.43713
800.64        69.36777
801.06        69.62643
801.47        70.12231
801.88        70.60925
802.29        70.96268
802.70        71.29244
803.11        71.54366
803.52        71.59054
803.93        71.43893
804.34        71.08467
804.75        70.67718
805.17        70.58401
805.58        70.91832
805.99        71.25587
806.40        71.44512
806.81        72.03944
807.22        72.57185
807.63        71.30801
808.04        68.88314
808.45        67.84171
808.86        68.42027
809.27        69.35831
809.68         70.2272
810.09        70.78046
810.50        70.79539
810.91        70.36823
811.32        69.75336
811.73        69.36052
812.14        69.30973
812.55         69.4444
812.96        69.70527
813.37        69.98275
813.78        70.21276
814.19        70.48836
814.60        70.66723
815.01         70.5085
815.42        70.00153
815.83         69.1792
816.24        68.38845
816.65        68.24763
817.05         68.9263
817.46        70.20467
817.87        71.59641
818.28        72.22339
818.69        71.85522
819.10        70.71497
819.51        69.34225
819.92         68.7037
820.33        69.05781
820.74        69.98045
821.14        71.01564
821.55         71.6533
821.96        71.55434
822.37        70.30196
822.78        68.45693
823.19        67.46184
823.60        67.55001
824.00        68.12215
824.41        68.82208
824.82        69.36199
825.23        69.53707
825.64        69.45533
826.04         69.2591
826.45         69.1456
826.86        69.17121
827.27        69.24088
827.68        69.29811
828.08        69.29461
828.49          69.164
828.90        68.99886
829.31        68.82124
829.72        68.65276
830.12        68.53763
830.53         68.4348
830.94        68.42667
831.35        68.61288
831.75        69.03559
832.16        69.61602
832.57        70.22395
832.97        70.56595
833.38         70.5097
833.79        70.14185
834.20        69.69875
834.60        69.54147
835.01        69.76962
835.42        70.26199
835.82        70.79675
836.23        70.91739
836.64        70.54944
837.04        69.86331
837.45        69.09906
837.86         68.6405
838.26        68.59929
838.67        68.81748
839.08         69.1902
839.48        69.52119
839.89        69.68992
840.29        69.77332
840.70        69.72502
841.11         69.4519
841.51        68.97866
841.92        68.31775
842.33        67.65583
842.73        67.31978
843.14        67.35714
843.54         67.7176
843.95         68.1946
844.35        68.48784
844.76        68.48949
845.17        68.30083
845.57        68.03381
845.98        67.87081
846.38        67.86546
846.79        67.92329
847.19        68.03023
847.60        68.09565
848.00        68.12086
848.41        68.11764
848.81        68.09473
849.22        67.97716
849.62        67.80916
850.03        67.61276
850.43        67.47948
850.84        67.51881
851.24        67.78665
851.65        68.08031
852.05        68.47665
852.46        68.93017
852.86        69.40602
853.27        69.95812
853.67        70.14925
854.07        69.42163
854.48        67.83525
854.88        65.59753
855.29        63.52739
855.69        62.82164
856.10         63.7059
856.50        66.02674
856.90        69.00353
857.31        70.79462
857.71        70.78941
858.12        69.44895
858.52        67.63806
858.92        66.50156
859.33        66.30288
859.73        66.70805
860.13        67.52574
860.54        68.35558
860.94        69.03815
861.34        69.69015
861.75        70.20092
862.15         70.4615
862.55         70.4323
862.96        70.10731
863.36        69.66602
863.76        69.43152
864.17        69.50213
864.57        69.84412
864.97        70.36685
865.38        70.90818
865.78        71.44558
866.18        71.93681
866.58        72.36431
866.99        72.69171
867.39        72.94808
867.79        73.14949
868.19        73.14997
868.60        72.69956
869.00        71.80487
869.40        70.60378
869.80        69.65807
870.21        69.80301
870.61        71.27197
871.01        73.79057
871.41        76.62634
871.81         78.5125
872.22         79.0699
872.62        78.60091
873.02        77.66357
873.42        77.40891
873.82        77.87633
874.22        78.24084
874.63        78.34906
875.03        78.07895
875.43        77.34856
875.83         77.5826
876.23        75.96568
876.63        75.04013
877.03        74.41468
877.44        74.24683
877.84        107.5684
878.24        80.88082
878.64        82.19009
879.04        84.23994
879.44        78.96877
879.84        76.38667
880.24        82.42445
880.64        84.78733
881.04        84.74846
881.44         84.3026
881.84        83.30009
882.24        81.79914
882.65        80.59623
883.05        80.21992
883.45        80.75133
883.85        82.37999
884.25        84.56367
884.65        85.93884
885.05        86.07845
885.45        85.42013
885.85        84.43927
886.25        83.80456
886.65        83.70001
887.05        83.86073
887.45        84.23615
887.85        84.76181
888.25        85.33353
888.65        86.00856
889.04        86.52508
889.44        86.49036
889.84        85.85372
890.24        84.72852
890.64        83.52343
891.04        82.87794
891.44          82.923
891.84        83.49607
892.24        84.24352
892.64        84.50636
893.04        84.15288
893.44        83.48953
893.83         82.8402
894.23        82.65876
894.63        83.03703
895.03        83.73875
895.43         84.7448
895.83        86.01448
896.23        87.39223
896.63        88.86361
897.02        89.91936
897.42        89.75382
897.82        88.31503
898.22        85.93933
898.62        83.46386
899.01        82.11472
899.41        82.17851
899.81        83.26123
900.21         84.8308
900.61        86.00027
901.00        86.45535
901.40        86.44441
901.80        86.16292
902.20         85.9139
902.59        85.80537
902.99        85.70851
903.39        85.54194
903.79        85.21227
904.18        84.73409
904.58        84.25597
904.98        83.94135
905.38        84.01026
905.77        84.46362
906.17        85.15774
906.57        85.93507
906.96        86.62199
907.36        87.06565
907.76        87.31004
908.15        87.27098
908.55        86.71156
908.95        85.70042
909.34        84.32896
909.74        82.94585
910.14        81.90925
910.53        81.36559
910.93        81.28723
911.33        81.67667
911.72        82.50727
912.12        83.55508
912.52        84.67026
912.91        85.67628
913.31        86.38142
913.70        86.82111
914.10        87.04198
914.49        86.88194
914.89        86.06052
915.29        84.69086
915.68        82.95879
916.08        81.63689
916.47        81.38541
916.87        82.19548
917.26         83.8521
917.66        85.59819
918.05        86.19034
918.45        85.32491
918.84        83.46021
919.24         81.3824
919.64        80.23751
920.03        80.35236
920.42         81.3658
920.82        82.89375
921.21        84.38013
921.61          85.367
922.00        86.01849
922.40        86.20019
922.79        85.78471
923.19         84.9165
923.58        83.43945
923.98        81.49958
924.37        80.29082
924.77         80.4567
925.16        77.82099
925.55        79.79069
925.95        80.64204
926.34        82.47208
926.74        84.77268
927.13         86.9761
927.52        87.81265
927.92        87.10679
928.31        85.29773
928.70        82.93027
929.10        80.97443
929.49        79.72562
929.89        78.96129
930.28         78.8641
930.67        79.72556
931.07         81.3576
931.46        83.74345
931.85        85.98956
932.24        86.74763
932.64        85.78738
933.03        83.29553
933.42        80.07142
933.82        77.93221
934.21        77.42686
934.60        78.08842
934.99         79.0546
935.39        79.52214
935.78        79.37338
936.17        78.22889
936.56        75.86926
936.96        77.33082
937.35         75.7529
937.74        76.55096
938.13         77.3186
938.53        78.22137
938.92        79.30444
939.31        80.74019
939.70        82.17947
940.09        82.46988
940.49        81.34144
940.88        79.29225
941.27        77.28813
941.66        76.48305
942.05        76.98772
942.44        78.40781
942.84        80.24091
943.23        81.64074
943.62        82.18406
944.01        82.11072
944.40        81.53376
944.79         80.6135
945.18        79.42516
945.57        77.83063
945.97        76.05924
946.36        74.76009
946.75        74.33162
947.14        74.63976
947.53        75.28772
947.92        75.80376
948.31        76.11966
948.70        76.38306
949.09        76.61539
949.48        76.84063
949.87        77.04524
950.26        77.10932
950.65        77.15199
951.04        77.41635
951.43        77.92186
951.82        78.61413
952.21        79.14372
952.60        78.94704
952.99        77.93997
953.38        76.32279
953.77        74.62283
954.16        73.59335
954.55        73.40259
954.94        73.91517
955.33        74.61077
955.72        74.59657
956.11        73.67522
956.50        72.08607
956.89        70.59002
957.28        70.56497
957.66          72.412
958.05        75.42168
958.44        78.58297
958.83        80.41808
959.22        80.55656
959.61        79.40264
960.00        77.56988
960.39        76.07077
960.78        75.26221
961.16        74.89651
961.55        74.67809
961.94        74.11909
962.33        73.13056
962.72        72.00034
963.11        71.04964
963.49        70.61996
963.88        70.75726
964.27        71.39411
964.66        72.23824
965.04        72.71667
965.43        72.53349
965.82        71.85694
966.21        71.20654
966.60        71.29479
966.98        72.22974
967.37        73.77789
967.76        75.32038
968.15        75.67185
968.53        74.55981
968.92        72.41245
969.31        70.12534
969.69        68.86867
970.08        68.86266
970.47         69.7955
970.86        71.05453
971.24        71.52988
971.63        70.88897
972.02         69.4593
972.40        67.88579
972.79        67.33432
973.17        68.26047
973.56        70.18516
973.95        72.53508
974.33        74.18974
974.72        74.58558
975.11        74.03121
975.49        72.97305
975.88        72.06423
976.26        71.42365
976.65        70.87311
977.04        70.06767
977.42        68.42844
977.81        66.04665
978.19        63.37408
978.58        61.55357
978.96        61.52394
979.35        63.35946
979.74        66.93771
980.12        71.54685
980.51        74.47441
980.89        74.89742
981.28        73.40187
981.66        71.27895
982.05        70.22708
982.43        70.52257
982.82        71.53357
983.20        72.98219
983.59        74.52885
983.97        76.10609
984.35         77.9509
984.74         79.5612
985.12        80.05212
985.51          78.863
985.89        76.03748
986.28        72.53661
986.66        69.86505
987.04        68.71907
987.43        68.83247
987.81        69.28621
988.20        68.82418
988.58        66.98486
988.96        63.36703
989.35        58.57433
989.73        56.41637
990.12        59.53105
990.50        66.32008
990.88        72.03358
991.27        72.83829
991.65        69.28738
992.03        62.63417
992.42        55.57129
992.80        52.97509
993.18        56.08744
993.56        62.04459
993.95        68.46913
994.33        73.40816
994.71        76.30944
995.10        78.22405
995.48        78.85427
995.86        77.41648
996.24        73.83831
996.63        67.74802
997.01        60.67294
997.39        57.36674
997.77        59.95053
998.15        67.51336
998.54        75.95048
998.92        79.40285
999.30        76.20649
999.68        67.82463
1000.06        56.76805
1000.45        49.15966
1000.83        47.45945
1001.21        49.51421
1001.59        53.35412
1001.97        56.97371
1002.35         59.8673
1002.73        63.17759
1003.12         65.9131
1003.50        64.90797
1003.88        59.40956
1004.26        51.26635
1004.64        43.93859
1005.02        40.18597
1005.40        40.03178
1005.78        43.22121
1006.16        50.65415
1006.54        59.62375
1006.92        64.74612
1007.30        65.99438
1007.69        65.07903
1008.07         63.6129
1008.45        61.36128
1008.83        56.41948
1009.21        43.38502
1009.59        6.730354
1009.97       -77.77934
1010.35       -170.3466
1010.73       -127.7427
1011.11       -54.78725
1011.49       -8.670781
1011.86        21.90587
1012.24        38.51734
1012.62        45.48706
1013.00        46.74102
1013.38        43.72379
1013.76         38.2805
1014.14        37.23373
1014.52        46.53612
1014.90        67.96559
1015.28        95.77762
1015.66        111.2744
1016.04        103.0205
1016.41        74.54046
1016.79        43.28424
1017.17        27.47439
1017.55        26.14427
1017.93        30.44064
1018.31        35.55539
1018.69        39.15324
1019.06        41.30342
1019.44        42.19003
1019.82        42.97363
1020.20        46.42503
1020.58        55.70821
1020.95        76.24635
1021.33         106.185
1021.71        62.50624
1022.09        128.1589
1022.46        142.0314
1022.84        153.7422
1023.22        171.3878
1023.60        214.3949
1023.97        632.6074
1024.35       -72.51703
1024.73        12.15202
