SpectraSmart Spectrum 2.9.0.0
--------- Device Information -----------
Spectrum Name :  反射率_0
Saving Time :  2024/04/26 00:36:48
Spectro-Module Model Name : SE2030-DUVN
Spectro-Module Serial Number : OS361AC55029948
Wavelength Start : 200
Wavelength End : 1025
Wavelength Unit : Wavelength(nm)
Spectrum Unit : Reflectance(%)
-----------Spectrum Setting ------------
Integration Time : 20ms
Average : 10
Boxcar : 0
Background removal :  enabled
linearity correction :  enabled
SC :  disabled
Intensity correction :  disabled
DWT denoise :  enabled
savitzky-golay :  disabled
FFT :  disabled
Running average :  disabled
Kalman :  disabled
High pass :  disabled
---------------BEGIN--------------------
Wavelength(nm)             Reflectance(%)
200.29               0
200.75         85.2796
201.21        76.55717
201.67        66.43855
202.13        60.65569
202.58        59.91285
203.04        62.84076
203.50        67.65159
203.96        71.05937
204.42         71.9336
204.88        71.46267
205.34        70.65748
205.80        70.50239
206.26        71.45756
206.72        73.98477
207.18        78.75575
207.64        82.10152
208.10        77.64212
208.55        70.41051
209.01        66.58227
209.47        66.66476
209.93        69.25215
210.39        74.02521
210.85        78.55169
211.31        77.45738
211.77        69.58953
212.23        57.24873
212.69          45.558
213.14        42.38715
213.60        48.96555
214.06        63.04725
214.52        79.57494
214.98        90.58562
215.44        93.76489
215.90        91.52467
216.36        86.51044
216.81        82.36378
217.27        80.55965
217.73        79.90065
218.19        79.23387
218.65        77.03635
219.11        72.58357
219.57        65.43552
220.02        56.68343
220.48        52.35837
220.94        55.38025
221.40          63.943
221.86        71.50689
222.32        71.43674
222.77        64.82636
223.23        55.90542
223.69        48.56377
224.15        46.83455
224.61        50.26052
225.06        56.68221
225.52        63.61391
225.98        68.04813
226.44        69.21204
226.90        68.32127
227.36        66.38985
227.81        64.67235
228.27        63.93064
228.73        63.60625
229.19        63.65134
229.65        64.07049
230.10        64.71443
230.56        65.59898
231.02          66.637
231.48        67.73981
231.93        68.79743
232.39        69.82526
232.85         70.5795
233.31        70.75628
233.77        70.29437
234.22        69.29254
234.68        67.91734
235.14        66.58684
235.60        65.56023
236.05        64.82488
236.51        64.38264
236.97        64.11433
237.43        63.94853
237.88        64.01767
238.34        64.16904
238.80         64.3568
239.26        64.47818
239.71         64.5768
240.17        64.38448
240.63        64.10159
241.08        63.90553
241.54        63.78936
242.00        63.71581
242.46        63.44825
242.91         62.9347
243.37        61.47565
243.83        59.40742
244.28        67.43841
244.74        103.1542
245.20        116.4535
245.66        112.6757
246.11         111.211
246.57        112.8307
247.03        118.0818
247.48        125.2422
247.94        92.70766
248.40         77.8836
248.85         76.4053
249.31        77.18721
249.77        78.36816
250.22         79.9276
250.68        82.45741
251.14          85.353
251.59        84.68191
252.05        78.56588
252.51         69.9688
252.96        62.73093
253.42        60.15485
253.88        61.46135
254.33        65.12943
254.79        70.87948
255.25        77.51073
255.70        83.64799
256.16        89.28832
256.62        92.72636
257.07        92.25184
257.53        88.99039
257.99        83.74532
258.44        78.55293
258.90        76.70618
259.35         77.1823
259.81        78.68004
260.27        79.19704
260.72        76.82753
261.18        72.40657
261.63        66.80595
262.09        61.59856
262.55          57.843
263.00        55.54812
263.46        54.32873
263.91        53.44901
264.37        52.47948
264.83        51.18789
265.28        49.62811
265.74        48.16488
266.19        47.03631
266.65        46.43196
267.11        46.13674
267.56        45.81596
268.02        45.10122
268.47        43.88505
268.93        42.32002
269.38        40.65572
269.84        39.54424
270.30        39.15105
270.75        39.29963
271.21         39.6251
271.66        39.57051
272.12        38.99563
272.57        38.07082
273.03        37.09406
273.48        36.42113
273.94        36.16737
274.39        36.14692
274.85        36.17929
275.31         35.9844
275.76        35.48366
276.22        34.81453
276.67        34.07457
277.13        33.50951
277.58        33.11395
278.04         32.8542
278.49        32.58244
278.95        32.17651
279.40        31.57775
279.86         30.9044
280.31        30.21222
280.77        29.70777
281.22        29.37994
281.68        29.19618
282.13        29.06128
282.59        28.89391
283.04          28.653
283.50        28.40204
283.95        28.12666
284.41        27.83772
284.86        27.53041
285.32        27.20726
285.77        26.91676
286.22        26.80305
286.68        26.85473
287.13        27.00054
287.59        27.08998
288.04        26.87937
288.50        26.36762
288.95        25.63083
289.41        24.85956
289.86        24.22703
290.32        23.84284
290.77        23.63226
291.22        23.58564
291.68        23.64692
292.13        23.78737
292.59         24.0205
293.04        24.32334
293.50        24.66091
293.95        25.00493
294.40        25.33151
294.86        25.62414
295.31        25.87437
295.77        26.09145
296.22         26.2863
296.68        26.47498
297.13        26.65364
297.58        26.84912
298.04        27.08684
298.49        27.40557
298.95        27.89816
299.40         28.5604
299.85         29.3516
300.31        30.18596
300.76        30.93968
301.21         31.5504
301.67        32.06147
302.12        32.45327
302.58        32.76548
303.03        32.99821
303.48        33.16014
303.94        33.33367
304.39        33.60813
304.84         34.0033
305.30        34.48328
305.75        34.93322
306.20        35.18764
306.66        35.23668
307.11        35.12575
307.57        34.96744
308.02        34.84704
308.47        34.82912
308.93        34.88347
309.38        35.00582
309.83        35.22418
310.29        35.51321
310.74        35.84491
311.19        36.14734
311.65        36.30786
312.10        36.29799
312.55        36.15049
313.00        35.89811
313.46        35.61314
313.91        35.32414
314.36        35.03475
314.82        34.79667
315.27        34.66529
315.72        34.65486
316.18        34.75183
316.63        34.89229
317.08        34.94224
317.53        34.86293
317.99        34.67242
318.44         34.4519
318.89        34.33888
319.35         34.3504
319.80         34.4491
320.25         34.5143
320.70        34.35263
321.16        33.93272
321.61           33.33
322.06         32.6903
322.51        32.23065
322.97        31.99358
323.42        31.92653
323.87        31.92415
324.32        31.80969
324.78        31.53037
325.23        31.15124
325.68        30.73884
326.13        30.40416
326.59        30.17514
327.04        30.03086
327.49        29.93152
327.94        29.82202
328.39        29.68348
328.85        29.52431
329.30        29.39463
329.75        29.33034
330.20        29.34138
330.66        29.39538
331.11        29.46895
331.56        29.47824
332.01        29.39966
332.46        29.23955
332.92        29.03956
333.37        28.91803
333.82        28.89567
334.27        28.95808
334.72        29.02044
335.17        28.93837
335.63        28.68094
336.08        28.30016
336.53         27.9266
336.98        27.77362
337.43        27.88348
337.88        28.19223
338.34        28.52443
338.79        28.64134
339.24         28.4572
339.69        28.04678
340.14        27.57805
340.59        27.34435
341.05        27.41503
341.50        27.69373
341.95        28.02901
342.40        28.20152
342.85        28.15782
343.30        27.97968
343.75        27.72825
344.20        27.51073
344.66        27.36937
345.11        27.23194
345.56        27.12379
346.01        27.08449
346.46        27.10077
346.91        27.17995
347.36        27.19467
347.81        26.93485
348.26        26.39364
348.72        25.67906
349.17        24.97858
349.62        24.67989
350.07        24.86957
350.52        25.41118
350.97        26.10671
351.42        26.65202
351.87        26.94278
352.32        27.05344
352.77        27.01154
353.22         26.8679
353.67        26.65777
354.13        26.36897
354.58        26.03821
355.03        25.77028
355.48        25.59412
355.93        25.50682
356.38        25.46754
356.83         25.3934
357.28        25.25968
357.73        25.08436
358.18        24.89933
358.63        24.75496
359.08         24.6617
359.53        24.60342
359.98        24.53413
360.43        24.38643
360.88        24.15111
361.33        23.84971
361.78        23.55375
362.23        23.37852
362.68        23.34159
363.13        23.39743
363.58        23.45753
364.03        23.38385
364.48        23.14594
364.93        22.79578
365.38        22.39477
365.83        22.04076
366.28         21.7719
366.73        21.56049
367.18        21.41002
367.63        21.32614
368.08        21.29715
368.53        21.32106
368.98        21.35455
369.43        21.32385
369.88        21.21517
370.33        21.05011
370.78         20.8605
371.23         20.7077
371.68        20.61259
372.13           20.55
372.58        20.52927
373.03         20.5645
373.48        20.64351
373.93        20.76048
374.38        20.84876
374.83        20.80409
375.28        20.61196
375.72        20.29394
376.17        19.95795
376.62        19.74162
377.07        19.68339
377.52        19.73897
377.97        19.84395
378.42        19.89164
378.87        19.84846
379.32        19.75026
379.77        19.62094
380.22        19.49196
380.67        19.37419
381.11        19.25416
381.56        19.13017
382.01        19.01228
382.46        18.90326
382.91        18.80573
383.36        18.71706
383.81        18.62785
384.26        18.53824
384.71        18.45581
385.15        18.37357
385.60        18.29307
386.05        18.20688
386.50        18.10706
386.95        18.01475
387.40        17.96772
387.85        17.97219
388.29        18.01415
388.74        18.05276
389.19        18.00633
389.64        17.86677
390.09        17.64799
390.54         17.4317
390.98        17.35549
391.43        17.45206
391.88        17.66528
392.33        17.87171
392.78         17.8894
393.23        17.69971
393.67          17.367
394.12        17.03663
394.57        16.84957
395.02        16.83628
395.47        16.94374
395.91        17.10981
396.36        17.20069
396.81        17.17774
397.26        17.07219
397.71        16.93083
398.15        16.80394
398.60        16.73348
399.05        16.70596
399.50         16.6822
399.95        16.56227
400.39         16.4117
400.84        16.19849
401.29        16.01885
401.74        16.01141
402.18        16.21028
402.63        16.54333
403.08        16.89427
403.53        17.07759
403.97         17.0463
404.42        16.85611
404.87        16.58382
405.32        16.36691
405.76        16.25477
406.21        16.21364
406.66        16.22021
407.11         16.2456
407.55        16.28056
408.00        16.33459
408.45        16.39317
408.90         16.4125
409.34        16.38074
409.79        16.30576
410.24        16.22464
410.68        16.19387
411.13        16.22857
411.58        16.31562
412.03        16.42009
412.47        16.48298
412.92        16.47444
413.37        16.41124
413.81        16.33558
414.26        16.32788
414.71        16.39398
415.15        16.51424
415.60        16.61263
416.05        16.58722
416.49        16.41953
416.94         16.1563
417.39        15.87767
417.83        15.71858
418.28         15.7229
418.73        15.83795
419.17        16.00788
419.62        16.14309
420.07        16.21533
420.51        16.25001
420.96        16.24142
421.41        16.17795
421.85        16.06307
422.30        15.92014
422.74        15.77552
423.19        15.70651
423.64        15.71099
424.08        15.77806
424.53        15.86436
424.98        15.92333
425.42        15.94457
425.87        15.93376
426.31         15.8924
426.76        15.87084
427.21        15.85274
427.65        15.71845
428.10        15.56644
428.54         15.6518
428.99        15.99087
429.44         16.4735
429.88        16.89437
430.33        16.98911
430.77        16.71614
431.22        16.16603
431.66        15.57343
432.11        15.35337
432.56        15.54543
433.00        15.94393
433.45        16.34293
433.89         16.5911
434.34         16.5679
434.78        16.18757
435.23        15.71375
435.67         15.6641
436.12        15.98969
436.57        16.12724
437.01        16.01509
437.46        15.95486
437.90        15.97241
438.35        15.97854
438.79         15.9569
439.24        15.92862
439.68        15.90318
440.13         15.8121
440.57        15.70135
441.02         15.8554
441.46        16.15783
441.91         16.0351
442.35        15.57566
442.80        15.37913
443.24        15.42266
443.69        15.47584
444.13        15.47527
444.58        15.32033
445.02        15.07156
445.47        15.06116
445.91        15.23822
446.36         15.2455
446.80         15.0629
447.24        14.90016
447.69        14.79922
448.13        14.72503
448.58        14.69387
449.02        14.70984
449.47        14.74984
449.91        14.77324
450.36        14.77103
450.80        14.74936
451.25        14.72497
451.69        14.71332
452.13        14.72165
452.58        14.73072
453.02        14.74012
453.47        14.74648
453.91        14.75007
454.36        14.75931
454.80        14.75354
455.24        14.69691
455.69        14.59706
456.13          14.461
456.58        14.35653
457.02        14.36058
457.46        14.48852
457.91        14.70449
458.35        14.93409
458.79        15.05315
459.24        15.04209
459.68        14.92487
460.13        14.78122
460.57        14.69594
461.01         14.7095
461.46        14.78942
461.90        14.89272
462.34        14.94271
462.79        14.91799
463.23        14.83571
463.68        14.75778
464.12        14.78652
464.56        14.93946
465.01        15.18505
465.45        15.39859
465.89        15.45573
466.34        15.35058
466.78        15.04525
467.22        14.69364
467.67         14.6895
468.11        15.00111
468.55        15.16813
468.99        15.13302
469.44        15.10933
469.88        15.14082
470.32        15.28367
470.77        15.47742
471.21        15.51088
471.65        15.36327
472.10        15.19477
472.54        15.06234
472.98        15.01019
473.42        15.06158
473.87        15.20821
474.31        15.39083
474.75        15.50918
475.20        15.54232
475.64        15.50911
476.08        15.45839
476.52        15.46575
476.97        15.54881
477.41        15.68582
477.85        15.82358
478.29        15.90857
478.74        15.92899
479.18        15.82615
479.62        15.66283
480.06          15.798
480.50        15.92033
480.95        16.05935
481.39        16.06799
481.83        16.04878
482.27        15.99607
482.72        15.79328
483.16        15.53683
483.60         15.5642
484.04        15.89271
484.48        16.10697
484.93        16.36856
485.37        16.71762
485.81        17.19763
486.25        17.33788
486.69        23.59506
487.14         18.7984
487.58        12.26294
488.02        14.72692
488.46         16.8135
488.90        16.72571
489.34        16.71576
489.79        16.50377
490.23        17.32741
490.67        17.95002
491.11        18.08204
491.55        18.03577
491.99        17.77997
492.43        17.57692
492.88        17.50967
493.32        17.51979
493.76        17.50205
494.20         17.6596
494.64        17.94469
495.08        18.30142
495.52        18.68103
495.96        19.02784
496.41        19.26722
496.85        19.39736
497.29        19.43071
497.73        19.18343
498.17        18.90291
498.61        19.08814
499.05        19.73042
499.49        19.85889
499.93        19.94442
500.37         20.0442
500.82        20.10574
501.26        20.32207
501.70        20.59038
502.14        20.73994
502.58        20.74912
503.02        20.78322
503.46        20.84781
503.90        20.83625
504.34        20.76849
504.78        20.72885
505.22        20.73212
505.66        20.76509
506.10        20.81196
506.54        20.84402
506.98        20.85624
507.42        20.85876
507.86        20.88609
508.30        20.98936
508.74         21.1712
509.18        21.40797
509.62        21.64218
510.06        21.78106
510.50        21.80499
510.94        21.74881
511.38        21.66208
511.82        21.62401
512.26        21.65907
512.70        21.73879
513.14        21.85329
513.58         21.9851
514.02        22.10972
514.46        22.22665
514.90        22.30482
515.34        22.25906
515.78        22.05562
516.22         21.8746
516.66        21.78021
517.10        21.43276
517.54        20.84937
517.98         21.6208
518.42        21.41184
518.86        21.73264
519.30        21.86865
519.74        22.04381
520.18        22.20447
520.62        22.23611
521.06        22.15245
521.50        21.96356
521.93        21.74433
522.37        21.62941
522.81        21.64895
523.25        21.76407
523.69         21.9142
524.13        22.00363
524.57        22.00423
525.01        21.94472
525.45        21.85196
525.89         21.7696
526.32        21.71013
526.76        21.65765
527.20         21.6003
527.64        21.52964
528.08        21.44786
528.52          21.345
528.96        21.22256
529.40        21.13799
529.83        21.10787
530.27        20.90231
530.71        20.93158
531.15        20.85781
531.59        20.80495
532.03        20.76048
532.46        20.74823
532.90        20.80534
533.34        20.92122
533.78        21.07602
534.22        21.21397
534.66         21.2556
535.09        21.18249
535.53        21.02969
535.97        20.83921
536.41        20.68412
536.85        20.59174
537.28        20.54667
537.72        20.53939
538.16        20.55337
538.60        20.57992
539.04        20.60858
539.47         20.6401
539.91        20.72549
540.35        20.84249
540.79        20.90521
541.22        20.91559
541.66        20.96142
542.10        21.04598
542.54        21.11031
542.97        21.17902
543.41        21.32714
543.85        21.55409
544.29         21.8478
544.72        22.12912
545.16        22.28358
545.60        22.29128
546.04        22.18234
546.47         22.0743
546.91         22.1651
547.35        22.47968
547.79        22.95819
548.22        23.44497
548.66        23.67476
549.10        23.61112
549.53        23.38011
549.97         23.1351
550.41        23.05175
550.84        23.18781
551.28        23.49563
551.72        23.90763
552.15        24.29817
552.59         24.6097
553.03        24.87422
553.46        25.07805
553.90        25.22299
554.34        25.32254
554.77        25.34271
555.21        25.31798
555.65        25.38654
556.08        25.57766
556.52        25.54785
556.96        25.85615
557.39        25.95842
557.83        26.02823
558.27        26.06124
558.70        26.10292
559.14         26.2093
559.57        26.37614
560.01        26.58989
560.45        26.78524
560.88        26.85424
561.32        26.80137
561.75        26.67355
562.19        26.54731
562.63        26.45428
563.06         26.4369
563.50        26.57666
563.93        26.82436
564.37        27.02408
564.80        27.14115
565.24        27.26365
565.68        27.38097
566.11        27.45069
566.55        27.49736
566.98        27.52528
567.42        27.58476
567.85        27.74833
568.29        28.04358
568.72        28.36607
569.16         28.7129
569.60        29.15313
570.03        29.53742
570.47        29.60929
570.90        29.52986
571.34        29.08495
571.77        29.61969
572.21        29.77048
572.64        29.96435
573.08        29.50412
573.51        28.57239
573.95        29.81404
574.38        31.78633
574.82         30.9974
575.25        30.92822
575.69        29.78617
576.12         29.2059
576.56        28.94804
576.99        29.78512
577.42        31.44203
577.86        31.46555
578.29        31.10349
578.73        32.76136
579.16         30.0827
579.60        27.49648
580.03        28.68973
580.47        30.52996
580.90        30.92225
581.33        30.57496
581.77        29.89255
582.20        32.94648
582.64        32.67303
583.07        27.89155
583.51        27.18232
583.94        26.38366
584.37        27.24704
584.81        28.39871
585.24        29.91669
585.68        30.84103
586.11        30.06535
586.54        28.01565
586.98        27.16896
587.41        27.28007
587.85        28.63845
588.28        29.39909
588.71         28.0873
589.15        27.02773
589.58        27.60807
590.01        27.74882
590.45        28.32772
590.88        28.31851
591.31        27.94726
591.75        27.78605
592.18        27.77057
592.61         28.2672
593.05        28.87159
593.48        30.31063
593.91        30.48648
594.35        28.22392
594.78         27.6843
595.21        27.60378
595.65         28.9628
596.08        30.24462
596.51        29.12732
596.94        28.55021
597.38        28.97499
597.81        30.26629
598.24        31.23939
598.68        30.42604
599.11        30.70839
599.54        31.93326
599.97        33.01784
600.41        31.46542
600.84        31.93123
601.27        32.76436
601.70        32.55304
602.14        32.69091
602.57        32.53321
603.00         33.1736
603.43        34.60184
603.87        35.68803
604.30        35.92275
604.73        35.28899
605.16        35.11718
605.60        35.83379
606.03        36.92057
606.46        38.04614
606.89        38.24088
607.32        37.39841
607.76        37.69088
608.19        39.18397
608.62        38.92041
609.05        38.45096
609.48        39.05926
609.92        39.46386
610.35        39.56501
610.78        41.36316
611.21        42.03244
611.64        40.57853
612.07        41.26689
612.50        41.73239
612.94        42.24998
613.37        42.20265
613.80        42.47011
614.23        43.08195
614.66        43.27172
615.09        43.66315
615.52        43.98334
615.96        44.29641
616.39         44.6361
616.82        44.22401
617.25         44.3857
617.68        45.02869
618.11        45.59016
618.54        45.94494
618.97        45.88502
619.40           45.64
619.84        45.72596
620.27        46.51701
620.70        47.03663
621.13        47.28032
621.56         46.9964
621.99        46.42747
622.42        47.01794
622.85        48.42214
623.28        48.34787
623.71        47.77024
624.14        47.92086
624.57        47.83028
625.00        47.49163
625.43        47.74477
625.86        47.29534
626.29        47.40376
626.72        47.47016
627.15        47.23391
627.58        47.14022
628.01        47.00993
628.44        46.84114
628.87        46.54052
629.30        46.39516
629.73        46.43344
630.16        46.22408
630.59        45.78358
631.02        45.29128
631.45        44.80714
631.88        44.34415
632.31        43.92111
632.74        43.53393
633.17        43.16226
633.60        42.77374
634.03        42.36089
634.46        41.93882
634.89        41.51336
635.32        41.09195
635.75        40.68056
636.18        40.27662
636.61        39.88467
637.04        39.51109
637.47        39.15056
637.89        38.79942
638.32        38.44199
638.75        38.07948
639.18        37.71696
639.61        37.36681
640.04        37.02341
640.47        36.67133
640.90        36.31522
641.33        35.96116
641.76        35.63738
642.18        35.44302
642.61        35.38945
643.04        35.36391
643.47        35.30255
643.90        35.55982
644.33        35.38224
644.76        35.38756
645.18        35.36436
645.61        35.34398
646.04        35.33053
646.47        35.31202
646.90         35.3597
647.33        35.56477
647.75        35.95385
648.18        36.51497
648.61        37.08987
649.04        37.46748
649.47        37.58826
649.89        37.34242
650.32        37.05141
650.75        37.41481
651.18        38.42619
651.61        39.53212
652.03        40.39544
652.46        40.82833
652.89        41.05838
653.32        40.94722
653.74        40.84929
654.17        42.47422
654.60        43.30699
655.03        42.59436
655.46        43.99496
655.88        47.14657
656.31        51.09494
656.74        122.7297
657.16        80.13145
657.59        28.03193
658.02        20.73929
658.45         35.6092
658.87        45.97306
659.30        48.74017
659.73        48.35123
660.15        46.97748
660.58        48.88582
661.01        50.63452
661.44        49.73147
661.86        49.61084
662.29        49.74318
662.72        50.52583
663.14        51.81406
663.57         52.0636
664.00        51.45391
664.42         51.5405
664.85        52.39524
665.27         53.0561
665.70        53.33353
666.13        53.47296
666.55        53.45125
666.98        53.20354
667.41        52.90002
667.83        52.85483
668.26        53.13999
668.69         53.6393
669.11        54.15588
669.54        54.62604
669.96        54.47306
670.39        54.22979
670.82        53.93069
671.24        53.85538
671.67        54.11839
672.09        54.68576
672.52        55.30743
672.94        55.92075
673.37        55.54047
673.80        55.50452
674.22        55.60378
674.65        55.65502
675.07        55.65706
675.50        55.66963
675.92        55.63861
676.35        55.74624
676.77        55.97617
677.20        56.24263
677.62         56.5155
678.05        56.75071
678.47        56.91923
678.90        57.03875
679.32        57.13467
679.75        57.14541
680.17        57.30623
680.60        57.42502
681.02        57.52385
681.45        57.50163
681.87        57.36158
682.30        57.16309
682.72         57.0035
683.15        56.99242
683.57        57.20766
684.00        57.63235
684.42         58.3232
684.85        58.70367
685.27        58.75421
685.70        58.64128
686.12        58.46078
686.54        58.36894
686.97        58.41592
687.39        58.54022
687.82        58.66038
688.24        58.79132
688.66        58.91512
689.09        58.65569
689.51        58.78103
689.94         58.8089
690.36        58.97233
690.78         59.2113
691.21        59.47225
691.63        59.66459
692.06        59.75805
692.48        59.79341
692.90        59.80675
693.33        59.84341
693.75        59.92235
694.17        60.03409
694.60        60.16994
695.02        60.29681
695.44        60.37385
695.87        60.56878
696.29        60.86879
696.71        60.74817
697.14        60.37885
697.56        60.87107
697.98        61.98256
698.41        61.90528
698.83        61.27231
699.25        60.87459
699.68        60.96894
700.10        60.94825
700.52        60.83611
700.94         60.9701
701.37        61.29707
701.79        61.64012
702.21        61.92218
702.64        62.19107
703.06        62.38691
703.48          62.406
703.90        62.25455
704.33        61.97184
704.75        61.64438
705.17        61.49381
705.59        61.57949
706.01        61.73792
706.44        61.90647
706.86        62.49704
707.28        62.62997
707.70        63.02263
708.12        63.34039
708.55        63.31604
708.97        62.99406
709.39        62.75634
709.81        62.69791
710.23         62.6638
710.66        62.68705
711.08        62.94584
711.50        63.30913
711.92        63.48185
712.34        63.41223
712.76        63.17372
713.19        62.90719
713.61        62.86672
714.03        63.09481
714.45          63.508
714.87        63.92117
715.29         64.0467
715.71        63.82758
716.13          63.366
716.56        62.85121
716.98        62.61188
717.40        62.72803
717.82        63.10051
718.24        63.57903
718.66        63.90734
719.08         64.0038
719.50        63.94416
719.92        63.80534
720.34        63.72839
720.76        63.75967
721.19        63.74481
721.61         63.8629
722.03        63.96209
722.45        64.08515
722.87        64.24077
723.29        64.40997
723.71        64.54793
724.13         64.6398
724.55        64.68716
724.97        64.71191
725.39        64.75635
725.81        64.82646
726.23        64.91112
726.65        64.98352
727.07        64.97731
727.49        64.92579
727.91        64.83606
728.33        64.74661
728.75          64.703
729.17        64.72218
729.59        64.77475
730.01        64.87925
730.43        65.09584
730.85        65.42539
731.27        65.80221
731.69        66.08319
732.10        66.40406
732.52        66.11376
732.94        65.79986
733.36        65.48494
733.78        65.39989
734.20        65.60879
734.62        66.30727
735.04        67.21394
735.46         67.2856
735.88        66.73781
736.30        66.70303
736.72        67.81193
737.13        68.24832
737.55        67.95126
737.97        67.84245
738.39        67.96597
738.81        67.28649
739.23        66.22971
739.65        66.96575
740.06        69.00648
740.48         69.2561
740.90        67.81931
741.32        66.85955
741.74        67.41919
742.16        67.55273
742.57        67.54927
742.99        68.11295
743.41        69.05608
743.83        69.64625
744.25        69.74727
744.67        69.54647
745.08        69.24089
745.50        69.15647
745.92        69.38902
746.34        69.81289
746.75         70.2702
747.17        70.49667
747.59        70.45886
748.01         70.2641
748.42        70.07732
748.84         70.1902
749.26        70.67941
749.68        71.26784
750.09        71.86806
750.51        72.70608
750.93        73.53487
751.35        73.50963
751.76        72.79743
752.18        72.53145
752.60        72.71239
753.01        72.56755
753.43         72.1359
753.85        72.05686
754.27        72.33634
754.68        73.28764
755.10        74.10529
755.52        74.29031
755.93        75.00652
756.35        75.11237
756.77        75.15599
757.18         75.1675
757.60        75.23293
758.02        75.69485
758.43        76.09329
758.85        75.83134
759.26         73.4248
759.68        73.20401
760.10        74.46209
760.51        75.28268
760.93        75.25365
761.34        74.08203
761.76        73.72675
762.18        73.05883
762.59        72.82165
763.01        73.13419
763.42        73.94735
763.84         74.5801
764.26        74.91987
764.67         75.1593
765.09        75.26469
765.50        75.36667
765.92        75.33994
766.33        74.29613
766.75        72.68927
767.16        72.25484
767.58        73.06276
768.00        74.19286
768.41        75.36453
768.83        76.77296
769.24        77.76114
769.66        77.03297
770.07        75.16537
770.49        73.52383
770.90         72.5941
771.32        73.63923
771.73        75.94673
772.15        75.62778
772.56         73.0758
772.97         72.5247
773.39         73.9345
773.80        74.40591
774.22        73.73502
774.63        73.56945
775.05        73.89285
775.46        74.06415
775.88        74.00862
776.29         73.8729
776.70        73.70721
777.12         73.6629
777.53        73.77653
777.95        73.93323
778.36        74.07071
778.77         74.0592
779.19        73.90944
779.60        73.73598
780.02        73.60546
780.43         73.5785
780.84        73.84316
781.26        74.15149
781.67        74.48898
782.09        75.76028
782.50        77.38574
782.91        76.03516
783.33        73.70886
783.74        72.80129
784.15        73.86108
784.57        74.72958
784.98        75.03411
785.39        75.06883
785.81        74.80716
786.22        74.41834
786.63        74.16682
787.04        74.21687
787.46        74.62395
787.87        75.45116
788.28        76.39132
788.70        76.80273
789.11        76.55857
789.52        75.88086
789.93        75.08215
790.35        74.59074
790.76        74.52718
791.17        74.81625
791.58        75.25868
792.00        75.45169
792.41         75.2841
792.82        74.95253
793.23        74.71806
793.65        74.49309
794.06        74.51468
794.47        75.84987
794.88        77.70324
795.29         77.4327
795.71        75.22638
796.12        73.17426
796.53        71.92726
796.94        71.39117
797.35        71.72182
797.76        72.93008
798.18        74.42528
798.59        75.37119
799.00        75.40522
799.41        74.60819
799.82        73.43159
800.23        72.74311
800.64        72.74818
801.06        73.10174
801.47        73.66026
801.88        74.09269
802.29         74.2654
802.70        74.31268
803.11        74.28049
803.52        74.21414
803.93        74.16018
804.34        74.06541
804.75        73.97811
805.17        74.09542
805.58        74.48174
805.99        74.75873
806.40        74.83314
806.81        75.36964
807.22        75.93253
807.63        74.72694
808.04        72.37603
808.45        71.43045
808.86        72.11488
809.27        73.16582
809.68        74.12757
810.09        74.69936
810.50         74.6452
810.91         74.0859
811.32        73.30903
811.73         72.7519
812.14        72.54843
812.55        72.61385
812.96        72.91417
813.37        73.15783
813.78        73.37051
814.19        74.11146
814.60        75.01543
815.01        75.08445
815.42        74.23762
815.83        72.85863
816.24        71.48777
816.65         70.9494
817.05        71.52322
817.46        72.95221
817.87        74.61079
818.28        75.37134
818.69        74.92418
819.10        73.56061
819.51        71.96008
819.92        71.27306
820.33        71.79816
820.74        73.16813
821.14        74.74354
821.55         75.3984
821.96        74.88244
822.37        73.58965
822.78        72.08726
823.19        71.20187
823.60        71.16344
824.00        71.76436
824.41        72.62527
824.82        73.20477
825.23        73.27285
825.64        73.01935
826.04        72.65546
826.45        72.47794
826.86        72.55974
827.27        72.76171
827.68        72.95784
828.08        72.99017
828.49        72.75435
828.90        72.38129
829.31        71.94175
829.72        71.55129
830.12        71.30396
830.53        71.14313
830.94        71.15038
831.35        71.42147
831.75        71.98808
832.16        72.76646
832.57        73.60312
832.97        74.15067
833.38        74.23717
833.79        73.94551
834.20        73.50101
834.60        73.25912
835.01        73.33317
835.42          73.617
835.82        73.92686
836.23        73.87124
836.64        73.40357
837.04        72.68137
837.45        71.94916
837.86         71.5871
838.26        71.69885
838.67        72.13481
839.08        72.72703
839.48        73.16758
839.89        73.30871
840.29        73.24574
840.70        73.04806
841.11        72.80663
841.51        72.57464
841.92        72.30638
842.33        72.04335
842.73        71.87402
843.14        71.78694
843.54        71.80805
843.95        71.87086
844.35         71.9148
844.76        71.90121
845.17        71.85738
845.57        71.78909
845.98        71.71798
846.38        71.65497
846.79        71.56153
847.19        71.48203
847.60        71.42101
848.00        71.41357
848.41        71.42619
848.81        71.44393
849.22        71.36193
849.62        71.21525
850.03        71.05317
850.43         70.9485
850.84         70.9582
851.24         71.1452
851.65        71.31614
852.05        71.64468
852.46        72.24197
852.86        73.08439
853.27        74.14795
853.67        74.85313
854.07        74.43554
854.48        72.90714
854.88         70.5377
855.29        68.22601
855.69        67.28346
856.10        67.97259
856.50        70.11445
856.90        72.92564
857.31        74.57806
857.71        74.48162
858.12        73.11481
858.52        71.32839
858.92         70.2353
859.33         70.0871
859.73        70.56203
860.13        71.45142
860.54        72.32278
860.94        73.01438
861.34        73.63235
861.75        74.11515
862.15        74.44217
862.55        74.58617
862.96        74.51352
863.36        74.32011
863.76        74.17512
864.17        74.14433
864.57        74.24876
864.97        74.49112
865.38        74.85366
865.78        75.34719
866.18        75.87798
866.58        76.38504
866.99         76.7534
867.39        76.98808
867.79         77.1442
868.19        77.05171
868.60         76.4168
869.00        75.25854
869.40        73.71391
869.80        72.46907
870.21        72.55863
870.61        74.24985
871.01        77.22131
871.41        80.54695
871.81        82.62418
872.22         82.9958
872.62        82.07935
873.02        80.66412
873.42        80.22007
873.82        80.88497
874.22        81.81582
874.63        82.69508
875.03        82.94682
875.43        82.28082
875.83        82.04747
876.23        80.28383
876.63        79.29875
877.03        78.86204
877.44        79.06419
877.84        105.9531
878.24         85.4753
878.64          86.603
879.04        88.01819
879.44        83.77494
879.84        81.62759
880.24        86.29358
880.64        88.15695
881.04        88.15968
881.44        87.77946
881.84        86.86681
882.24        85.48586
882.65        84.41355
883.05        84.23396
883.45        85.04052
883.85        86.98887
884.25        89.35648
884.65        90.53724
885.05        90.09062
885.45        88.54258
885.85        86.78832
886.25        86.07925
886.65        86.65759
887.05        88.09289
887.45        89.83396
887.85        90.89198
888.25        90.91986
888.65        90.29424
889.04         89.2959
889.44        88.39104
889.84        87.75531
890.24        87.20437
890.64        86.86144
891.04        86.94785
891.44        87.43579
891.84         88.2983
892.24        89.15366
892.64        89.27155
893.04        88.55894
893.44        87.35469
893.83        86.12653
894.23        85.55576
894.63        85.77592
895.03          86.491
895.43        87.66583
895.83        89.19888
896.23        90.88363
896.63        92.73305
897.02        94.08968
897.42        93.90267
897.82         92.1032
898.22         89.1054
898.62        86.01939
899.01        84.49025
899.41        84.86497
899.81        86.59173
900.21        88.89469
900.61        90.48746
901.00        90.94631
901.40        90.66564
901.80        89.94855
902.20        89.26478
902.59          88.794
902.99        88.34038
903.39        87.89947
903.79        87.51447
904.18        87.21619
904.58        87.14036
904.98        87.25857
905.38         87.4762
905.77        87.73492
906.17        87.97449
906.57        88.26739
906.96        88.79307
907.36        89.46803
907.76        90.23653
908.15        90.77512
908.55         90.4517
908.95        89.24073
909.34        87.34734
909.74        85.39712
910.14         84.1932
910.53        83.97691
910.93        84.57174
911.33        85.68427
911.72        86.75171
912.12        87.43928
912.52        87.85443
912.91        88.08949
913.31        88.25919
913.70        88.45325
914.10        88.58838
914.49        88.54415
914.89        88.09383
915.29          87.266
915.68         86.1783
916.08         85.3347
916.47        85.07778
916.87        85.42365
917.26        86.26348
917.66        87.10233
918.05        87.18942
918.45        86.36247
918.84        84.90963
919.24        83.42854
919.64        82.76807
920.03        83.14787
920.42        84.30486
920.82        85.80722
921.21        87.02798
921.61        87.55166
922.00         87.5788
922.40        87.17863
922.79        86.49719
923.19        85.71478
923.58        84.63054
923.98        83.24885
924.37        82.35746
924.77        82.43895
925.16        79.80386
925.55        81.33072
925.95        82.06031
926.34        83.97102
926.74        86.48378
927.13         88.9392
927.52        89.94844
927.92        89.31123
928.31        87.51247
928.70        85.14443
929.10        83.24236
929.49         82.1167
929.89        81.50556
930.28        81.56782
930.67        82.55919
931.07        84.27426
931.46         86.7132
931.85        88.96118
932.24        89.63877
932.64        88.50883
933.03         85.7491
933.42        82.22771
933.82         79.9142
934.21        79.39687
934.60        80.17403
934.99        81.24699
935.39        81.58121
935.78         81.0141
936.17        79.23982
936.56        76.14289
936.96        77.25032
937.35        75.94631
937.74        77.37152
938.13        78.80405
938.53        80.19458
938.92        81.59443
939.31        83.25678
939.70         84.8164
940.09        85.07916
940.49        83.77936
940.88        81.44963
941.27          79.125
941.66        78.03216
942.05         78.2963
942.44         79.5135
942.84        81.22619
943.23        82.65833
943.62        83.39244
944.01        83.64598
944.40        83.41872
944.79        82.70233
945.18        81.52207
945.57        79.74425
945.97        77.69048
946.36        76.25887
946.75        75.93108
947.14        76.48964
947.53        77.36806
947.92        77.92324
948.31        78.06897
948.70        77.96989
949.09        77.78748
949.48        77.86036
949.87        78.28138
950.26        78.85028
950.65        79.36026
951.04        79.55513
951.43        79.37779
951.82        78.94447
952.21        78.32671
952.60        77.66021
952.99        77.01889
953.38         76.3381
953.77        75.75653
954.16        75.46062
954.55        75.46273
954.94        75.79483
955.33        76.10325
955.72        75.76932
956.11        74.70242
956.50        73.05681
956.89        71.54456
957.28        71.47408
957.66        73.23048
958.05        76.16257
958.44         79.3194
958.83        81.28678
959.22        81.69104
959.61        80.88729
960.00        79.40179
960.39        78.11272
960.78        77.34184
961.16        76.89341
961.55        76.51133
961.94        75.79005
962.33        74.69161
962.72        73.48208
963.11        72.53104
963.49        72.25864
963.88        72.70323
964.27        73.76878
964.66        75.05129
965.04        75.70731
965.43        75.35739
965.82        74.31496
966.21        73.18734
966.60        72.78565
966.98        73.25148
967.37        74.27341
967.76        75.45444
968.15        76.01228
968.53        75.69366
968.92        74.77127
969.31        73.59357
969.69        72.56657
970.08        71.82262
970.47        71.26331
970.86        70.83261
971.24        70.45419
971.63        70.12382
972.02        69.89653
972.40        69.91156
972.79        70.36108
973.17        71.34609
973.56        72.68243
973.95        74.04394
974.33        74.80953
974.72        74.67207
975.11        73.73949
975.49        72.55762
975.88        71.94896
976.26        72.01096
976.65        72.62224
977.04        73.07413
977.42        71.80458
977.81        68.59701
978.19        64.32205
978.58        60.84771
978.96        59.97602
979.35        61.91938
979.74        66.29078
980.12        72.25997
980.51        76.66045
980.89        78.24668
981.28        77.68738
981.66        75.95174
982.05        74.37242
982.43        73.34876
982.82        72.42393
983.20        71.94625
983.59        72.53032
983.97        74.33366
984.35        77.47372
984.74        80.96664
985.12        82.63078
985.51        81.24477
985.89         77.1004
986.28        71.83456
986.66        68.19969
987.04        67.20534
987.43         68.1176
987.81        69.42535
988.20        69.18241
988.58        66.76555
988.96        61.84999
989.35        55.25738
989.73        52.15385
990.12        56.32514
990.50        65.45132
990.88        73.60252
991.27        76.26063
991.65         73.9954
992.03        68.19373
992.42        61.47976
992.80        58.56168
993.18        60.75905
993.56        65.51842
993.95        70.49369
994.33        73.64095
994.71        74.51577
995.10        74.28287
995.48        73.13503
995.86         71.0503
996.24        68.16598
996.63        64.06295
997.01        59.83126
997.39        58.89961
997.77        62.56102
998.15        69.97396
998.54        77.56651
998.92        80.53904
999.30        77.52122
999.68        69.62718
1000.06        59.04068
1000.45        51.25764
1000.83        48.66832
1001.21        49.67859
1001.59        52.56894
1001.97        55.44361
1002.35         57.7966
1002.73        60.55267
1003.12         63.1846
1003.50        63.58768
1003.88        60.98718
1004.26        56.37262
1004.64        51.76109
1005.02        48.82889
1005.40        47.56061
1005.78        47.50534
1006.16        49.59743
1006.54        54.64649
1006.92        60.18083
1007.30        64.23427
1007.69        66.25273
1008.07        66.81359
1008.45        66.06903
1008.83        63.02069
1009.21        53.70192
1009.59        26.20162
1009.97       -39.53772
1010.35        -116.287
1010.73       -88.67793
1011.11       -33.84367
1011.49        1.763979
1011.86        26.37461
1012.24        40.22053
1012.62        46.75859
1013.00         49.1734
1013.38        48.60495
1013.76        46.99756
1014.14        50.19086
1014.52        62.63979
1014.90        85.55534
1015.28        111.3425
1015.66        119.4167
1016.04        99.00826
1016.41        56.80497
1016.79        16.95317
1017.17        2.328113
1017.55         7.48429
1017.93        18.74211
1018.31        29.62445
1018.69        37.32276
1019.06        42.52174
1019.44        46.67878
1019.82         50.4423
1020.20        52.50703
1020.58        49.43096
1020.95        33.91001
1021.33       -29.69246
1021.71        1150.671
1022.09        213.7997
1022.46        168.7455
1022.84        158.4412
1023.22        163.1582
1023.60        189.9714
1023.97        479.8456
1024.35       -14.77889
1024.73        39.58926
