SpectraSmart Spectrum 2.9.0.0
--------- Device Information -----------
Spectrum Name :  反射率_0
Saving Time :  2024/04/25 23:36:32
Spectro-Module Model Name : SE2030-DUVN
Spectro-Module Serial Number : OS361AC55029948
Wavelength Start : 200
Wavelength End : 1025
Wavelength Unit : Wavelength(nm)
Spectrum Unit : Reflectance(%)
-----------Spectrum Setting ------------
Integration Time : 20ms
Average : 10
Boxcar : 0
Background removal :  enabled
linearity correction :  enabled
SC :  disabled
Intensity correction :  disabled
DWT denoise :  enabled
savitzky-golay :  disabled
FFT :  disabled
Running average :  disabled
Kalman :  disabled
High pass :  disabled
---------------BEGIN--------------------
Wavelength(nm)             Reflectance(%)
200.29               0
200.75        77.71945
201.21         70.3283
201.67        62.05224
202.13          56.792
202.58        54.99606
203.04        55.78009
203.50        58.32248
203.96        61.05983
204.42        63.00751
204.88        64.39178
205.34        65.18671
205.80        65.34121
206.26        64.89324
206.72        63.55754
207.18         59.6853
207.64        52.14325
208.10        47.01928
208.55        46.80065
209.01        49.08498
209.47        53.08785
209.93         58.6286
210.39        66.29928
210.85        73.95744
211.31        75.95972
211.77        70.57479
212.23        59.96758
212.69        48.71087
213.14        43.96782
213.60        47.02185
214.06        56.00321
214.52        67.20215
214.98        74.71035
215.44        76.70009
215.90        74.92154
216.36        71.22239
216.81        68.03318
217.27        66.42793
217.73        65.62538
218.19        64.41435
218.65        61.11884
219.11        54.83324
219.57        44.56401
220.02        31.60184
220.48        24.06661
220.94        26.44445
221.40        36.99162
221.86        46.99604
222.32        47.27609
222.77        39.15789
223.23        27.67497
223.69        18.44948
224.15         17.2558
224.61        23.28354
225.06        33.43981
225.52        43.47038
225.98        47.87654
226.44        45.67037
226.90        39.26804
227.36        31.52398
227.81        26.26276
228.27        24.77169
228.73        25.65884
229.19        27.93456
229.65        30.15527
230.10        31.73584
230.56        33.03365
231.02         34.2418
231.48        35.51067
231.93        36.84551
232.39         38.1038
232.85        39.00885
233.31        39.22833
233.77        38.69791
234.22        37.47813
234.68        35.98647
235.14        34.99298
235.60        34.77074
236.05        35.17431
236.51        35.70165
236.97        35.48961
237.43        34.34394
237.88        32.50854
238.34         30.4214
238.80        29.44808
239.26        30.38118
239.71        32.87805
240.17         36.5453
240.63        40.94162
241.08        45.59031
241.54        50.29712
242.00        54.28627
242.46        56.81028
242.91        57.95535
243.37        56.91942
243.83        52.84515
244.28        53.18459
244.74         80.7176
245.20        99.29114
245.66        99.59663
246.11        97.94666
246.57        95.71939
247.03        89.75685
247.48        63.39324
247.94        39.83921
248.40        58.81694
248.85        68.82833
249.31        73.66988
249.77         76.2984
250.22        78.21208
250.68        80.24603
251.14        82.19534
251.59        81.72856
252.05        77.70433
252.51        71.98059
252.96        66.22628
253.42        61.94682
253.88        58.65192
254.33        55.87688
254.79        55.24662
255.25        58.23567
255.70         63.8135
256.16        70.53384
256.62        75.36189
257.07         75.3745
257.53        71.55679
257.99        65.25138
258.44        59.13284
258.90        57.01925
259.35        57.93248
259.81        60.13038
260.27        61.17288
260.72        58.77015
261.18        53.77933
261.63        47.40337
262.09        41.60535
262.55        38.01554
263.00        36.55976
263.46        36.43052
263.91         36.5009
264.37        35.79226
264.83        34.16124
265.28        31.91769
265.74        29.77914
266.19        28.59627
266.65         28.5499
267.11        29.13432
267.56        29.72263
268.02        29.57976
268.47        28.60187
268.93        27.05994
269.38        25.29552
269.84        24.10592
270.30        23.71413
270.75        23.89913
271.21        24.28132
271.66        24.30429
272.12        23.81263
272.57        22.99256
273.03        22.14124
273.48        21.62166
273.94        21.53138
274.39        21.69666
274.85        21.87764
275.31        21.73519
275.76         21.2005
276.22        20.42551
276.67        19.61261
277.13        19.12322
277.58        18.98047
278.04        19.07835
278.49        19.19083
278.95        19.04195
279.40        18.57075
279.86        17.93251
280.31        17.26091
280.77        16.84729
281.22         16.7085
281.68        16.74718
282.13         16.8517
282.59        16.88742
283.04        16.81553
283.50        16.71655
283.95        16.56804
284.41        16.34024
284.86        16.04807
285.32        15.70561
285.77        15.44271
286.22        15.51001
286.68        15.90292
287.13        16.51217
287.59        17.09373
288.04        17.28407
288.50        17.03928
288.95        16.47691
289.41        15.82438
289.86         15.3323
290.32        15.12305
290.77        15.10567
291.22         15.2481
291.68        15.46494
292.13        15.72954
292.59        16.07349
293.04        16.49454
293.50        16.97892
293.95        17.50332
294.40        18.02666
294.86         18.5232
295.31        18.97731
295.77         19.3895
296.22        19.77305
296.68        20.12045
297.13        20.39142
297.58        20.60751
298.04        20.79948
298.49        21.05107
298.95        21.52336
299.40        22.22655
299.85        23.10154
300.31         24.0116
300.76        24.75014
301.21        25.24623
301.67        25.58296
302.12        25.80369
302.58        26.02499
303.03        26.26979
303.48        26.51103
303.94        26.80732
304.39        27.21702
304.84        27.74211
305.30        28.35933
305.75         28.9313
306.20        29.25265
306.66        29.30721
307.11        29.14499
307.57        28.92979
308.02        28.83981
308.47        28.94463
308.93        29.18339
309.38        29.47155
309.83        29.70458
310.29        29.83656
310.74        29.89545
311.19        29.89934
311.65         29.8715
312.10        29.82176
312.55        29.74313
313.00        29.61865
313.46        29.43484
313.91        29.19026
314.36        28.91374
314.82        28.67546
315.27        28.56338
315.72        28.59587
316.18        28.73995
316.63        28.91685
317.08        28.97572
317.53        28.87487
317.99        28.64633
318.44        28.37866
318.89        28.21621
319.35        28.18505
319.80        28.24627
320.25        28.29799
320.70        28.17563
321.16        27.84839
321.61         27.3784
322.06        26.87769
322.51        26.51241
322.97        26.31149
323.42        26.22767
323.87        26.17608
324.32        26.01901
324.78        25.71645
325.23        25.32194
325.68        24.88527
326.13        24.48623
326.59        24.15278
327.04        23.88294
327.49        23.66666
327.94        23.49132
328.39        23.35212
328.85        23.24522
329.30        23.20678
329.75        23.25741
330.20        23.38967
330.66         23.5676
331.11        23.74024
331.56        23.78775
332.01        23.67738
332.46        23.41874
332.92        23.08377
333.37        22.83779
333.82        22.72896
334.27        22.74048
334.72        22.77201
335.17        22.64508
335.63        22.32244
336.08        21.86845
336.53        21.44207
336.98         21.2944
337.43        21.47392
337.88          21.903
338.34        22.36733
338.79        22.56286
339.24        22.38617
339.69        21.92087
340.14        21.37993
340.59        21.13689
341.05        21.27559
341.50        21.67285
341.95        22.11333
342.40        22.28397
342.85        22.11542
343.30        21.72186
343.75        21.23092
344.20        20.86418
344.66        20.69721
345.11        20.62417
345.56        20.61483
346.01        20.62169
346.46        20.61032
346.91        20.62057
347.36        20.55583
347.81        20.25233
348.26        19.71631
348.72        19.03378
349.17        18.38293
349.62        18.14185
350.07        18.38724
350.52        18.98564
350.97        19.72205
351.42        20.26446
351.87        20.50865
352.32        20.54088
352.77        20.41521
353.22        20.22656
353.67        20.02062
354.13        19.76919
354.58        19.49857
355.03         19.2921
355.48        19.17049
355.93        19.14202
356.38        19.14923
356.83        19.08372
357.28        18.91946
357.73        18.67519
358.18        18.42952
358.63        18.30841
359.08        18.33198
359.53        18.46273
359.98        18.58092
360.43        18.50192
360.88        18.19854
361.33        17.73451
361.78        17.26704
362.23        17.05042
362.68        17.13296
363.13        17.41621
363.58         17.7431
364.03        17.86988
364.48        17.73244
364.93        17.41692
365.38        17.00167
365.83        16.61105
366.28        16.30092
366.73         16.0345
367.18        15.83696
367.63        15.75409
368.08        15.77818
368.53        15.89423
368.98         16.0321
369.43        16.07142
369.88        15.98637
370.33        15.81616
370.78        15.59331
371.23        15.38222
371.68        15.21325
372.13        15.05898
372.58        14.96789
373.03        15.02011
373.48        15.21122
373.93        15.51321
374.38        15.79568
374.83        15.85493
375.28        15.65676
375.72        15.25467
376.17        14.80808
376.62        14.54007
377.07        14.51515
377.52        14.66043
377.97        14.88862
378.42        15.05589
378.87         15.1106
379.32        15.09945
379.77        15.03966
380.22        14.95194
380.67        14.84946
381.11        14.71995
381.56        14.57701
382.01        14.45956
382.46        14.37632
382.91        14.32054
383.36          14.279
383.81        14.22259
384.26        14.14618
384.71         14.0681
385.15        13.98019
385.60        13.87679
386.05        13.75522
386.50        13.60683
386.95        13.47754
387.40        13.44701
387.85        13.52292
388.29        13.67565
388.74        13.81542
389.19        13.81259
389.64        13.65468
390.09        13.37476
390.54        13.08534
390.98        12.97714
391.43        13.09766
391.88        13.37178
392.33        13.65656
392.78        13.74177
393.23        13.59847
393.67        13.30213
394.12        12.99539
394.57        12.82607
395.02        12.82808
395.47        12.94817
395.91        13.12278
396.36        13.22266
396.81          13.207
397.26        13.10335
397.71         12.9648
398.15        12.85432
398.60        12.80768
399.05        12.80776
399.50        12.79508
399.95        12.65045
400.39         12.4204
400.84        12.09645
401.29        11.79931
401.74        11.72246
402.18         11.9181
402.63        12.30317
403.08         12.7321
403.53        12.97257
403.97        12.96325
404.42        12.77173
404.87        12.49165
405.32        12.28991
405.76        12.22157
406.21        12.23505
406.66        12.28797
407.11        12.32566
407.55        12.33273
408.00        12.32947
408.45        12.31575
408.90        12.27744
409.34        12.21583
409.79        12.13191
410.24        12.05175
410.68        12.01423
411.13        12.02902
411.58        12.09165
412.03        12.17235
412.47        12.21943
412.92        12.20876
413.37        12.14953
413.81         12.0855
414.26        12.09914
414.71        12.19422
415.15        12.34934
415.60        12.47582
416.05        12.45112
416.49        12.25371
416.94        11.93909
417.39        11.60294
417.83        11.40904
418.28        11.40843
418.73        11.53593
419.17        11.72826
419.62        11.88024
420.07        11.95921
420.51        11.99834
420.96        11.98007
421.41        11.87246
421.85        11.68477
422.30        11.44757
422.74        11.22533
423.19        11.13924
423.64         11.1949
424.08        11.36629
424.53        11.57674
424.98        11.70865
425.42        11.72577
425.87        11.65577
426.31         11.5325
426.76        11.44928
427.21        11.41062
427.65        11.31118
428.10        11.21622
428.54        11.29706
428.99        11.55969
429.44        11.93492
429.88        12.26673
430.33        12.34509
430.77         12.1412
431.22        11.72313
431.66        11.28137
432.11        11.14959
432.56        11.36288
433.00        11.76652
433.45        12.17995
433.89        12.43528
434.34        12.42027
434.78         12.0832
435.23        11.65824
435.67          11.575
436.12        11.80706
436.57        11.92843
437.01        11.86716
437.46        11.80235
437.90        11.74508
438.35        11.64785
438.79        11.53676
439.24        11.48434
439.68         11.5052
440.13        11.52579
440.57        11.53809
441.02          11.686
441.46        11.86679
441.91        11.68291
442.35        11.23332
442.80        10.99702
443.24        10.96325
443.69        10.95794
444.13        10.93039
444.58        10.80529
445.02        10.62189
445.47        10.61886
445.91        10.75907
446.36        10.78791
446.80        10.68523
447.24        10.59249
447.69         10.5369
448.13        10.48775
448.58        10.45771
449.02        10.45621
449.47        10.46058
449.91        10.43246
450.36        10.36894
450.80        10.27569
451.25        10.19927
451.69          10.202
452.13        10.29302
452.58        10.43761
453.02        10.57912
453.47        10.62358
453.91         10.5556
454.36        10.40911
454.80        10.22834
455.24        10.09019
455.69        10.02949
456.13        10.01969
456.58        10.06294
457.02        10.14524
457.46        10.26059
457.91        10.40526
458.35        10.55229
458.79        10.64732
459.24        10.68408
459.68        10.65808
460.13        10.61213
460.57        10.58374
461.01        10.59842
461.46        10.64158
461.90        10.68741
462.34        10.67941
462.79        10.60756
463.23        10.48336
463.68         10.3718
464.12        10.37648
464.56        10.51764
465.01        10.76151
465.45         10.9904
465.89        11.07183
466.34        10.99452
466.78        10.74336
467.22        10.45425
467.67        10.44998
468.11        10.71791
468.55        10.91694
468.99         10.9751
469.44        10.99908
469.88        11.01208
470.32        11.07219
470.77        11.15917
471.21        11.16165
471.65        11.07531
472.10        11.00261
472.54        10.97059
472.98        10.99415
473.42        11.08119
473.87        11.22935
474.31        11.39322
474.75        11.49177
475.20         11.5115
475.64        11.46966
476.08        11.41121
476.52         11.4074
476.97        11.47593
477.41        11.59868
477.85        11.73526
478.29        11.84271
478.74        11.90832
479.18        11.88467
479.62        11.81033
480.06        11.94766
480.50        12.05716
480.95        12.15752
481.39        12.14472
481.83        12.11092
482.27        12.06227
482.72        11.91369
483.16        11.72604
483.60        11.77223
484.04        12.06597
484.48        12.20313
484.93        12.36642
485.37        12.82834
485.81        13.43882
486.25        13.66358
486.69        17.85222
487.14        13.99634
487.58        9.433543
488.02        11.51172
488.46        13.12932
488.90        13.20641
489.34        13.29918
489.79        13.25582
490.23        13.96951
490.67        14.41127
491.11        14.38149
491.55         14.2907
491.99        14.12407
492.43         13.9671
492.88        13.88834
493.32        13.92058
493.76        13.98333
494.20        14.19893
494.64        14.52208
495.08        14.91224
495.52        15.31578
495.96         15.6717
496.41        15.91553
496.85        16.04183
497.29        16.07174
497.73        15.88804
498.17        15.69555
498.61        15.87615
499.05        16.42619
499.49        16.56648
499.93        16.68759
500.37        16.81824
500.82        16.90979
501.26        17.12744
501.70        17.38318
502.14        17.53273
502.58        17.55503
503.02        17.58629
503.46        17.63351
503.90        17.61007
504.34        17.54395
504.78        17.52361
505.22        17.56457
505.66        17.64941
506.10        17.75478
506.54        17.83765
506.98        17.88682
507.42        17.91694
507.86        17.95598
508.30        18.04697
508.74        18.19432
509.18        18.37523
509.62        18.55698
510.06        18.68755
510.50        18.75432
510.94        18.78174
511.38        18.78137
511.82        18.77089
512.26        18.76216
512.70        18.74474
513.14        18.75032
513.58        18.83135
514.02         18.9802
514.46        19.17288
514.90        19.34077
515.34        19.33841
515.78        19.11641
516.22        18.88273
516.66         18.7259
517.10        18.32769
517.54        17.71718
517.98        18.53328
518.42        18.34348
518.86        18.71136
519.30        18.88844
519.74        19.10968
520.18        19.30585
520.62        19.33566
521.06        19.20962
521.50         18.9427
521.93         18.6334
522.37        18.45729
522.81        18.45589
523.25        18.58228
523.69        18.75305
524.13        18.83549
524.57        18.79349
525.01         18.6669
525.45        18.50865
525.89        18.40313
526.32        18.37223
526.76        18.38758
527.20        18.40441
527.64        18.36362
528.08        18.25504
528.52        18.08375
528.96        17.89035
529.40        17.78414
529.83        17.79022
530.27        17.69441
530.71        17.79466
531.15         17.7299
531.59        17.59199
532.03        17.39633
532.46        17.21823
532.90        17.18161
533.34         17.2995
533.78        17.52363
534.22        17.75579
534.66        17.85238
535.09        17.77807
535.53        17.58705
535.97        17.34578
536.41        17.16327
536.85        17.07788
537.28        17.06291
537.72        17.09304
538.16        17.12729
538.60        17.15252
539.04        17.17119
539.47        17.20357
539.91        17.31961
540.35        17.50363
540.79        17.66913
541.22        17.79178
541.66        17.90728
542.10        18.00856
542.54         18.0568
542.97        18.08944
543.41        18.19748
543.85        18.39055
544.29        18.65359
544.72        18.91473
545.16        19.06882
545.60        19.09739
546.04        19.02983
546.47        18.97274
546.91        19.10353
547.35        19.44257
547.79        19.93354
548.22        20.42924
548.66        20.68089
549.10        20.65262
549.53        20.45657
549.97         20.2414
550.41         20.1822
550.84        20.33481
551.28        20.65553
551.72        21.06727
552.15         21.4302
552.59        21.68871
553.03        21.88136
553.46        22.02682
553.90        22.16955
554.34        22.32923
554.77        22.46276
555.21         22.5647
555.65        22.69793
556.08        22.87436
556.52        22.80497
556.96        23.02846
557.39        23.12075
557.83        23.24825
558.27        23.38491
558.70        23.53425
559.14        23.68702
559.57        23.82679
560.01        23.96433
560.45        24.07074
560.88        24.10023
561.32        24.07132
561.75        23.99041
562.19         23.9153
562.63         23.9003
563.06        23.95651
563.50        24.07187
563.93        24.22459
564.37        24.39009
564.80        24.54621
565.24        24.70694
565.68        24.85323
566.11        24.95823
566.55        25.03948
566.98         25.0983
567.42         25.1753
567.85        25.32809
568.29        25.58227
568.72        25.84282
569.16        26.11139
569.60        26.49616
570.03        26.87476
570.47        26.94067
570.90        26.80384
571.34        26.59659
571.77        26.95166
572.21        27.09784
572.64        27.24346
573.08        26.99376
573.51        26.13789
573.95        27.32255
574.38        29.09217
574.82        28.46699
575.25         28.2478
575.69        27.23934
576.12        26.74965
576.56         26.6523
576.99        27.27225
577.42          28.506
577.86        28.60488
578.29        28.34213
578.73        29.71132
579.16         27.2564
579.60        24.88685
580.03        25.93864
580.47        27.58458
580.90        27.94225
581.33        27.41432
581.77        26.99483
582.20        29.66489
582.64        29.13596
583.07        24.80439
583.51        24.20186
583.94        23.79335
584.37        24.63254
584.81        25.44981
585.24         26.6956
585.68        27.55472
586.11        26.84669
586.54        24.94178
586.98        24.11721
587.41          24.392
587.85         25.4023
588.28        26.16269
588.71        24.99735
589.15        24.07019
589.58        24.45092
590.01        24.79872
590.45        25.05065
590.88        25.41713
591.31        24.99047
591.75        24.61647
592.18        24.70772
592.61        25.59398
593.05         25.8308
593.48        27.20107
593.91        27.28579
594.35        25.07984
594.78        24.66463
595.21        24.78484
595.65        26.08316
596.08        27.14617
596.51        26.18253
596.94        25.52495
597.38        25.95185
597.81        27.28121
598.24        27.94957
598.68         27.6721
599.11        27.74059
599.54        29.07843
599.97        30.16728
600.41        28.64859
600.84        29.13438
601.27        30.02755
601.70        29.99133
602.14        30.27458
602.57        30.19815
603.00        30.81225
603.43          32.057
603.87        33.18075
604.30        33.48034
604.73        33.00844
605.16        32.78095
605.60        33.50591
606.03        34.48504
606.46        35.55461
606.89        35.69656
607.32        35.14103
607.76        35.57426
608.19        36.96475
608.62         36.8298
609.05        36.57823
609.48        37.10915
609.92        37.16098
610.35         37.6841
610.78        38.98154
611.21        39.71257
611.64          38.325
612.07        39.03803
612.50        39.56767
612.94         40.1423
613.37        40.16991
613.80        40.57213
614.23        41.21729
614.66        41.36226
615.09        41.59636
615.52        41.80132
615.96        42.04345
616.39        42.32149
616.82        41.95695
617.25        41.90507
617.68        42.79457
618.11        43.45379
618.54        43.91785
618.97        43.75595
619.40        43.23356
619.84        43.35578
620.27        44.09042
620.70        44.63574
621.13        44.84888
621.56        44.59184
621.99        44.10344
622.42        44.72314
622.85        46.06013
623.28        46.05749
623.71        45.68853
624.14         45.2584
624.57        45.16217
625.00         45.0332
625.43        44.95137
625.86        44.51765
626.29        44.57503
626.72         44.7698
627.15         44.4691
627.58        44.39885
628.01        44.29422
628.44        44.16898
628.87        43.91948
629.30        43.78455
629.73        43.73466
630.16        43.48232
630.59        43.03313
631.02        42.51612
631.45        42.00486
631.88         41.5587
632.31        41.19778
632.74        40.90288
633.17        40.62112
633.60        40.26483
634.03        39.81306
634.46        39.29822
634.89        38.75765
635.32        38.25182
635.75        37.80345
636.18        37.39506
636.61        37.01657
637.04        36.64967
637.47        36.28064
637.89         35.9165
638.32        35.54399
638.75        35.16301
639.18        34.78259
639.61        34.41547
640.04        34.06511
640.47        33.73237
640.90        33.42294
641.33        33.13434
641.76        32.88713
642.18        32.76315
642.61        32.76553
643.04        32.79065
643.47        32.76548
643.90        32.99847
644.33         32.7908
644.76        32.72498
645.18        32.63147
645.61        32.58403
646.04        32.59843
646.47        32.65322
646.90        32.79665
647.33        33.07814
647.75        33.51012
648.18        34.10191
648.61        34.71105
649.04         35.1207
649.47        35.29804
649.89        35.19212
650.32        35.07433
650.75         35.5524
651.18        36.58894
651.61        37.57082
652.03        38.25565
652.46        38.71091
652.89        39.14183
653.32        39.24149
653.74        39.27587
654.17        40.72077
654.60        41.80214
655.03        40.93317
655.46        41.88585
655.88        45.19932
656.31        48.35912
656.74         112.526
657.16        73.17308
657.59        25.73841
658.02        19.44712
658.45        33.92079
658.87        44.49609
659.30         46.6115
659.73        46.06343
660.15        44.93023
660.58        47.21965
661.01        49.00431
661.44        47.76334
661.86        47.53075
662.29        47.78748
662.72        48.52924
663.14        49.61242
663.57        49.75764
664.00         49.1469
664.42        49.17815
664.85        49.91918
665.27         50.4894
665.70        50.70281
666.13        50.77214
666.55        50.67582
666.98        50.35747
667.41         49.9959
667.83        49.91889
668.26        50.19428
668.69         50.6953
669.11        51.21201
669.54        51.63276
669.96        51.40253
670.39        51.08499
670.82        50.71578
671.24        50.48486
671.67        50.56073
672.09        51.07069
672.52        51.75957
672.94        52.46485
673.37        52.19025
673.80        52.05522
674.22        51.90847
674.65        51.84639
675.07        51.89601
675.50        51.89515
675.92        51.87409
676.35        51.98081
676.77        52.21156
677.20        52.49621
677.62        52.78371
678.05        52.91066
678.47        52.83017
678.90         52.9162
679.32          52.688
679.75        52.62882
680.17        52.80179
680.60        53.03689
681.02        53.30888
681.45        53.32026
681.87        53.25143
682.30        53.05244
682.72        52.87947
683.15        52.75952
683.57        52.81643
684.00        53.19727
684.42        53.97056
684.85        54.36727
685.27        54.36562
685.70        54.26227
686.12        54.13178
686.54        54.00757
686.97        53.95154
687.39        53.99682
687.82        54.09519
688.24        54.25443
688.66        54.42039
689.09        54.29581
689.51        54.29149
689.94         54.3098
690.36        54.48185
690.78        54.66749
691.21        54.82443
691.63        54.97615
692.06        55.08263
692.48        55.05917
692.90        54.97852
693.33        55.00779
693.75         55.1889
694.17        55.46539
694.60        55.74775
695.02        55.84884
695.44        55.74405
695.87         55.6824
696.29        55.74018
696.71         55.6651
697.14        55.55413
697.56        55.98845
697.98        56.74649
698.41        56.71817
698.83        56.15077
699.25        55.81725
699.68         55.8503
700.10        55.80629
700.52        55.71074
700.94        55.84125
701.37        56.15533
701.79        56.49801
702.21        56.79592
702.64        57.09206
703.06         57.3191
703.48        57.35746
703.90        57.20885
704.33        56.91955
704.75        56.57603
705.17         56.3933
705.59        56.42863
706.01        56.52912
706.44        56.64677
706.86        57.15243
707.28        57.23958
707.70        57.62921
708.12        57.98825
708.55        57.88671
708.97        57.42523
709.39        57.28578
709.81        57.51471
710.23        57.58936
710.66         57.5028
711.08        57.68389
711.50        57.93012
711.92        58.00673
712.34        57.84785
712.76        57.54556
713.19        57.22963
713.61        57.13372
714.03        57.30236
714.45        57.65725
714.87        58.04282
715.29        58.21786
715.71        58.12492
716.13        57.83989
716.56        57.49937
716.98        57.34726
717.40        57.44308
717.82        57.71487
718.24        58.04821
718.66        58.25149
719.08        58.27061
719.50        58.16491
719.92        58.01854
720.34         57.9795
720.76        58.08655
721.19        58.19348
721.61        58.42262
722.03        58.56578
722.45         58.6443
722.87        58.68127
723.29        58.70087
723.71        58.73515
724.13        58.79289
724.55         58.8583
724.97        58.92054
725.39        58.96759
725.81        58.99417
726.23        59.00804
726.65        59.01222
727.07        59.00636
727.49        58.99835
727.91        58.99848
728.33        59.01054
728.75        59.04166
729.17        59.09045
729.59         59.1424
730.01        59.22107
730.43        59.35599
730.85        59.54806
731.27        59.81033
731.69        60.04943
732.10        60.09824
732.52        59.93295
732.94           59.63
733.36        59.36107
733.78        59.31095
734.20        59.52708
734.62         60.1181
735.04        61.01388
735.46        61.02313
735.88        60.38445
736.30        60.54837
736.72        61.49803
737.13        61.82723
737.55           61.35
737.97        61.28788
738.39        61.62127
738.81         60.9463
739.23        59.68265
739.65        60.27322
740.06        62.30298
740.48        62.58569
740.90        61.18418
741.32        60.63288
741.74        61.14156
742.16        61.44682
742.57        61.56969
742.99        62.18081
743.41        63.08844
743.83        63.61035
744.25        63.63155
744.67        63.32439
745.08        62.89558
745.50        62.68866
745.92        62.81222
746.34        63.15028
746.75        63.56367
747.17        63.81284
747.59        63.85389
748.01        63.76936
748.42        63.69216
748.84        63.84291
749.26        64.27314
749.68        64.79844
750.09        65.30817
750.51         65.8272
750.93        66.21101
751.35        66.01748
751.76        65.40583
752.18        65.16891
752.60        65.31107
753.01        65.21259
753.43        64.93062
753.85        64.97981
754.27         65.3942
754.68         66.0371
755.10        66.71986
755.52          67.102
755.93        67.15958
756.35        67.24521
756.77        67.48365
757.18        67.57684
757.60        67.54876
758.02        68.08973
758.43        68.83869
758.85        68.12465
759.26        66.47474
759.68         66.1873
760.10        67.20644
760.51         68.0389
760.93        68.27175
761.34          67.086
761.76        66.62122
762.18        65.76833
762.59        65.37738
763.01        65.63492
763.42        66.49682
763.84        67.15879
764.26        67.44724
764.67        67.67567
765.09        67.78375
765.50        67.62415
765.92        67.21777
766.33        66.31685
766.75        65.29575
767.16        65.09775
767.58        65.81506
768.00        67.04499
768.41        68.48789
768.83        69.57504
769.24         69.8495
769.66        69.17696
770.07        67.97614
770.49        66.51888
770.90        65.28644
771.32        66.10705
771.73        68.35749
772.15        68.13158
772.56        65.77051
772.97        65.28976
773.39        66.64986
773.80        67.09989
774.22        66.47839
774.63        66.42791
775.05        66.90353
775.46        67.14829
775.88        67.07116
776.29        66.88564
776.70        66.67148
777.12        66.58064
777.53        66.66624
777.95        66.84229
778.36        66.99083
778.77        66.91241
779.19        66.60625
779.60        66.14014
780.02        65.72677
780.43        65.74773
780.84        66.30592
781.26        66.96674
781.67        67.59458
782.09        68.58584
782.50        69.50198
782.91        68.67313
783.33         66.7094
783.74        66.00919
784.15         66.7152
784.57        67.34489
784.98        67.57674
785.39        67.47247
785.81         67.0439
786.22        66.56397
786.63        66.28992
787.04        66.32959
787.46         66.7277
787.87        67.55547
788.28        68.50801
788.70        68.94611
789.11        68.74536
789.52        68.13124
789.93        67.38872
790.35        66.92059
790.76        66.83842
791.17        67.04503
791.58        67.42363
792.00        67.72056
792.41        67.77489
792.82        67.87875
793.23        67.64191
793.65        67.40277
794.06        67.26582
794.47        68.32645
794.88        69.85839
795.29        69.65788
795.71        67.40649
796.12        65.45656
796.53        64.28677
796.94        63.95364
797.35        64.56134
797.76        65.84216
798.18        67.20563
798.59        68.12941
799.00        68.29849
799.41        67.24125
799.82        66.12453
800.23        65.29614
800.64        65.18526
801.06        65.42812
801.47        65.90962
801.88        66.33722
802.29        66.57455
802.70        66.74499
803.11        66.85957
803.52        66.90602
803.93        66.91542
804.34        66.84914
804.75        66.74582
805.17        66.83704
805.58        67.20301
805.99        67.33028
806.40        67.18861
806.81        67.87719
807.22        68.82661
807.63         67.4901
808.04        64.59843
808.45         63.4875
808.86        64.42135
809.27        65.69893
809.68        66.78778
810.09        67.46259
810.50        67.45663
810.91        66.86278
811.32        65.99757
811.73        65.37748
812.14        65.16121
812.55        65.16817
812.96        65.36317
813.37        65.66694
813.78        66.01148
814.19        66.49132
814.60         66.8764
815.01        66.78741
815.42        66.18715
815.83        65.13197
816.24        64.07407
816.65        63.82127
817.05        64.59416
817.46        66.13247
817.87        67.81249
818.28        68.52426
818.69        67.97096
819.10        66.43793
819.51        64.63222
819.92        63.75296
820.33        64.12077
820.74        65.37811
821.14        66.87979
821.55        67.47678
821.96        66.91761
822.37         65.6151
822.78         64.1391
823.19        63.32222
823.60         63.3894
824.00        64.09943
824.41        65.09595
824.82        65.85403
825.23        66.12452
825.64        66.08398
826.04        65.84447
826.45        65.55445
826.86        65.28131
827.27        64.94131
827.68        64.57798
828.08        64.31937
828.49        64.15573
828.90        64.14413
829.31        64.21472
829.72        64.20252
830.12        64.09514
830.53        63.91426
830.94        63.81017
831.35        63.98965
831.75        64.51631
832.16        65.25117
832.57        66.05254
832.97         66.6094
833.38        66.75378
833.79         66.5731
834.20        66.21155
834.60        65.88638
835.01        65.69759
835.42        65.58805
835.82        65.49942
836.23        65.26616
836.64        64.89944
837.04        64.48482
837.45         64.1506
837.86        64.09481
838.26        64.35378
838.67        64.81628
839.08        65.34885
839.48        65.71194
839.89        65.78907
840.29        65.65386
840.70        65.34144
841.11        64.90069
841.51        64.38671
841.92        63.78309
842.33          63.214
842.73        62.88832
843.14         62.8279
843.54        63.03115
843.95        63.33532
844.35        63.50632
844.76        63.46516
845.17        63.28583
845.57        63.08783
845.98        63.06946
846.38        63.27245
846.79        63.59186
847.19        63.95454
847.60        64.16647
848.00        64.19772
848.41        64.09489
848.81         63.9164
849.22        63.66424
849.62        63.41295
850.03        63.17307
850.43        63.05123
850.84         63.1912
851.24        63.64201
851.65        64.19582
852.05        64.86782
852.46        65.51556
852.86        66.06627
853.27        66.58011
853.67        66.65902
854.07        65.81155
854.48        64.12029
854.88        61.79215
855.29         59.6114
855.69        58.71543
856.10        59.32224
856.50        61.28284
856.90        63.91104
857.31        65.57162
857.71        65.70134
858.12        64.67708
858.52        63.20354
858.92        62.20522
859.33        61.90968
859.73        62.05438
860.13         62.4986
860.54        62.97152
860.94        63.39439
861.34        63.85762
861.75         64.3422
862.15        64.87757
862.55         65.4213
862.96        65.92467
863.36         66.3284
863.76        66.54497
864.17        66.55303
864.57        66.42155
864.97        66.28149
865.38        66.32543
865.78        66.63742
866.18         67.0944
866.58        67.55649
866.99        67.77925
867.39        67.72401
867.79        67.47336
868.19          67.021
868.60        66.35843
869.00        65.54928
869.40        64.65849
869.80         64.0367
870.21        64.18896
870.61        65.27016
871.01        67.11099
871.41        69.21349
871.81        70.70234
872.22        71.33034
872.62        71.28713
873.02        70.90317
873.42        71.06595
873.82        71.66418
874.22        71.76212
874.63        71.46531
875.03        71.20513
875.43        71.02957
875.83        72.39201
876.23        71.27415
876.63        70.29264
877.03        68.75941
877.44        66.63239
877.84        110.7365
878.24        71.09286
878.64        73.41201
879.04         77.9277
879.44        72.25735
879.84        69.35342
880.24        76.58506
880.64        78.46272
881.04        76.59962
881.44        74.86427
881.84        73.89256
882.24        73.25461
882.65         73.2162
883.05        73.52554
883.45        74.13129
883.85        75.58157
884.25        77.42889
884.65        78.38882
885.05        78.13871
885.45        77.04906
885.85        75.74656
886.25        75.13165
886.65        75.40267
887.05         76.2875
887.45        77.43204
887.85        78.19874
888.25        78.35219
888.65        78.10075
889.04         77.6714
889.44        77.44833
889.84        77.51202
890.24        77.69444
890.64        77.86274
891.04        77.84657
891.44        77.59724
891.84        77.21287
892.24         76.7422
892.64        76.24502
893.04        75.82237
893.44        75.52822
893.83        75.41798
894.23        75.56805
894.63        75.95602
895.03        76.46432
895.43        77.13487
895.83        78.01646
896.23          79.019
896.63        80.11887
897.02          80.798
897.42        80.25787
897.82        78.47773
898.22        75.82611
898.62        73.25976
899.01        72.16967
899.41        72.80626
899.81        74.66086
900.21         76.9765
900.61        78.51323
901.00        78.87299
901.40        78.43138
901.80        77.50528
902.20        76.58924
902.59        75.88371
902.99         75.2243
903.39        74.65103
903.79        74.26834
904.18        74.11703
904.58        74.30594
904.98        74.75554
905.38        75.29214
905.77         75.8241
906.17        76.28651
906.57         76.7319
906.96        77.32383
907.36        77.96831
907.76        78.59669
908.15        78.94183
908.55        78.46934
908.95        77.18676
909.34        75.32217
909.74        73.39289
910.14        72.00918
910.53        71.38929
910.93        71.41067
911.33        72.04903
911.72        73.22394
912.12        74.62696
912.52        76.10834
912.91        77.35841
913.31        77.98522
913.70        78.00671
914.10        77.49232
914.49        76.44658
914.89        75.15652
915.29        73.95781
915.68        72.85958
916.08        72.30151
916.47        72.59567
916.87        73.66717
917.26         75.4345
917.66        77.19843
918.05        77.80382
918.45        76.97942
918.84        75.11509
919.24        73.03763
919.64        71.97824
920.03        72.26706
920.42        73.54955
920.82         75.3014
921.21         76.6881
921.61         77.2196
922.00         77.1786
922.40        76.67204
922.79        75.93429
923.19        75.19562
923.58        74.06844
923.98        72.48325
924.37        71.60241
924.77        72.03288
925.16        67.98137
925.55        70.19772
925.95        70.60294
926.34        72.37325
926.74        74.82192
927.13        77.36312
927.52        78.63966
927.92        78.39155
928.31        77.09463
928.70        75.18929
929.10        73.48061
929.49        72.21812
929.89        71.20164
930.28        70.70013
930.67        71.17548
931.07        72.51102
931.46         74.6828
931.85        76.73647
932.24        77.20832
932.64        75.84142
933.03        72.81688
933.42        69.09394
933.82        66.78558
934.21        66.49844
934.60        67.65394
934.99        69.00839
935.39        69.44139
935.78         68.7923
936.17        66.34367
936.56        61.93961
936.96        64.22523
937.35        62.53226
937.74        65.08776
938.13        67.40088
938.53        69.14672
938.92        70.41877
939.31        71.56666
939.70        72.52149
940.09        72.67809
940.49        71.95377
940.88        70.61787
941.27        69.22529
941.66        68.44678
942.05        68.35736
942.44        68.73911
942.84        69.45699
943.23        70.29967
943.62        71.05587
944.01        71.78291
944.40        72.20524
944.79        71.88647
945.18        70.73255
945.57        68.73483
945.97          66.409
946.36        65.00122
946.75        65.09185
947.14        66.20161
947.53         67.5835
947.92        68.46893
948.31        68.78355
948.70        68.80344
949.09        68.63304
949.48        68.48355
949.87         68.4504
950.26        68.34531
950.65        68.29507
951.04        68.54536
951.43        69.09753
951.82        69.93925
952.21        70.59533
952.60        70.27859
952.99         68.8819
953.38         66.6646
953.77        64.40208
954.16        63.22369
954.55        63.35861
954.94        64.57251
955.33        66.04547
955.72         66.3812
956.11        65.24516
956.50        62.98595
956.89        60.70016
957.28        60.40189
957.66        62.66059
958.05        66.54253
958.44        70.62007
958.83        72.80259
959.22         72.5954
959.61        70.63386
960.00        67.81799
960.39        65.62222
960.78        64.55769
961.16        64.20959
961.55        64.23372
961.94         64.0228
962.33        63.40307
962.72        62.72191
963.11        62.13643
963.49        61.75806
963.88        61.59401
964.27        61.54433
964.66        61.61198
965.04        61.87642
965.43        62.25237
965.82        62.73188
966.21        63.21067
966.60        63.58318
966.98        63.86892
967.37        64.03873
967.76        64.16345
968.15        64.35548
968.53        64.60386
968.92        64.76889
969.31        64.79111
969.69        64.55861
970.08        64.05814
970.47        63.39454
970.86        62.50856
971.24        61.28979
971.63        59.82109
972.02        58.15846
972.40        56.73466
972.79        56.33685
973.17        57.23002
973.56        59.16508
973.95        61.54777
974.33         63.1708
974.72        63.46434
975.11        62.67932
975.49        61.41258
975.88        60.53347
976.26        60.19868
976.65        60.25545
977.04        60.15991
977.42        58.81746
977.81        56.16447
978.19        52.81919
978.58         50.3603
978.96         50.2977
979.35        52.81784
979.74        57.70512
980.12         63.8633
980.51        67.67418
980.89        67.89471
981.28        65.40561
981.66        62.08351
982.05         60.3364
982.43         60.5544
982.82         61.8427
983.20         63.5747
983.59        64.86033
983.97        65.47685
984.35        65.77491
984.74        65.58611
985.12        64.78479
985.51        63.30775
985.89        60.98507
986.28        58.48635
986.66        56.68846
987.04        55.98389
987.43        56.19411
987.81        56.44179
988.20        55.42231
988.58        52.58913
988.96        47.30564
989.35         40.0419
989.73        35.05054
990.12        36.41764
990.50        43.00551
990.88        49.76978
991.27        52.22369
991.65        50.84694
992.03        46.85838
992.42        42.78777
992.80        42.80472
993.18        47.63061
993.56        54.56392
993.95        61.09941
994.33        65.18981
994.71        66.48167
995.10        66.15066
995.48        64.63059
995.86        62.28623
996.24        59.36218
996.63         55.4456
997.01        51.37031
997.39        50.02303
997.77        52.53024
998.15         58.3036
998.54        64.30859
998.92        66.39581
999.30        63.34734
999.68        56.18497
1000.06        46.77095
1000.45        39.83235
1000.83        37.41068
1001.21        38.06893
1001.59        40.53082
1001.97        43.49132
1002.35        46.51905
1002.73        50.40437
1003.12        54.16335
1003.50         54.2327
1003.88        49.47104
1004.26        41.91061
1004.64        34.50898
1005.02          29.341
1005.40         26.1697
1005.78        23.94489
1006.16        24.36981
1006.54        31.15466
1006.92        41.48902
1007.30        50.54511
1007.69        55.68564
1008.07        56.86435
1008.45        54.23652
1008.83        45.49895
1009.21        21.34733
1009.59       -42.23445
1009.97       -175.4213
1010.35       -303.4019
1010.73       -221.4385
1011.11       -108.4873
1011.49       -41.61794
1011.86       0.9244606
1012.24        23.81306
1012.62        33.70359
1013.00        36.02512
1013.38        32.72814
1013.76        25.36062
1014.14        20.34285
1014.52         23.1918
1014.90        34.88241
1015.28        50.84332
1015.66         55.4679
1016.04        40.62725
1016.41        13.12749
1016.79       -10.85089
1017.17        -18.1381
1017.55       -12.90124
1017.93       -4.286157
1018.31        3.681127
1018.69        9.754403
1019.06        14.38897
1019.44        17.98074
1019.82        21.18204
1020.20        23.27658
1020.58        21.17482
1020.95         9.65568
1021.33       -51.63945
1021.71        1306.907
1022.09        242.9327
1022.46        195.9483
1022.84        189.5153
1023.22        204.1284
1023.60        258.4652
1023.97        826.6781
1024.35       -139.0861
1024.73       -28.65714
