SpectraSmart Spectrum 2.9.0.0
--------- Device Information -----------
Spectrum Name :  反射率_0
Saving Time :  2024/04/25 23:35:39
Spectro-Module Model Name : SE2030-DUVN
Spectro-Module Serial Number : OS361AC55029948
Wavelength Start : 200
Wavelength End : 1025
Wavelength Unit : Wavelength(nm)
Spectrum Unit : Reflectance(%)
-----------Spectrum Setting ------------
Integration Time : 20ms
Average : 10
Boxcar : 0
Background removal :  enabled
linearity correction :  enabled
SC :  disabled
Intensity correction :  disabled
DWT denoise :  enabled
savitzky-golay :  disabled
FFT :  disabled
Running average :  disabled
Kalman :  disabled
High pass :  disabled
---------------BEGIN--------------------
Wavelength(nm)             Reflectance(%)
200.29               0
200.75        87.49424
201.21        77.94461
201.67        67.43783
202.13        61.70157
202.58        61.37618
203.04        65.12598
203.50        70.81859
203.96        74.56295
204.42        75.17503
204.88        74.04294
205.34        72.73417
205.80        72.96674
206.26         75.5279
206.72        81.59588
207.18        93.16853
207.64        102.0968
208.10        93.15054
208.55        78.03635
209.01        68.88361
209.47        65.77926
209.93        66.08901
210.39        68.72612
210.85        71.94312
211.31        72.14825
211.77         68.4204
212.23        62.21002
212.69        56.71744
213.14        56.94722
213.60         63.4879
214.06        74.79234
214.52        87.17914
214.98        95.10583
215.44        96.99548
215.90        94.46586
216.36        89.90067
216.81        86.52298
217.27        85.56664
217.73        86.11625
218.19        86.45456
218.65        84.24756
219.11        78.53813
219.57        68.45174
220.02        55.88634
220.48        50.07748
220.94        55.60263
221.40        69.52177
221.86        81.48391
222.32        81.08584
222.77        70.23683
223.23         55.3569
223.69        42.97634
224.15        39.71766
224.61        44.82052
225.06        54.82067
225.52        65.33746
225.98        70.67473
226.44        69.69357
226.90        64.72163
227.36        58.55456
227.81        54.94117
228.27        55.04693
228.73        57.32859
229.19        60.36718
229.65        62.17239
230.10          62.291
230.56        61.67678
231.02        61.05303
231.48        61.17769
231.93        62.06936
232.39        63.35935
232.85        64.60227
233.31        65.25814
233.77        65.14008
234.22         64.3988
234.68        63.20439
235.14        61.91431
235.60         60.7744
236.05        59.81993
236.51        58.93144
236.97        57.77885
237.43        56.23867
237.88        54.37297
238.34        52.52412
238.80        51.96859
239.26        53.31137
239.71         56.3765
240.17        59.95168
240.63        62.31714
241.08        62.96755
241.54        62.29649
242.00        60.95271
242.46         59.7481
242.91        58.96719
243.37        57.74796
243.83        57.18894
244.28         70.6954
244.74         113.202
245.20        124.1825
245.66        117.4303
246.11        114.4043
246.57        114.7329
247.03         117.506
247.48        115.6014
247.94        77.31471
248.40        69.83408
248.85        72.09231
249.31        74.97919
249.77          78.183
250.22        82.47445
250.68        89.20554
251.14        98.47709
251.59        104.6293
252.05        101.8949
252.51        92.62364
252.96        82.15861
253.42        75.93018
253.88        73.48939
254.33        73.00539
254.79        74.26711
255.25        76.41222
255.70        78.61594
256.16        81.03896
256.62        82.29973
257.07        80.92876
257.53        77.64039
257.99           72.88
258.44        68.12181
258.90        65.96489
259.35        65.59985
259.81        66.11311
260.27        65.84785
260.72        63.21851
261.18        58.92634
261.63        53.66761
262.09        48.95588
262.55        45.87549
263.00        44.36789
263.46        43.97289
263.91        43.77961
264.37        43.09551
264.83         41.7646
265.28        39.93668
265.74        38.26579
266.19         37.4611
266.65        37.65395
267.11        38.38162
267.56        38.95729
268.02        38.59937
268.47        37.20953
268.93        35.09403
269.38        32.74074
269.84          31.229
270.30        30.87038
270.75        31.36677
271.21        32.17861
271.66        32.48738
272.12        32.07347
272.57        31.19421
273.03        30.23714
273.48        29.69397
273.94        29.69745
274.39         30.0032
274.85        30.33032
275.31         30.2756
275.76        29.75015
276.22        28.94605
276.67        28.06844
277.13        27.49932
277.58        27.26106
278.04        27.25113
278.49        27.25135
278.95        27.02608
279.40        26.50123
279.86        25.83081
280.31         25.1087
280.77        24.58163
281.22        24.26343
281.68         24.1041
282.13         24.0137
282.59        23.90867
283.04          23.749
283.50        23.58784
283.95        23.41644
284.41        23.24085
284.86        23.05379
285.32        22.85704
285.77        22.66946
286.22        22.58627
286.68        22.59614
287.13         22.6494
287.59          22.658
288.04         22.4811
288.50         22.1233
288.95        21.62276
289.41        21.09179
289.86        20.59496
290.32        20.21677
290.77        19.92621
291.22        19.75963
291.68        19.73201
292.13        19.83778
292.59        20.06263
293.04        20.37436
293.50        20.72291
293.95        21.06973
294.40        21.39543
294.86        21.66448
295.31        21.83827
295.77         21.9194
296.22        21.92377
296.68        21.89013
297.13        21.85663
297.58        21.86392
298.04        21.92883
298.49        22.07275
298.95         22.3545
299.40        22.76348
299.85        23.27034
300.31        23.81287
300.76        24.30719
301.21        24.70318
301.67        25.03202
302.12        25.25546
302.58        25.36977
303.03         25.3737
303.48         25.2867
303.94        25.21574
304.39        25.29417
304.84        25.54838
305.30         25.9285
305.75        26.30002
306.20        26.46081
306.66        26.39076
307.11        26.15215
307.57        25.87239
308.02        25.67426
308.47        25.61916
308.93        25.65696
309.38        25.76313
309.83        25.92918
310.29        26.12139
310.74        26.33349
311.19        26.50236
311.65        26.52826
312.10        26.39581
312.55         26.1357
313.00         25.8038
313.46        25.50736
313.91        25.27851
314.36        25.10724
314.82        25.00605
315.27        24.97875
315.72         25.0198
316.18        25.12467
316.63        25.24906
317.08        25.29633
317.53         25.2403
317.99        25.09329
318.44        24.91586
318.89        24.81139
319.35        24.79783
319.80        24.85054
320.25         24.8947
320.70        24.80887
321.16        24.56954
321.61        24.21824
322.06        23.84247
322.51        23.57179
322.97        23.42891
323.42        23.38563
323.87        23.36179
324.32        23.22585
324.78        22.94672
325.23        22.57105
325.68        22.18292
326.13        21.91854
326.59        21.80962
327.04        21.83301
327.49        21.90875
327.94        21.90596
328.39         21.7891
328.85        21.58616
329.30        21.39594
329.75        21.35697
330.20        21.50049
330.66        21.75621
331.11        22.04155
331.56        22.18337
332.01        22.13267
332.46        21.93042
332.92        21.64436
333.37        21.42159
333.82        21.31495
334.27        21.30201
334.72        21.33531
335.17        21.33218
335.63        21.26466
336.08        21.15798
336.53        21.07501
336.98        21.11558
337.43        21.29199
337.88        21.57168
338.34        21.81653
338.79        21.85071
339.24        21.61884
339.69        21.17768
340.14        20.71256
340.59        20.54399
341.05        20.73491
341.50         21.1811
341.95        21.68437
342.40        21.95315
342.85        21.92222
343.30        21.69528
343.75         21.3665
344.20        21.10464
344.66        20.97079
345.11        20.87072
345.56        20.82566
346.01         20.8674
346.46        20.97572
346.91        21.16826
347.36        21.28541
347.81        21.06454
348.26        20.49338
348.72        19.68948
349.17        18.90335
349.62        18.63089
350.07        18.97397
350.52        19.75662
350.97        20.69026
351.42        21.33144
351.87        21.55194
352.32        21.47994
352.77        21.22143
353.22        20.95165
353.67        20.74149
354.13        20.53502
354.58         20.3383
355.03        20.20563
355.48        20.14204
355.93        20.16245
356.38         20.2051
356.83         20.1517
357.28        19.97699
357.73        19.70574
358.18        19.41763
358.63         19.2429
359.08        19.20996
359.53        19.28382
359.98        19.37145
360.43        19.32819
360.88        19.12781
361.33        18.81632
361.78        18.50588
362.23         18.3776
362.68        18.46067
363.13        18.67851
363.58        18.90642
364.03        18.95316
364.48        18.77437
364.93        18.44492
365.38         18.0372
365.83        17.66565
366.28        17.38051
366.73         17.1481
367.18         16.9955
367.63        16.96744
368.08        17.05265
368.53        17.23391
368.98        17.42343
369.43        17.47729
369.88        17.36795
370.33        17.14026
370.78        16.86013
371.23        16.64753
371.68         16.5449
372.13        16.51074
372.58        16.54857
373.03        16.66077
373.48        16.82379
373.93        17.03361
374.38        17.20717
374.83        17.21414
375.28        17.03661
375.72        16.70292
376.17        16.33674
376.62        16.10356
377.07        16.05234
377.52        16.13315
377.97        16.28071
378.42        16.38472
378.87         16.4064
379.32        16.38067
379.77         16.3231
380.22        16.25315
380.67        16.18018
381.11         16.0935
381.56        15.99515
382.01        15.90296
382.46        15.82092
382.91        15.74647
383.36        15.67895
383.81        15.61201
384.26        15.54483
384.71        15.48587
385.15        15.41644
385.60        15.31748
386.05        15.18062
386.50        15.00172
386.95        14.82732
387.40        14.73956
387.85        14.75395
388.29        14.84625
388.74         14.9348
389.19        14.89316
389.64         14.7099
390.09        14.41812
390.54        14.13493
390.98        14.05684
391.43        14.22941
391.88        14.57165
392.33        14.92768
392.78        15.06994
393.23        14.96395
393.67        14.68524
394.12        14.38663
394.57        14.22869
395.02        14.24749
395.47         14.3854
395.91        14.56943
396.36        14.65176
396.81        14.59116
397.26        14.42739
397.71        14.22812
398.15        14.07494
398.60        14.01033
399.05        14.00981
399.50        14.01228
399.95         13.8934
400.39        13.70169
400.84        13.42529
401.29        13.17318
401.74        13.11415
402.18        13.29468
402.63        13.63674
403.08        14.01615
403.53        14.23524
403.97        14.24073
404.42        14.09055
404.87         13.8601
405.32        13.68388
405.76        13.60824
406.21        13.59472
406.66         13.6156
407.11        13.63697
407.55        13.64932
408.00        13.66532
408.45        13.67898
408.90        13.66498
409.34        13.61831
409.79        13.54241
410.24        13.46553
410.68        13.42966
411.13        13.44591
411.58        13.50862
412.03        13.58609
412.47        13.62369
412.92        13.59904
413.37         13.5279
413.81        13.45965
414.26        13.48527
414.71        13.60914
415.15        13.80226
415.60        13.97704
416.05        14.01386
416.49        13.88552
416.94        13.64279
417.39        13.35781
417.83         13.1553
418.28        13.08417
418.73        13.10097
419.17        13.17667
419.62        13.25623
420.07         13.3208
420.51        13.38929
420.96         13.4397
421.41         13.4287
421.85        13.34853
422.30         13.2254
422.74        13.09892
423.19        13.06202
423.64        13.11718
424.08        13.24673
424.53        13.39151
424.98        13.47301
425.42        13.47212
425.87         13.4077
426.31        13.30781
426.76        13.25833
427.21        13.25494
427.65        13.18119
428.10        13.10336
428.54        13.20625
428.99        13.49392
429.44        13.88783
429.88        14.21382
430.33        14.24411
430.77        13.95181
431.22        13.41698
431.66        12.86325
432.11        12.67572
432.56        12.89518
433.00        13.34687
433.45        13.82489
433.89         14.1314
434.34        14.13597
434.78        13.77765
435.23        13.32343
435.67        13.27101
436.12         13.5906
436.57        13.78753
437.01        13.76734
437.46        13.72068
437.90        13.65776
438.35        13.53227
438.79        13.37853
439.24        13.28508
439.68        13.27642
440.13         13.2701
440.57         13.2758
441.02         13.4889
441.46         13.7936
441.91        13.71088
442.35        13.31683
442.80        13.13035
443.24        13.13478
443.69        13.13246
444.13         13.0754
444.58        12.89438
445.02        12.64828
445.47         12.6179
445.91        12.76022
446.36        12.77501
446.80        12.64177
447.24        12.53222
447.69        12.48051
448.13        12.45305
448.58        12.46145
449.02        12.51106
449.47        12.56891
449.91        12.58078
450.36        12.53864
450.80        12.45226
451.25           12.37
451.69        12.35738
452.13        12.42828
452.58         12.5491
453.02        12.67385
453.47        12.72604
453.91        12.69313
454.36        12.60582
454.80        12.49297
455.24         12.4036
455.69        12.36345
456.13        12.34801
456.58        12.37686
457.02        12.46013
457.46        12.59721
457.91        12.77833
458.35        12.95303
458.79        13.03187
459.24        13.00773
459.68        12.89206
460.13        12.76394
460.57        12.71222
461.01        12.77151
461.46        12.90662
461.90        13.06044
462.34        13.13055
462.79        13.09213
463.23         12.9718
463.68        12.84136
464.12        12.82079
464.56        12.93922
465.01        13.15931
465.45        13.37087
465.89        13.46207
466.34        13.42275
466.78        13.21896
467.22        12.97263
467.67        13.01094
468.11        13.30105
468.55        13.43877
468.99        13.38384
469.44        13.34483
469.88        13.36902
470.32         13.5048
470.77        13.69548
471.21        13.74882
471.65        13.64365
472.10        13.52268
472.54          13.443
472.98        13.45534
473.42        13.57663
473.87        13.78975
474.31        14.02017
474.75         14.1452
475.20        14.14231
475.64        14.04283
476.08         13.9133
476.52        13.85612
476.97        13.89886
477.41        14.01498
477.85        14.15284
478.29        14.25615
478.74        14.30856
479.18        14.25775
479.62        14.15341
480.06        14.31078
480.50        14.44481
480.95        14.58054
481.39         14.5867
481.83        14.56356
482.27        14.51116
482.72         14.3233
483.16         14.0882
483.60        14.12675
484.04        14.44718
484.48        14.64843
484.93        14.88625
485.37        15.25706
485.81        15.70319
486.25        15.98156
486.69        21.04416
487.14         16.8922
487.58        10.97006
488.02         13.3343
488.46        15.41709
488.90        15.47438
489.34        15.52659
489.79        15.34466
490.23         16.0915
490.67        16.53496
491.11        16.47022
491.55        16.38182
491.99        16.23611
492.43         16.0923
492.88        16.01624
493.32        16.06897
493.76        16.14293
494.20        16.34515
494.64        16.62296
495.08         16.9451
495.52        17.27567
495.96        17.58345
496.41        17.80686
496.85         17.9289
497.29        17.96616
497.73        17.77308
498.17        17.57002
498.61        17.78889
499.05        18.41378
499.49        18.54923
499.93        18.63167
500.37        18.70066
500.82        18.72682
501.26        18.93097
501.70        19.22351
502.14        19.43249
502.58        19.51553
503.02        19.59286
503.46        19.66095
503.90        19.63068
504.34        19.53679
504.78        19.48359
505.22        19.49289
505.66        19.54496
506.10        19.61729
506.54        19.66978
506.98        19.69368
507.42        19.70428
507.86        19.73833
508.30        19.85001
508.74        20.04259
509.18        20.28871
509.62        20.53283
510.06        20.68585
510.50        20.72808
510.94        20.69508
511.38        20.62666
511.82        20.58655
512.26        20.59732
512.70        20.63368
513.14        20.70515
513.58        20.82656
514.02        20.97894
514.46         21.1517
514.90        21.28627
515.34        21.25355
515.78        21.01091
516.22        20.75558
516.66        20.58056
517.10        20.18593
517.54        19.60262
517.98        20.43355
518.42        20.28686
518.86        20.66417
519.30        20.82982
519.74        21.01694
520.18        21.18404
520.62        21.23527
521.06        21.18813
521.50        21.04614
521.93        20.86309
522.37        20.74159
522.81        20.70837
523.25        20.73752
523.69         20.8035
524.13        20.86312
524.57        20.89773
525.01        20.91928
525.45        20.91935
525.89        20.88317
526.32         20.8094
526.76        20.70306
527.20        20.57988
527.64        20.47482
528.08        20.40217
528.52        20.33609
528.96        20.26823
529.40        20.23907
529.83        20.25669
530.27        20.10498
530.71        20.16925
531.15        20.10975
531.59        20.04467
532.03        19.96446
532.46        19.90784
532.90        19.93943
533.34        20.05551
533.78        20.22861
534.22        20.38953
534.66        20.43709
535.09        20.34832
535.53        20.16674
535.97        19.94359
536.41        19.76506
536.85        19.66415
537.28        19.62323
537.72        19.63065
538.16        19.66636
538.60        19.71945
539.04        19.77897
539.47        19.84787
539.91        19.97912
540.35        20.14892
540.79        20.26891
541.22        20.32746
541.66         20.3904
542.10        20.45801
542.54         20.4806
542.97         20.4957
543.41        20.59769
543.85        20.79378
544.29        21.06853
544.72        21.34209
545.16        21.49698
545.60         21.5116
546.04        21.41822
546.47        21.33026
546.91        21.43773
547.35         21.7639
547.79        22.24914
548.22        22.74208
548.66        22.98631
549.10        22.94507
549.53        22.73746
549.97        22.51219
550.41        22.43933
550.84        22.57482
551.28        22.87509
551.72        23.26905
552.15        23.62615
552.59        23.89182
553.03        24.10143
553.46        24.25937
553.90        24.39168
554.34        24.51485
554.77        24.58916
555.21        24.62514
555.65        24.71938
556.08        24.89092
556.52         24.8148
556.96        25.05961
557.39        25.13671
557.83        25.22119
558.27        25.29512
558.70        25.37609
559.14        25.47611
559.57        25.58569
560.01        25.71183
560.45        25.81792
560.88        25.84587
561.32         25.8122
561.75         25.7262
562.19        25.65334
562.63        25.65768
563.06        25.74851
563.50        25.90526
563.93        26.09501
564.37        26.27768
564.80        26.42697
565.24        26.56626
565.68        26.67724
566.11        26.73454
566.55        26.76167
566.98        26.75909
567.42        26.78805
567.85        26.93751
568.29        27.23288
568.72        27.56726
569.16        27.92814
569.60        28.32726
570.03        28.61129
570.47        28.62633
570.90        28.55682
571.34         27.8764
571.77        28.48513
572.21        28.56255
572.64        28.70049
573.08        28.30533
573.51        27.52313
573.95         28.7064
574.38        30.45891
574.82        29.79941
575.25        29.66823
575.69        28.69498
576.12        28.24843
576.56        28.09118
576.99        28.61329
577.42         30.1279
577.86        29.99026
578.29        29.77714
578.73        31.11717
579.16        28.59192
579.60        26.23828
580.03        27.40549
580.47        29.06165
580.90        29.84197
581.33        29.31687
581.77         28.7619
582.20        31.43419
582.64        30.92625
583.07        26.48798
583.51        25.91739
583.94        25.34797
584.37        26.34183
584.81        27.52377
585.24        28.87766
585.68        29.50124
586.11        28.96316
586.54        26.75115
586.98        26.05108
587.41        26.32733
587.85        27.64919
588.28        28.09346
588.71        26.92325
589.15        26.02733
589.58        26.41711
590.01        26.74824
590.45        27.27457
590.88           27.27
591.31        26.95162
591.75        26.86342
592.18        26.99351
592.61        27.67013
593.05         28.0271
593.48        29.39575
593.91        29.57061
594.35         27.1256
594.78        26.68765
595.21        26.82827
595.65        28.11878
596.08        29.08953
596.51        28.00582
596.94        27.49777
597.38        27.99307
597.81        29.30543
598.24        30.10463
598.68        29.90056
599.11        29.63244
599.54         31.3256
599.97        32.04199
600.41        30.51628
600.84        30.89585
601.27         31.7541
601.70           31.62
602.14         31.8054
602.57        31.75087
603.00        32.51131
603.43        33.71088
603.87        34.88075
604.30        35.02297
604.73        34.34319
605.16        34.21012
605.60        35.22338
606.03        36.20098
606.46        36.89975
606.89        37.29015
607.32        36.72178
607.76        36.88843
608.19        38.45241
608.62        38.14775
609.05        37.75066
609.48        38.33771
609.92        38.63775
610.35        38.90873
610.78         40.6164
611.21        41.12167
611.64        39.85596
612.07        40.48991
612.50        41.02475
612.94         41.5573
613.37        41.51735
613.80        42.02073
614.23        42.57366
614.66        42.86514
615.09        43.32702
615.52        43.60367
615.96         43.7932
616.39        44.07359
616.82        43.69407
617.25         43.9761
617.68        44.61768
618.11        45.25672
618.54        45.69942
618.97        45.64794
619.40        45.31938
619.84        45.53939
620.27        46.25653
620.70        46.74479
621.13         46.9292
621.56        46.70544
621.99        46.22719
622.42        47.12998
622.85        48.28304
623.28         48.1314
623.71        47.72696
624.14        47.85825
624.57        47.58916
625.00        47.46315
625.43        47.59282
625.86        47.24546
626.29        47.43643
626.72        47.54655
627.15        47.32001
627.58        47.18008
628.01        47.00499
628.44        46.90743
628.87        46.76535
629.30        46.76717
629.73        46.78724
630.16        46.59814
630.59        46.17199
631.02        45.62633
631.45        45.05389
631.88        44.54045
632.31        44.11552
632.74        43.84021
633.17        43.50905
633.60        43.18055
634.03        42.78407
634.46        42.35106
634.89        41.89593
635.32        41.44186
635.75         41.0025
636.18        40.57057
636.61        40.15083
637.04         39.7378
637.47         39.3072
637.89        38.92628
638.32        38.60818
638.75        38.17642
639.18        37.58989
639.61        37.75102
640.04        37.09998
640.47        36.84444
640.90        36.52329
641.33        36.18005
641.76        35.83105
642.18        35.58873
642.61        35.48339
643.04        35.39183
643.47        35.25421
643.90        35.42705
644.33        35.16388
644.76        35.08134
645.18        34.99354
645.61        34.96921
646.04        35.01395
646.47        35.10196
646.90        35.25638
647.33        35.48596
647.75        35.79868
648.18        36.22187
648.61        36.64446
649.04         36.8941
649.47        36.95278
649.89        36.77881
650.32        36.63487
650.75        37.04629
651.18        37.98187
651.61        38.98557
652.03        39.74508
652.46        40.09887
652.89        40.35714
653.32        40.33661
653.74        40.18068
654.17        42.25818
654.60        42.80044
655.03        41.33518
655.46        43.20074
655.88        45.99942
656.31        49.43645
656.74        112.2639
657.16        72.84171
657.59        25.48603
658.02        19.57644
658.45        34.71287
658.87        44.62564
659.30        47.41132
659.73        47.02108
660.15        45.81253
660.58        47.82751
661.01        49.45263
661.44        48.31038
661.86        47.96954
662.29        47.99935
662.72        48.86285
663.14         50.3712
663.57        50.72882
664.00        50.07755
664.42        50.16751
664.85        51.06577
665.27        51.67547
665.70        51.83897
666.13        51.92796
666.55        51.93944
666.98        51.77733
667.41        51.58646
667.83        51.63696
668.26        51.98182
668.69         52.5169
669.11        53.06163
669.54        53.55062
669.96        53.41946
670.39        53.23751
670.82        53.00134
671.24        52.81853
671.67        52.88873
672.09        53.35464
672.52        54.29013
672.94         54.9452
673.37         54.4509
673.80        54.34692
674.22        54.46862
674.65        54.59287
675.07        54.72198
675.50        54.87309
675.92        55.04369
676.35        55.26022
676.77        55.51769
677.20        55.74589
677.62        55.94258
678.05         56.1133
678.47        56.24784
678.90        56.35357
679.32        56.45035
679.75        56.46923
680.17        56.64091
680.60        56.78154
681.02        56.91576
681.45        56.95027
681.87        56.88641
682.30         56.7591
682.72        56.65653
683.15        56.71733
683.57        56.99776
684.00        57.39427
684.42         57.9908
684.85         58.3396
685.27        58.43625
685.70         58.3799
686.12        58.25978
686.54         58.2399
686.97        58.35617
687.39        58.57866
687.82        58.81799
688.24         58.9708
688.66        58.99365
689.09        58.93133
689.51        58.88223
689.94        58.98015
690.36        59.26107
690.78        59.66389
691.21        60.08633
691.63        60.39029
692.06        60.52393
692.48        60.49554
692.90        60.40402
693.33        60.42202
693.75        60.58762
694.17        60.87238
694.60        61.20683
695.02        61.38394
695.44        61.37558
695.87        61.57874
696.29        61.98404
696.71        61.88501
697.14        61.48367
697.56        62.03417
697.98        63.24787
698.41        63.38486
698.83        62.62261
699.25        62.20632
699.68        62.29882
700.10        62.32916
700.52        62.32673
700.94        62.62239
701.37        63.12149
701.79        63.56236
702.21        63.84979
702.64        64.06203
703.06        64.17284
703.48        64.13535
703.90        63.97416
704.33        63.70361
704.75        63.41854
705.17        63.35727
705.59        63.57615
706.01        63.90897
706.44        64.23077
706.86        64.88836
707.28        64.96037
707.70        65.15556
708.12        65.23114
708.55        65.22346
708.97        65.13416
709.39         64.9632
709.81         64.8034
710.23         64.8025
710.66        64.99327
711.08        65.36497
711.50         65.7606
711.92        65.93957
712.34        65.85122
712.76        65.55464
713.19        65.22565
713.61        65.18038
714.03        65.47565
714.45        66.01404
714.87        66.58219
715.29        66.84229
715.71        66.72094
716.13        66.33289
716.56        65.87486
716.98        65.68959
717.40        65.86164
717.82        66.28355
718.24        66.80272
718.66         67.1623
719.08        67.27995
719.50        67.23395
719.92        67.10332
720.34        67.03048
720.76        67.06581
721.19        67.05538
721.61        67.18743
722.03        67.30103
722.45        67.44119
722.87        67.61037
723.29        67.80515
723.71        68.00651
724.13        68.19776
724.55        68.37102
724.97         68.5011
725.39        68.55602
725.81        68.53512
726.23        68.45666
726.65        68.35624
727.07         68.2881
727.49        68.27592
727.91        68.31612
728.33        68.40629
728.75        68.53623
729.17        68.69151
729.59        68.86384
730.01        69.04658
730.43        69.22081
730.85        69.38368
731.27        69.56219
731.69        69.71648
732.10        69.76601
732.52        69.70152
732.94        69.58488
733.36        69.53427
733.78        69.60615
734.20        69.81956
734.62        70.43475
735.04        71.22359
735.46         71.1684
735.88        70.52388
736.30        70.62244
736.72        71.88804
737.13        72.33176
737.55        71.86534
737.97        71.84983
738.39        72.29614
738.81        71.67265
739.23         70.4417
739.65         71.3187
740.06        73.75612
740.48        74.08916
740.90        72.40226
741.32        71.51639
741.74        71.68105
742.16        72.16627
742.57        71.92427
742.99        72.62622
743.41        73.71973
743.83        74.43929
744.25        74.63108
744.67        74.50143
745.08         74.2682
745.50        74.25549
745.92        74.56767
746.34        75.07304
746.75        75.61053
747.17         75.9185
747.59        75.95628
748.01        75.81647
748.42        75.67757
748.84        75.83366
749.26        76.34445
749.68        77.00838
750.09        77.68902
750.51        78.31944
750.93        78.66064
751.35        78.64066
751.76        77.51288
752.18         77.2367
752.60        77.54619
753.01        77.62352
753.43        77.46873
753.85        77.67442
754.27        78.26698
754.68        78.99508
755.10        79.68089
755.52        80.19445
755.93         80.4452
756.35        80.38712
756.77        80.19906
757.18        80.15633
757.60        80.37746
758.02        80.93306
758.43        81.30753
758.85         81.3033
759.26        79.56287
759.68        78.40511
760.10        80.12677
760.51        80.84891
760.93        80.68934
761.34        80.09075
761.76        79.96862
762.18        79.18956
762.59        78.36962
763.01        78.63135
763.42        79.94214
763.84         80.7196
764.26        80.78468
764.67        80.94457
765.09        81.11261
765.50        80.87511
765.92        80.34037
766.33        79.19872
766.75        78.22189
767.16        78.34892
767.58        78.68472
768.00        79.97728
768.41        81.64632
768.83        83.10151
769.24        83.71226
769.66        83.12852
770.07        81.79179
770.49        79.91471
770.90        78.20856
771.32        79.35069
771.73        82.53206
772.15        82.45408
772.56        79.48611
772.97         78.8438
773.39        80.49563
773.80         81.0004
774.22        80.17532
774.63        80.01388
775.05        80.47036
775.46        80.83988
775.88        80.71294
776.29        80.58851
776.70         80.4384
777.12        80.40586
777.53        80.53263
777.95        80.71351
778.36        80.85101
778.77        80.75748
779.19         80.4474
779.60        80.02802
780.02        79.67047
780.43        79.64248
780.84        80.10151
781.26        80.66566
781.67         81.2618
782.09        82.56896
782.50        83.97578
782.91        83.00533
783.33        80.40302
783.74        79.49113
784.15        80.46033
784.57        81.13171
784.98        81.20821
785.39         81.3196
785.81        81.38096
786.22        81.05706
786.63        80.62758
787.04        80.66663
787.46        81.22848
787.87        82.12363
788.28        83.05457
788.70        83.51416
789.11         83.3805
789.52        82.84209
789.93        82.16569
790.35        81.70296
790.76        81.55299
791.17        81.70074
791.58        82.04201
792.00        82.19597
792.41        82.05526
792.82        82.30244
793.23         82.1577
793.65        82.06651
794.06         82.0555
794.47        83.15071
794.88        84.48319
795.29        85.07961
795.71        81.91097
796.12        79.94369
796.53        78.89015
796.94        78.37877
797.35        78.95256
797.76         80.2513
798.18        81.82426
798.59        82.81703
799.00        82.86703
799.41        82.00558
799.82        80.70802
800.23        79.94163
800.64        79.93108
801.06        80.29351
801.47         80.9124
801.88        81.49104
802.29        81.88518
802.70        82.21761
803.11        82.43802
803.52         82.4304
803.93        82.20891
804.34        81.76715
804.75        81.27974
805.17        81.14324
805.58        81.48598
805.99        81.90901
806.40        82.22986
806.81        82.88148
807.22        83.40771
807.63        82.21559
808.04        79.94839
808.45        79.05221
808.86        79.75896
809.27        80.87119
809.68        81.90969
810.09        82.49633
810.50        82.38743
810.91        81.73144
811.32        80.85867
811.73        80.28761
812.14        80.17088
812.55        80.34771
812.96        80.74284
813.37        81.12307
813.78        81.43064
814.19        81.95834
814.60        82.44755
815.01        82.31989
815.42        81.53648
815.83        80.26775
816.24        79.01566
816.65        78.62012
817.05        79.33635
817.46        80.90474
817.87        82.66766
818.28         83.4386
818.69        82.90005
819.10         81.3479
819.51        79.54621
819.92        78.79306
820.33        79.41702
820.74        81.01225
821.14        82.82572
821.55        83.53199
821.96        82.84225
822.37        81.22559
822.78        79.36295
823.19        78.24996
823.60        78.16233
824.00        78.84597
824.41        79.87005
824.82        80.61114
825.23        80.79833
825.64        80.65792
826.04        80.38306
826.45        80.24707
826.86        80.32304
827.27         80.4524
827.68        80.58097
828.08        80.68868
828.49        80.68607
828.90        80.68147
829.31        80.59389
829.72        80.25883
830.12        79.71537
830.53        79.01705
830.94        78.46131
831.35        78.44801
831.75        79.07671
832.16        80.16804
832.57        81.44849
832.97        82.33685
833.38        82.54777
833.79         82.2291
834.20        81.64623
834.60        81.21539
835.01        81.08445
835.42        81.12888
835.82        81.19026
836.23        80.92571
836.64        80.32012
837.04        79.54372
837.45        78.84469
837.86        78.59743
838.26        78.88953
838.67         79.5423
839.08        80.36671
839.48        81.01472
839.89        81.30734
840.29        81.35326
840.70        81.16748
841.11        80.76378
841.51        80.20527
841.92        79.47136
842.33        78.77184
842.73        78.46907
843.14        78.60482
843.54        79.13789
843.95        79.77188
844.35        80.05875
844.76        79.86298
845.17        79.32614
845.57        78.68768
845.98        78.33154
846.38        78.35269
846.79        78.60452
847.19        78.95452
847.60        79.08002
848.00        78.93541
848.41        78.61967
848.81         78.2843
849.22        78.06662
849.62        78.06629
850.03        78.23347
850.43        78.57915
850.84        79.02842
851.24         79.5721
851.65        80.02899
852.05        80.51391
852.46        81.03654
852.86        81.57997
853.27          82.163
853.67        82.32912
854.07        81.51237
854.48        79.78189
854.88        77.36532
855.29        75.09928
855.69        74.18148
856.10        74.83472
856.50        76.92016
856.90        79.67429
857.31        81.31908
857.71        81.28175
858.12        79.98806
858.52        78.25596
858.92         77.1769
859.33        76.99521
859.73        77.42739
860.13         78.2383
860.54        78.94459
860.94         79.4128
861.34        79.75574
861.75        80.05117
862.15        80.50348
862.55        81.10291
862.96        81.72372
863.36        82.23925
863.76        82.41553
864.17        82.21902
864.57         81.8267
864.97        81.40317
865.38         81.1809
865.78        81.27275
866.18        81.51196
866.58        81.92529
866.99        82.53735
867.39        83.36408
867.79        84.45216
868.19        85.37019
868.60        85.31247
869.00        84.14527
869.40        82.08282
869.80        80.12881
870.21        79.87833
870.61         81.7449
871.01          85.241
871.41         89.1646
871.81        91.43961
872.22        91.48188
872.62        89.92556
873.02        87.80434
873.42        86.84661
873.82        87.35562
874.22        88.56531
874.63        90.03072
875.03        90.85783
875.43        90.55014
875.83         90.0627
876.23        88.70797
876.63        88.19975
877.03        88.59125
877.44        90.03078
877.84        102.2317
878.24         95.3905
878.64        94.90036
879.04        93.96542
879.44        90.38739
879.84        88.86185
880.24        92.41177
880.64        94.82999
881.04         96.8793
881.44         98.3225
881.84        98.17424
882.24        96.78854
882.65        95.15701
883.05        94.41582
883.45        94.78762
883.85         96.0679
884.25        97.68875
884.65        98.51614
885.05        98.21062
885.45        97.22183
885.85        96.13123
886.25        95.70496
886.65        96.10242
887.05        97.02251
887.45        98.16847
887.85        99.02496
888.25        99.36751
888.65        99.38474
889.04        99.10478
889.44        98.61271
889.84        97.98802
890.24        97.20778
890.64        96.51477
891.04        96.29405
891.44         96.5961
891.84        97.33651
892.24        98.20594
892.64        98.60796
893.04        98.41439
893.44        97.86658
893.83        97.24937
894.23        97.00333
894.63        97.20828
895.03        97.65688
895.43        98.34718
895.83        99.26074
896.23        100.2922
896.63        101.4716
897.02        102.3472
897.42        102.1824
897.82         100.932
898.22        98.86552
898.62        96.80437
899.01        95.95813
899.41        96.56549
899.81        98.19611
900.21        100.1431
900.61        101.2482
901.00        101.1825
901.40        100.3313
901.80        99.13949
902.20        98.29585
902.59        98.02586
902.99        98.10206
903.39        98.35204
903.79        98.49588
904.18        98.43932
904.58        98.34607
904.98        98.31973
905.38         98.4959
905.77        98.85838
906.17         99.2872
906.57        99.67414
906.96        99.93408
907.36        99.97816
907.76         99.8713
908.15        99.56982
908.55        98.88858
908.95        97.90651
909.34        96.67998
909.74         95.5631
910.14        94.91999
910.53        94.86877
910.93        95.36349
911.33         96.2118
911.72        97.04663
912.12         97.6205
912.52        97.93618
912.91         98.1422
913.31        98.47916
913.70        99.04174
914.10        99.76955
914.49        100.3389
914.89        99.91579
915.29        98.39462
915.68        96.14297
916.08        94.20251
916.47        93.47201
916.87         94.0187
917.26        95.54366
917.66         97.2492
918.05         97.8501
918.45        97.02048
918.84        95.22032
919.24         93.2926
919.64         92.4624
920.03        93.05282
920.42        94.66603
920.82        96.70607
921.21        98.27269
921.61        98.85326
922.00        98.76341
922.40        98.18648
922.79        97.35763
923.19        96.45564
923.58        95.37341
923.98        94.18314
924.37        93.30526
924.77        93.08535
925.16        92.03741
925.55        92.95859
925.95        93.95187
926.34        95.74557
926.74        97.92211
927.13        99.95611
927.52        100.7513
927.92        100.2007
928.31        98.66646
928.70        96.63966
929.10        94.97742
929.49        93.93454
929.89        93.30628
930.28        93.28762
930.67        94.18902
931.07          95.823
931.46        98.14767
931.85        100.2843
932.24        100.9137
932.64        99.80902
933.03         97.2019
933.42        93.83799
933.82        91.46109
934.21         90.6324
934.60        90.92454
934.99        91.67406
935.39        92.10748
935.78        92.08596
936.17        91.67891
936.56        90.71218
936.96        90.94839
937.35        89.79429
937.74        89.47523
938.13        89.44553
938.53         90.2079
938.92        91.77757
939.31        94.17683
939.70        96.81293
940.09        97.95226
940.49        96.98009
940.88        94.58893
941.27        91.92831
941.66        90.35452
942.05        90.07386
942.44        90.65421
942.84        91.73341
943.23        92.78522
943.62        93.47173
944.01         93.9516
944.40        94.19775
944.79        94.14917
945.18        93.79931
945.57         93.0598
945.97        91.97066
946.36         90.8629
946.75        90.04493
947.14        89.58345
947.53        89.44398
947.92        89.50594
948.31        89.71164
948.70        90.08828
949.09        90.59965
949.48        91.11264
949.87        91.49744
950.26        91.68277
950.65        91.65973
951.04        91.46711
951.43        91.13111
951.82        90.67866
952.21        90.05657
952.60        89.21452
952.99        88.20105
953.38        87.04472
953.77         86.0493
954.16         85.6278
954.55        85.82601
954.94        86.59333
955.33        87.40648
955.72        87.36689
956.11        86.30496
956.50        84.45368
956.89          82.658
957.28        82.48026
957.66        84.38775
958.05        87.62291
958.44         91.1525
958.83        93.44667
959.22         94.0815
959.61        93.44543
960.00        92.02748
960.39        90.64175
960.78        89.60072
961.16        88.71291
961.55        87.79431
961.94        86.61562
962.33        85.20932
962.72        83.83885
963.11        82.77464
963.49        82.26145
963.88        82.29937
964.27        82.82516
964.66         83.5872
965.04        84.08092
965.43        84.01671
965.82        83.57131
966.21        83.09963
966.60         83.1106
966.98        83.70269
967.37        84.65777
967.76        85.68288
968.15        86.19323
968.53          85.997
968.92        85.28078
969.31        84.35931
969.69        83.60401
970.08        83.14175
970.47          82.911
970.86        82.78418
971.24        82.55782
971.63        82.16462
972.02        81.64561
972.40        81.31286
972.79        81.65508
973.17        82.86983
973.56        84.69985
973.95        86.48991
974.33        87.00681
974.72        85.89073
975.11        83.57639
975.49        81.09955
975.88        79.85489
976.26        80.03501
976.65        81.38013
977.04        83.01108
977.42        82.84013
977.81        80.24689
978.19        76.13332
978.58        72.59612
978.96        71.76991
979.35        73.93928
979.74        78.63897
980.12        84.73078
980.51        88.41776
980.89        88.44891
981.28        85.88119
981.66        82.41981
982.05        80.23865
982.43        79.73518
982.82        80.15225
983.20        81.20323
983.59        82.60249
983.97        84.26017
984.35        86.40746
984.74        88.49169
985.12        89.49603
985.51        88.71865
985.89        86.27802
986.28        82.91027
986.66        79.86183
987.04        77.90966
987.43        76.94935
987.81        76.58395
988.20        76.23603
988.58        75.65527
988.96        74.74002
989.35        73.92621
989.73        74.85321
990.12        77.87198
990.50        82.00954
990.88        84.72577
991.27         84.3149
991.65        81.27726
992.03        76.17462
992.42        70.97856
992.80        69.19827
993.18        71.70828
993.56        76.46412
993.95          81.494
994.33        85.10939
994.71        86.88742
995.10        87.65639
995.48        87.44516
995.86        86.07959
996.24        83.61431
996.63        79.73231
997.01        75.27448
997.39        73.01524
997.77        74.20542
998.15        78.35004
998.54        83.02194
998.92        84.88278
999.30        82.86162
999.68        77.86635
1000.06        71.22161
1000.45        66.27277
1000.83        64.41473
1001.21        64.53821
1001.59         65.9334
1001.97        67.93235
1002.35        70.27361
1002.73        73.64394
1003.12        76.90388
1003.50        76.61969
1003.88        71.65397
1004.26        63.98688
1004.64        57.04421
1005.02        53.58493
1005.40        53.68262
1005.78        57.00398
1006.16        64.30791
1006.54        72.74269
1006.92        77.18582
1007.30        77.98889
1007.69        76.85586
1008.07        75.11378
1008.45        72.50672
1008.83        67.00282
1009.21        53.42973
1009.59        19.21491
1009.97        -50.4609
1010.35       -112.9424
1010.73       -65.71333
1011.11       -7.116298
1011.49        26.65321
1011.86        48.57261
1012.24        60.17078
1012.62        64.56133
1013.00        64.69362
1013.38         61.1323
1013.76         56.7378
1014.14        61.37524
1014.52        83.25723
1014.90        125.5272
1015.28        177.0378
1015.66        204.5546
1016.04        187.9278
1016.41        132.9426
1016.79        70.58343
1017.17        36.22714
1017.55        29.38482
1017.93        33.81652
1018.31        41.32727
1018.69        47.94477
1019.06        53.74593
1019.44        60.69175
1019.82        70.80219
1020.20        84.64545
1020.58        102.0837
1020.95        123.1535
1021.33        145.7886
1021.71       -54.50902
1022.09        112.6265
1022.46        125.5008
1022.84        132.4079
1023.22        140.8656
1023.60        160.0793
1023.97        338.0969
1024.35        40.29496
1024.73        77.13459
