SpectraSmart Spectrum 2.9.0.0
--------- Device Information -----------
Spectrum Name :  反射率_0
Saving Time :  2024/04/25 23:56:50
Spectro-Module Model Name : SE2030-DUVN
Spectro-Module Serial Number : OS361AC55029948
Wavelength Start : 200
Wavelength End : 1025
Wavelength Unit : Wavelength(nm)
Spectrum Unit : Reflectance(%)
-----------Spectrum Setting ------------
Integration Time : 20ms
Average : 10
Boxcar : 0
Background removal :  enabled
linearity correction :  enabled
SC :  disabled
Intensity correction :  disabled
DWT denoise :  enabled
savitzky-golay :  disabled
FFT :  disabled
Running average :  disabled
Kalman :  disabled
High pass :  disabled
---------------BEGIN--------------------
Wavelength(nm)             Reflectance(%)
200.29               0
200.75        87.61903
201.21        79.64359
201.67        69.90971
202.13        63.33517
202.58        60.64036
203.04        60.71859
203.50        62.59289
203.96        64.55706
204.42        65.76184
204.88         66.6399
205.34        67.32274
205.80        67.98446
206.26        68.86777
206.72        70.19473
207.18        71.60555
207.64          69.992
208.10        63.97946
208.55        58.61666
209.01        56.32252
209.47        56.35405
209.93        57.74559
210.39        60.72051
210.85        63.55357
211.31        62.48541
211.77        56.82515
212.23        47.96357
212.69        40.15058
213.14        40.08046
213.60        48.54009
214.06        63.52866
214.52        79.67863
214.98        88.74822
215.44        88.70397
215.90        82.19259
216.36        73.07361
216.81        66.76617
217.27        64.87727
217.73        65.68057
218.19        66.56394
218.65         63.9803
219.11         56.6018
219.57        43.81083
220.02        27.69191
220.48        19.18911
220.94        24.26676
221.40        39.51641
221.86         54.1101
222.32        57.09126
222.77        49.72726
223.23        38.01019
223.69        27.87834
224.15        25.28063
224.61        29.72501
225.06        38.30535
225.52        47.20205
225.98        51.59804
226.44        50.58712
226.90        46.20265
227.36        41.08682
227.81        38.77561
228.27        40.24383
228.73        43.94156
229.19        48.13107
229.65        50.36108
230.10        50.17123
230.56        48.68692
231.02        46.99894
231.48        46.24819
231.93        46.54309
232.39        47.45426
232.85        48.40306
233.31        48.60986
233.77        47.87926
234.22        46.43372
234.68        44.83241
235.14        44.07811
235.60        44.49521
236.05        45.79416
236.51        47.24905
236.97        47.79033
237.43        47.16602
237.88        45.58396
238.34        43.61085
238.80        43.05624
239.26        44.80499
239.71        48.46517
240.17        52.73881
240.63        55.72246
241.08        56.79745
241.54        56.43678
242.00        55.21722
242.46        53.78307
242.91        52.15638
243.37        48.71626
243.83        41.52031
244.28        35.40205
244.74        59.58824
245.20        86.59809
245.66         91.4538
246.11        90.90141
246.57        88.17394
247.03        78.55276
247.48        41.41516
247.94        27.53422
248.40        58.96613
248.85        72.20155
249.31        77.87755
249.77        80.35698
250.22        81.53382
250.68         82.3164
251.14        82.17127
251.59        79.06856
252.05        73.13102
252.51        66.46195
252.96        61.37687
253.42        59.77757
253.88        60.73745
254.33        63.28859
254.79        67.16778
255.25        71.22891
255.70        74.66389
256.16        77.79674
256.62        79.32472
257.07        77.93475
257.53        74.52156
257.99        69.57353
258.44        65.05238
258.90        64.03199
259.35        65.39204
259.81           67.74
260.27        68.81371
260.72        66.47475
261.18        61.63441
261.63        55.38538
262.09        49.65801
262.55        45.99718
263.00        44.34932
263.46        44.01769
263.91        43.92214
264.37        43.19245
264.83        41.65836
265.28         39.5727
265.74        37.61152
266.19        36.52416
266.65        36.48661
267.11        37.01931
267.56        37.50227
268.02        37.23528
268.47        36.10775
268.93          34.395
269.38        32.45978
269.84        31.14479
270.30        30.69663
270.75        30.88764
271.21        31.32283
271.66        31.41321
272.12        30.98837
272.57        30.22375
273.03        29.41897
273.48        28.93187
273.94        28.86287
274.39        29.03689
274.85        29.19454
275.31        28.95685
275.76         28.2621
276.22        27.29291
276.67        26.31656
277.13        25.80539
277.58        25.77818
278.04        26.08543
278.49        26.40977
278.95        26.37292
279.40        25.87987
279.86        25.13013
280.31        24.28895
280.77        23.71257
281.22        23.43803
281.68        23.37057
282.13        23.38256
282.59        23.33519
283.04        23.18002
283.50        23.00264
283.95        22.80179
284.41         22.5899
284.86        22.36834
285.32        22.12853
285.77        21.92503
286.22        21.90768
286.68        22.06399
287.13        22.32612
287.59        22.53047
288.04         22.4224
288.50        21.99449
288.95        21.32855
289.41        20.62664
289.86        20.08831
290.32        19.82157
290.77        19.74627
291.22        19.82661
291.68        19.96881
292.13        20.13943
292.59        20.36102
293.04        20.63862
293.50        20.98006
293.95        21.36445
294.40        21.74912
294.86        22.08623
295.31        22.32162
295.77        22.45232
296.22        22.50476
296.68        22.51449
297.13        22.51101
297.58         22.5337
298.04        22.59734
298.49        22.73665
298.95        23.03354
299.40        23.48043
299.85        24.04279
300.31        24.63412
300.76        25.13141
301.21        25.47953
301.67         25.7248
302.12        25.86341
302.58        25.94264
303.03         25.9697
303.48        25.94902
303.94        25.95546
304.39        26.07156
304.84        26.31558
305.30        26.65742
305.75        26.99165
306.20        27.16214
306.66        27.15552
307.11        27.00883
307.57        26.82959
308.02        26.71183
308.47        26.70797
308.93        26.78156
309.38        26.89949
309.83        27.03914
310.29        27.17375
310.74        27.30475
311.19        27.40693
311.65        27.43982
312.10        27.39557
312.55        27.28308
313.00        27.11644
313.46        26.93124
313.91        26.73701
314.36        26.54564
314.82        26.38811
315.27        26.29699
315.72        26.28174
316.18        26.32999
316.63        26.41133
317.08        26.45286
317.53        26.43042
317.99        26.35037
318.44         26.2502
318.89        26.19394
319.35        26.18766
319.80         26.2158
320.25        26.21406
320.70        26.08219
321.16        25.80682
321.61        25.42519
322.06        25.02534
322.51        24.73792
322.97         24.5843
323.42        24.53724
323.87        24.51781
324.32        24.39299
324.78        24.13136
325.23         23.7833
325.68        23.42069
326.13        23.16225
326.59        23.03561
327.04        23.01514
327.49        23.05011
327.94        23.06095
328.39        23.01829
328.85        22.93517
329.30         22.8508
329.75          22.798
330.20        22.78943
330.66        22.79613
331.11         22.8143
331.56        22.79486
332.01        22.72461
332.46        22.60858
332.92        22.47669
333.37        22.40399
333.82        22.40471
334.27        22.47339
334.72        22.54446
335.17        22.50779
335.63        22.33759
336.08        22.06437
336.53        21.79745
336.98        21.71602
337.43        21.85574
337.88        22.17214
338.34        22.49485
338.79        22.58896
339.24        22.37673
339.69        21.92282
340.14        21.43429
340.59        21.27008
341.05        21.49837
341.50        21.99811
341.95        22.52618
342.40        22.72828
342.85        22.53247
343.30        22.06527
343.75        21.48858
344.20        21.08714
344.66        20.95553
345.11        20.96878
345.56        21.07647
346.01        21.19852
346.46        21.28818
346.91        21.39491
347.36        21.41561
347.81        21.17686
348.26        20.68383
348.72        20.01893
349.17        19.37703
349.62        19.16598
350.07         19.4675
350.52        20.14173
350.97        20.94611
351.42        21.50562
351.87        21.71029
352.32         21.6612
352.77        21.45023
353.22        21.23108
353.67        21.06243
354.13        20.89901
354.58        20.72637
355.03        20.56421
355.48         20.4174
355.93        20.31163
356.38        20.23067
356.83        20.13043
357.28        20.00057
357.73        19.84328
358.18        19.69156
358.63        19.60007
359.08        19.57654
359.53         19.6069
359.98        19.62894
360.43        19.54774
360.88        19.34892
361.33        19.05909
361.78        18.77018
362.23        18.63208
362.68        18.66887
363.13        18.82383
363.58        18.98448
364.03        18.97558
364.48        18.75966
364.93        18.40234
365.38        17.98893
365.83        17.65477
366.28        17.44852
366.73        17.33127
367.18        17.28673
367.63        17.28873
368.08        17.31323
368.53        17.36263
368.98        17.40866
369.43         17.4016
369.88        17.33286
370.33        17.21883
370.78        17.06809
371.23         16.9038
371.68        16.74339
372.13        16.57875
372.58        16.46187
373.03        16.47683
373.48        16.62647
373.93        16.87845
374.38        17.12548
374.83        17.20135
375.28        17.07399
375.72        16.78542
376.17        16.45392
376.62        16.23365
377.07        16.17454
377.52        16.22679
377.97        16.34417
378.42        16.45037
378.87        16.51158
379.32        16.55029
379.77        16.56113
380.22        16.53261
380.67         16.4666
381.11        16.36206
381.56        16.23013
382.01        16.10376
382.46        15.99356
382.91        15.89297
383.36        15.80098
383.81        15.71152
384.26        15.62351
384.71          15.547
385.15        15.46401
385.60        15.35385
386.05         15.2084
386.50        15.02637
386.95        14.85048
387.40        14.75702
387.85        14.76185
388.29        14.84064
388.74        14.92395
389.19        14.90332
389.64         14.7656
390.09        14.53458
390.54        14.30469
390.98        14.23403
391.43        14.36054
391.88        14.62022
392.33        14.87887
392.78        14.94045
393.23        14.78155
393.67        14.47029
394.12        14.15664
394.57        13.99694
395.02        14.02348
395.47        14.18002
395.91        14.38682
396.36        14.48288
396.81        14.42227
397.26        14.24626
397.71        14.02889
398.15        13.86301
398.60        13.79467
399.05        13.79771
399.50        13.80699
399.95        13.69321
400.39         13.5028
400.84        13.22472
401.29        12.97446
401.74        12.93202
402.18        13.14385
402.63         13.5267
403.08        13.93911
403.53        14.15749
403.97        14.12496
404.42        13.90891
404.87        13.60546
405.32        13.38496
405.76         13.3043
406.21        13.31345
406.66        13.37061
407.11        13.42115
407.55        13.44946
408.00         13.4756
408.45        13.49454
408.90        13.48154
409.34        13.43389
409.79        13.35384
410.24        13.27478
410.68        13.24844
411.13        13.28601
411.58        13.37618
412.03        13.48197
412.47        13.53858
412.92        13.51752
413.37        13.43713
413.81        13.33975
414.26        13.30564
414.71        13.34151
415.15        13.42515
415.60         13.4902
416.05        13.44991
416.49        13.28673
416.94        13.04584
417.39        12.78377
417.83        12.59683
418.28        12.52443
418.73         12.5287
419.17        12.59205
419.62        12.67722
420.07        12.76681
420.51        12.86996
420.96        12.94809
421.41        12.93219
421.85        12.81137
422.30        12.62533
422.74        12.43125
423.19         12.3425
423.64        12.36703
424.08        12.48032
424.53        12.62136
424.98        12.70757
425.42        12.71477
425.87        12.66157
426.31        12.57021
426.76        12.51482
427.21        12.49088
427.65        12.39311
428.10        12.28635
428.54        12.34894
428.99        12.58963
429.44        12.93394
429.88         13.2339
430.33        13.29647
430.77        13.09384
431.22        12.68902
431.66        12.26152
432.11        12.13415
432.56        12.33674
433.00        12.70955
433.45        13.08086
433.89        13.31657
434.34        13.31234
434.78        12.99751
435.23        12.59526
435.67        12.53506
436.12        12.78095
436.57         12.8805
437.01        12.77507
437.46         12.6885
437.90         12.6416
438.35        12.57569
438.79        12.49736
439.24        12.45187
439.68        12.45085
440.13        12.42688
440.57        12.40125
441.02        12.57547
441.46        12.84606
441.91        12.75903
442.35        12.37846
442.80         12.1785
443.24        12.14056
443.69        12.08757
444.13        11.97985
444.58        11.76249
445.02        11.49504
445.47        11.43229
445.91        11.53586
446.36          11.537
446.80        11.41616
447.24        11.32551
447.69        11.29117
448.13        11.27454
448.58        11.28276
449.02        11.32105
449.47         11.3584
449.91        11.34461
450.36        11.27501
450.80        11.16177
451.25        11.05441
451.69        11.02049
452.13        11.07528
452.58        11.18446
453.02        11.30823
453.47        11.37783
453.91        11.37973
454.36        11.34053
454.80        11.27349
455.24        11.20208
455.69        11.14721
456.13        11.09473
456.58        11.08025
457.02        11.14037
457.46        11.27932
457.91        11.47673
458.35         11.6776
458.79        11.78364
459.24         11.7827
459.68        11.69196
460.13        11.57898
460.57        11.51616
461.01        11.53774
461.46        11.61253
461.90        11.70891
462.34        11.76367
462.79        11.75941
463.23         11.7115
463.68        11.65941
464.12        11.66505
464.56        11.74407
465.01        11.87839
465.45        11.99512
465.89        12.02843
466.34        11.97754
466.78        11.80386
467.22        11.60176
467.67         11.6422
468.11        11.88945
468.55        11.98654
468.99         11.9159
469.44        11.89128
469.88        11.95745
470.32        12.14672
470.77        12.37856
471.21        12.43277
471.65        12.28165
472.10        12.07355
472.54        11.89377
472.98        11.84377
473.42        11.95436
473.87        12.19317
474.31        12.47136
474.75        12.64271
475.20        12.67491
475.64        12.60485
476.08        12.50154
476.52        12.47163
476.97        12.54199
477.41        12.68086
477.85        12.82958
478.29         12.9206
478.74        12.93678
479.18        12.83861
479.62        12.68662
480.06        12.78628
480.50        12.88753
480.95        13.00531
481.39        13.01379
481.83        12.98964
482.27        12.93136
482.72        12.74871
483.16        12.52162
483.60        12.56016
484.04         12.8867
484.48        13.06581
484.93        13.25624
485.37        13.70822
485.81        14.29646
486.25        14.32424
486.69         18.9229
487.14        14.80683
487.58        9.908197
488.02        12.09008
488.46        13.65066
488.90        13.72271
489.34        13.84774
489.79        13.86257
490.23        14.66219
490.67        15.12649
491.11        15.04673
491.55        14.89237
491.99         14.6638
492.43         14.4469
492.88        14.32227
493.32        14.33892
493.76        14.39759
494.20        14.58592
494.64        14.85247
495.08        15.17192
495.52        15.51033
495.96        15.83489
496.41        16.08566
496.85        16.24406
497.29        16.31326
497.73        16.14572
498.17        15.94143
498.61        16.09833
499.05        16.61562
499.49        16.71383
499.93        16.79551
500.37         16.8855
500.82        16.94622
501.26        17.16039
501.70        17.44033
502.14        17.63765
502.58        17.70721
503.02        17.74701
503.46        17.75696
503.90        17.66178
504.34        17.51737
504.78        17.45691
505.22        17.50684
505.66        17.63616
506.10        17.80011
506.54        17.91895
506.98        17.96911
507.42        17.97607
507.86        17.98024
508.30        18.04361
508.74        18.17651
509.18        18.34923
509.62        18.52262
510.06          18.636
510.50         18.6745
510.94        18.66658
511.38        18.63106
511.82        18.59487
512.26        18.57273
512.70        18.55353
513.14        18.56038
513.58        18.63142
514.02        18.75739
514.46        18.91883
514.90        19.06288
515.34        19.06896
515.78        18.89015
516.22        18.72407
516.66        18.63844
517.10        18.28028
517.54        17.67069
517.98        18.46325
518.42        18.23593
518.86        18.57378
519.30        18.73473
519.74        18.94455
520.18        19.14343
520.62        19.20493
521.06        19.13835
521.50        18.95725
521.93        18.72672
522.37        18.56627
522.81        18.50972
523.25         18.5284
523.69        18.58925
524.13        18.63864
524.57        18.65511
525.01        18.65128
525.45        18.63364
525.89        18.61022
526.32        18.58167
526.76        18.54568
527.20        18.48513
527.64        18.38446
528.08        18.24926
528.52        18.07018
528.96        17.88562
529.40        17.80259
529.83        17.84233
530.27        17.79326
530.71        17.94397
531.15        17.91261
531.59        17.78788
532.03         17.5876
532.46        17.39946
532.90        17.36975
533.34        17.51595
533.78         17.7822
534.22        18.05593
534.66        18.17226
535.09        18.09178
535.53        17.87621
535.97        17.60494
536.41         17.4071
536.85        17.32569
537.28        17.32719
537.72        17.37553
538.16        17.41238
538.60        17.42109
539.04        17.41189
539.47        17.41284
539.91        17.50564
540.35        17.67694
540.79        17.83336
541.22        17.95094
541.66        18.06678
542.10         18.1721
542.54        18.22916
542.97        18.26438
543.41        18.35131
543.85        18.49877
544.29        18.69797
544.72        18.89807
545.16        19.02677
545.60        19.07162
546.04        19.05115
546.47        19.04879
546.91        19.20551
547.35        19.53104
547.79         19.9774
548.22        20.41504
548.66        20.62357
549.10        20.57476
549.53        20.37384
549.97        20.15141
550.41        20.05473
550.84        20.13601
551.28         20.3622
551.72        20.68414
552.15        21.00783
552.59        21.28636
553.03         21.5403
553.46        21.75502
553.90        21.92614
554.34        22.06203
554.77        22.13482
555.21        22.15949
555.65        22.23187
556.08        22.37479
556.52        22.29509
556.96        22.51033
557.39        22.59251
557.83        22.69938
558.27         22.8106
558.70        22.93329
559.14        23.06206
559.57         23.1829
560.01        23.30625
560.45         23.3995
560.88        23.41177
561.32        23.36194
561.75        23.25901
562.19        23.17049
562.63        23.16629
563.06        23.25718
563.50        23.42199
563.93        23.62324
564.37        23.81114
564.80         23.9575
565.24        24.08514
565.68        24.18251
566.11        24.23534
566.55        24.26563
566.98        24.26934
567.42        24.29583
567.85        24.41597
568.29        24.65546
568.72        24.92314
569.16        25.20209
569.60        25.54816
570.03         25.8334
570.47        25.81605
570.90        25.65121
571.34        25.32103
571.77        25.71975
572.21        25.94845
572.64        26.12945
573.08        25.78774
573.51        25.02207
573.95        26.11159
574.38        27.77584
574.82        27.11218
575.25        26.92565
575.69        25.95953
576.12        25.45134
576.56          25.416
576.99        26.14586
577.42        27.27566
577.86        27.33125
578.29        27.15757
578.73        28.33152
579.16        26.01484
579.60        23.78801
580.03        24.84524
580.47        26.49208
580.90         26.7592
581.33        26.09831
581.77        26.14413
582.20        28.34193
582.64        27.99309
583.07        23.79475
583.51        23.21045
583.94        22.71529
584.37        23.63074
584.81        24.70673
585.24        25.95417
585.68        26.61061
586.11        25.90161
586.54        24.17031
586.98         23.5089
587.41        23.70395
587.85        24.59263
588.28        25.19594
588.71        24.11132
589.15        23.21874
589.58        23.80819
590.01        24.17144
590.45        24.61812
590.88         24.3856
591.31        24.01897
591.75        24.03186
592.18        24.23508
592.61         24.8682
593.05        25.17179
593.48        26.42092
593.91        26.28794
594.35        24.26651
594.78        23.89965
595.21        24.10497
595.65        25.32724
596.08        26.22267
596.51        25.28376
596.94        24.74917
597.38        25.19274
597.81        26.43716
598.24        27.07303
598.68        26.75143
599.11        26.80197
599.54        28.30052
599.97        28.92914
600.41        27.64824
600.84        28.00462
601.27         28.8029
601.70        28.64846
602.14        28.81098
602.57        28.77603
603.00         29.5162
603.43        30.71517
603.87        31.91459
604.30        32.07114
604.73        31.38408
605.16        31.35833
605.60         32.1771
606.03        33.17907
606.46        34.06164
606.89        34.16375
607.32        33.65276
607.76        34.14793
608.19        35.35509
608.62        35.14537
609.05        34.83848
609.48        35.41334
609.92        35.62865
610.35        36.19152
610.78        37.48956
611.21         38.0016
611.64        36.82219
612.07        37.45358
612.50        37.86951
612.94        38.36888
613.37        38.41103
613.80        38.74521
614.23        39.38865
614.66        39.66273
615.09        40.10717
615.52         40.4136
615.96         40.6633
616.39        40.92864
616.82        40.51557
617.25        40.79381
617.68        41.46571
618.11        41.98674
618.54        42.21645
618.97        42.16504
619.40        42.00465
619.84        42.22852
620.27        42.79784
620.70        43.17944
621.13        43.31786
621.56         43.2036
621.99        42.98283
622.42        43.59145
622.85        44.68615
623.28        44.57615
623.71        44.19307
624.14        44.13568
624.57        43.88427
625.00        43.72123
625.43        43.73566
625.86        43.35126
626.29        43.48499
626.72        43.58967
627.15        43.42733
627.58        43.39993
628.01         43.3583
628.44        43.26165
628.87        43.10684
629.30         42.9794
629.73        42.84966
630.16        42.59327
630.59        42.20834
631.02        41.76768
631.45        41.30479
631.88        40.84171
632.31        40.39278
632.74        39.95621
633.17        39.53286
633.60        39.12373
634.03        38.72889
634.46        38.35036
634.89        37.97865
635.32        37.59597
635.75        37.19821
636.18        36.79081
636.61        36.37606
637.04        35.95637
637.47        35.53043
637.89        35.09701
638.32        34.66016
638.75        34.25151
639.18        33.88509
639.61        33.56643
640.04        33.27385
640.47        32.96491
640.90        32.63393
641.33         32.2906
641.76        31.96972
642.18        31.77704
642.61        31.72646
643.04        31.71107
643.47        31.65888
643.90        31.86522
644.33        31.65289
644.76        31.58567
645.18        31.49675
645.61        31.45242
646.04        31.46279
646.47        31.50078
646.90        31.61109
647.33        31.84349
647.75        32.21352
648.18        32.72328
648.61        33.25405
649.04        33.56923
649.47        33.64973
649.89        33.43797
650.32        33.23221
650.75        33.69418
651.18        34.77213
651.61        35.81533
652.03        36.55124
652.46        36.96892
652.89        37.30717
653.32        37.45143
653.74        37.58793
654.17        39.08814
654.60        39.84389
655.03        38.87757
655.46        40.03195
655.88        43.07807
656.31        45.99619
656.74        105.5483
657.16          68.564
657.59         24.1715
658.02        18.62061
658.45        32.85283
658.87        42.51469
659.30        44.73379
659.73         44.6692
660.15        43.21977
660.58        45.06614
661.01         46.5986
661.44        45.68104
661.86        45.41668
662.29           45.37
662.72        46.08614
663.14        47.40464
663.57        47.66714
664.00        47.02721
664.42        47.08963
664.85        47.91959
665.27        48.53767
665.70        48.76424
666.13        48.86256
666.55        48.81379
666.98        48.55213
667.41        48.24192
667.83         48.1814
668.26        48.44005
668.69        48.91175
669.11        49.40359
669.54        49.83873
669.96        49.68767
670.39        49.42089
670.82        49.08592
671.24        49.01902
671.67        49.30611
672.09        49.78179
672.52          50.235
672.94        50.75756
673.37        50.45823
673.80         50.4273
674.22        50.50914
674.65        50.55158
675.07        50.56247
675.50        50.53495
675.92        50.53044
676.35         50.6289
676.77        50.83216
677.20        51.26914
677.62        51.50416
678.05        51.74132
678.47        51.83152
678.90        51.82606
679.32        51.78942
679.75         51.7266
680.17        51.86722
680.60         52.0436
681.02        52.24892
681.45        52.25925
681.87        52.09661
682.30        52.02979
682.72        52.09681
683.15        52.10549
683.57        52.13987
684.00        52.41612
684.42        53.05804
684.85        53.38545
685.27        53.40326
685.70        53.34259
686.12        53.26382
686.54        53.22315
686.97        53.24779
687.39        53.33113
687.82        53.43949
688.24        53.56326
688.66        53.67973
689.09        53.79419
689.51        53.91921
689.94         54.0845
690.36        54.29182
690.78        54.44211
691.21        54.52891
691.63        54.71259
692.06        54.92879
692.48         54.8634
692.90        54.60534
693.33        54.56321
693.75        54.77157
694.17        55.02543
694.60        55.27367
695.02        55.47697
695.44        55.57786
695.87        55.78506
696.29        56.07058
696.71        55.87066
697.14        55.41994
697.56        55.87469
697.98        56.94242
698.41        57.27895
698.83        56.40076
699.25         56.0442
699.68        56.15139
700.10        56.14192
700.52        56.03619
700.94        56.16209
701.37         56.4916
701.79        56.86867
702.21        57.22248
702.64        57.59146
703.06        57.88068
703.48        57.93561
703.90        57.75069
704.33        57.37379
704.75        56.94341
705.17        56.76131
705.59        56.90576
706.01        57.20292
706.44        57.51807
706.86        58.12112
707.28        58.17117
707.70        58.32789
708.12        58.38061
708.55        58.34294
708.97        58.22974
709.39        58.09257
709.81        57.99161
710.23        57.97197
710.66        58.05597
711.08        58.28087
711.50         58.5407
711.92        58.65641
712.34        58.59416
712.76          58.396
713.19        58.18826
713.61         58.2016
714.03        58.46949
714.45        58.91413
714.87        59.36646
715.29        59.56018
715.71         59.4389
716.13        59.09606
716.56        58.68135
716.98         58.4602
717.40        58.50099
717.82        58.72177
718.24        59.03131
718.66        59.26852
719.08        59.37651
719.50        59.42059
719.92        59.41343
720.34        59.35719
720.76        59.29154
721.19        59.17966
721.61        59.22688
722.03        59.28723
722.45        59.41602
722.87        59.64195
723.29        59.91491
723.71        60.11961
724.13        60.22392
724.55        60.25059
724.97         60.2407
725.39        60.26721
725.81        60.34795
726.23        60.45973
726.65        60.56124
727.07        60.58734
727.49        60.53105
727.91        60.42786
728.33        60.32805
728.75        60.30603
729.17        60.37917
729.59        60.53025
730.01        60.73657
730.43        60.90929
730.85         61.0518
731.27        61.29995
731.69        61.57316
732.10        61.63211
732.52        61.45485
732.94        61.17299
733.36        60.94761
733.78        60.89925
734.20        61.06975
734.62        61.66472
735.04        62.49589
735.46        62.51318
735.88        61.91354
736.30        62.11374
736.72        63.10793
737.13        63.50999
737.55        63.12134
737.97         63.2118
738.39        63.71909
738.81        63.00253
739.23         61.5478
739.65        62.20866
740.06        64.52072
740.48        64.83831
740.90        63.21063
741.32        62.46232
741.74        62.85006
742.16         63.0472
742.57        63.09887
742.99        63.73016
743.41        64.72227
743.83        65.28448
744.25        65.30719
744.67        65.08221
745.08        64.81366
745.50        64.73842
745.92        64.95744
746.34        65.41576
746.75         65.9457
747.17        66.23621
747.59        66.23334
748.01        66.03349
748.42        65.83492
748.84        65.93932
749.26        66.41016
749.68        67.11403
750.09        67.83922
750.51        68.24656
750.93        68.25424
751.35        67.92091
751.76        67.41151
752.18        67.09566
752.60        67.02353
753.01        66.83477
753.43        66.64926
753.85        66.59982
754.27        67.31084
754.68        68.10783
755.10        68.94459
755.52        69.57997
755.93          69.895
756.35        69.87366
756.77         69.7193
757.18        69.60911
757.60        69.60052
758.02        70.15044
758.43        70.84975
758.85        70.07127
759.26        68.43283
759.68        68.29173
760.10        69.38757
760.51        71.05806
760.93        70.37659
761.34        69.07212
761.76        68.92767
762.18        68.28127
762.59        68.03902
763.01        68.42766
763.42        69.39892
763.84         70.1543
764.26        70.50745
764.67        70.61024
765.09        70.46812
765.50         70.2817
765.92        69.99574
766.33        68.90927
766.75        67.46416
767.16        67.01888
767.58        67.73457
768.00        69.11649
768.41        70.79745
768.83        72.06202
769.24         72.4101
769.66        71.70313
770.07        70.42896
770.49        69.13182
770.90         68.1891
771.32        68.93639
771.73        70.78861
772.15        70.33687
772.56        67.99043
772.97        67.54635
773.39         68.9413
773.80        69.44757
774.22        68.88733
774.63        68.92946
775.05        69.51355
775.46        69.82701
775.88        69.76823
776.29        69.56682
776.70        69.32469
777.12         69.2345
777.53        69.35515
777.95         69.5764
778.36        69.76598
778.77        69.69852
779.19        69.37193
779.60         68.8755
780.02        68.39835
780.43        68.32116
780.84        68.77219
781.26        69.17553
781.67        69.48299
782.09        70.63241
782.50        72.14217
782.91        71.13863
783.33           69.28
783.74         68.5499
784.15        69.40593
784.57        69.97833
784.98        70.02291
785.39        70.01357
785.81        69.91354
786.22        69.60896
786.63        69.31165
787.04        69.33602
787.46        69.72066
787.87        70.40106
788.28        71.14866
788.70        71.52543
789.11        71.43439
789.52        71.03736
789.93        70.52359
790.35        70.14318
790.76        69.97743
791.17        69.99081
791.58        70.13634
792.00        70.26003
792.41        70.31032
792.82         70.4458
793.23        70.68498
793.65        70.56512
794.06        70.32088
794.47        71.12112
794.88        72.33584
795.29        72.35634
795.71        70.08205
796.12        68.35779
796.53        67.73209
796.94        67.37888
797.35        67.54201
797.76        68.57313
798.18        69.98528
798.59        70.80658
799.00        70.71713
799.41        69.92574
799.82        68.84247
800.23        68.19381
800.64          68.166
801.06        68.46252
801.47        68.97505
801.88         69.4392
802.29        69.73409
802.70        69.92825
803.11        70.00918
803.52        70.02161
803.93        69.95035
804.34        69.57547
804.75        69.05582
805.17        68.93889
805.58        69.34296
805.99        69.77005
806.40        70.04723
806.81        70.67142
807.22        71.20537
807.63        70.06599
808.04        67.87635
808.45        67.02988
808.86        67.74962
809.27        68.85567
809.68        69.89655
810.09        70.53135
810.50        70.52032
810.91        69.99847
811.32        69.22966
811.73        68.63136
812.14        68.33943
812.55        68.21289
812.96        68.26807
813.37        68.47209
813.78        68.80482
814.19        69.43858
814.60        70.05298
815.01        70.02923
815.42        69.30051
815.83        68.04022
816.24        66.74883
816.65        66.28589
817.05        66.90842
817.46        68.33327
817.87        69.96408
818.28        70.73061
818.69        70.33498
819.10        69.06593
819.51        67.52944
819.92        66.75229
820.33        67.01912
820.74        68.00483
821.14        69.21635
821.55        69.76781
821.96        69.45378
822.37        68.58894
822.78        67.55888
823.19        66.91492
823.60        66.81731
824.00         67.1198
824.41         67.5844
824.82        67.93457
825.23         68.0328
825.64        67.98528
826.04        67.87377
826.45        67.79668
826.86        67.78297
827.27        67.77176
827.68        67.72676
828.08        67.63049
828.49         67.4335
828.90        67.21137
829.31        66.99757
829.72        66.83953
830.12        66.78625
830.53        66.79417
830.94        66.91727
831.35        67.21619
831.75        67.72228
832.16         68.3539
832.57        69.00594
832.97        69.43177
833.38        69.49989
833.79        69.27533
834.20        68.92658
834.60        68.71492
835.01        68.73125
835.42        68.89548
835.82        69.07884
836.23        68.98666
836.64        68.59342
837.04        68.02438
837.45        67.45329
837.86        67.15203
838.26        67.19833
838.67        67.47635
839.08        67.88991
839.48        68.25793
839.89        68.46894
840.29        68.57243
840.70        68.56007
841.11         68.4103
841.51        68.14674
841.92        67.75713
842.33        67.33049
842.73         67.0323
843.14        66.87605
843.54        66.86146
843.95        66.89611
844.35        66.87208
844.76        66.74834
845.17        66.58924
845.57        66.42347
845.98        66.29825
846.38        66.23049
846.79        66.15749
847.19        66.14548
847.60          66.243
848.00        66.47121
848.41         66.7813
848.81        67.04749
849.22         67.0015
849.62        66.65253
850.03        66.08418
850.43        65.52399
850.84        65.33516
851.24        65.66188
851.65         66.2401
852.05        67.03072
852.46        67.79129
852.86        68.41058
853.27        68.98422
853.67        69.12952
854.07        68.37379
854.48        66.79557
854.88        64.56909
855.29        62.46027
855.69        61.58728
856.10        62.16236
856.50        64.05854
856.90        66.58298
857.31        68.09512
857.71        68.07005
858.12        66.91358
858.52        65.38955
858.92         64.5035
859.33        64.48368
859.73        65.03156
860.13         65.9537
860.54        66.84056
860.94        67.52995
861.34        68.12971
861.75        68.56526
862.15        68.79884
862.55        68.80945
862.96        68.57681
863.36        68.25312
863.76        68.10874
864.17        68.21637
864.57        68.55272
864.97        69.02245
865.38        69.45579
865.78        69.83411
866.18        70.11816
866.58        70.30456
866.99        70.38717
867.39        70.40412
867.79         70.3664
868.19         70.1424
868.60        69.50538
869.00        68.46854
869.40        67.18472
869.80        66.17865
870.21        66.21614
870.61        67.51807
871.01        69.82817
871.41        72.49138
871.81         74.3711
872.22        75.11703
872.62        74.97804
873.02        74.39504
873.42        74.38567
873.82        74.92101
874.22         75.1274
874.63        74.96844
875.03        74.59418
875.43        74.00595
875.83         74.6726
876.23         73.1843
876.63        72.18966
877.03        71.15434
877.44        70.18616
877.84        109.1458
878.24        76.06038
878.64        77.67318
879.04        80.71478
879.44        74.91313
879.84        72.15083
880.24        79.23676
880.64        81.81998
881.04        81.48651
881.44         80.9457
881.84        80.16985
882.24        79.02028
882.65        78.12903
883.05        77.80047
883.45        78.08533
883.85         79.2999
884.25        80.96104
884.65        81.78773
885.05         81.4544
885.45        80.39807
885.85        79.20219
886.25         78.6806
886.65        78.99998
887.05        79.84457
887.45        80.94424
887.85        81.82129
888.25        82.25684
888.65        82.43694
889.04        82.31528
889.44        81.85503
889.84        81.11382
890.24        80.08805
890.64        79.12997
891.04        78.79549
891.44        79.16219
891.84        80.10145
892.24        81.15753
892.64        81.47906
893.04        80.90348
893.44        79.79246
893.83        78.63174
894.23        78.10854
894.63        78.36266
895.03        79.09912
895.43        80.21124
895.83        81.48359
896.23        82.72206
896.63        84.00854
897.02        84.89341
897.42        84.66645
897.82        83.30069
898.22        81.04796
898.62         78.7987
899.01        77.87895
899.41        78.53642
899.81          80.336
900.21        82.48189
900.61        83.66462
901.00        83.52501
901.40         82.4741
901.80        81.07387
902.20        80.19675
902.59        80.08976
902.99         80.4692
903.39        81.00149
903.79        81.13683
904.18        80.73325
904.58        80.08671
904.98        79.48038
905.38         79.3195
905.77        79.67751
906.17        80.33134
906.57        81.12832
906.96        81.92033
907.36        82.54468
907.76        83.05661
908.15         83.3222
908.55        83.00511
908.95         82.1445
909.34        80.84122
909.74        79.48795
910.14        78.53146
910.53        78.12582
910.93        78.19701
911.33        78.69125
911.72        79.48666
912.12        80.35373
912.52        81.22976
912.91        81.95743
913.31        82.32421
913.70        82.36058
914.10         82.0807
914.49        81.46535
914.89        80.62911
915.29        79.75813
915.68        78.85025
916.08        78.27934
916.47        78.27269
916.87        78.79742
917.26        79.80634
917.66        80.76221
918.05        80.82085
918.45        79.82574
918.84        78.10442
919.24        76.37122
919.64        75.66645
920.03        76.25462
920.42        77.82119
920.82        79.86595
921.21        81.59155
921.61         82.4872
922.00        82.77598
922.40        82.50861
922.79         81.8495
923.19        81.00766
923.58        79.69196
923.98        77.93815
924.37        76.86373
924.77         77.0863
925.16        73.84198
925.55        75.85291
925.95        76.38326
926.34        77.97076
926.74        80.02498
927.13        82.13913
927.52        83.26425
927.92        83.20564
928.31        82.34495
928.70        80.87262
929.10        79.18396
929.49        77.46143
929.89        75.64821
930.28         74.3545
930.67        74.60498
931.07        76.41225
931.46        79.54936
931.85        82.73381
932.24        84.00913
932.64        82.97482
933.03        79.97686
933.42        76.06631
933.82        73.55175
934.21        73.15014
934.60        74.20615
934.99        75.57355
935.39        76.18123
935.78        75.85149
936.17        74.12711
936.56        70.85869
936.96        72.52988
937.35         70.9555
937.74         72.5244
938.13        73.91334
938.53        74.94949
938.92        75.68366
939.31          76.364
939.70        76.92517
940.09        76.89294
940.49         76.2336
940.88        75.15437
941.27        74.10495
941.66        73.63477
942.05          73.785
942.44        74.36073
942.84        75.15597
943.23        75.86061
943.62        76.25811
944.01        76.44238
944.40        76.30762
944.79        75.67284
945.18        74.51635
945.57        72.81557
945.97        70.96583
946.36        69.88991
946.75        70.02455
947.14        71.00645
947.53        72.25584
947.92        73.20042
948.31        73.78981
948.70        74.22186
949.09        74.53256
949.48        74.75654
949.87        74.87134
950.26        74.73556
950.65         74.4778
951.04        74.34308
951.43        74.37621
951.82        74.59965
952.21         74.6696
952.60         74.0169
952.99         72.5968
953.38        70.60015
953.77        68.71799
954.16        67.95473
954.55        68.46037
954.94        69.98294
955.33        71.65069
955.72         71.9862
956.11        70.64153
956.50        68.01474
956.89        65.19557
957.28        64.21706
957.66        65.75194
958.05        68.93131
958.44        72.59248
958.83         75.0106
959.22        75.69466
959.61        75.10736
960.00        73.78027
960.39        72.57581
960.78        71.81109
961.16        71.24026
961.55        70.62579
961.94        69.62923
962.33        68.25512
962.72        66.80038
963.11         65.6157
963.49        65.05827
963.88        65.15159
964.27        65.80864
964.66        66.73837
965.04        67.33079
965.43        67.27807
965.82         66.7944
966.21        66.26493
966.60        66.22604
966.98        66.79784
967.37        67.76672
967.76        68.88037
968.15        69.62265
968.53        69.78343
968.92        69.45891
969.31        68.89886
969.69        68.41798
970.08        68.08385
970.47        67.81268
970.86        67.40281
971.24        66.51029
971.63        65.10419
972.02        63.35491
972.40        61.64888
972.79        60.65779
973.17        60.69935
973.56        61.57014
973.95        63.04726
974.33        64.56758
974.72        65.67187
975.11         66.3267
975.49        66.64715
975.88        66.99854
976.26        67.43513
976.65        67.85389
977.04         67.7936
977.42        66.33836
977.81        63.48947
978.19        59.90253
978.58        56.92546
978.96        55.67151
979.35        56.23832
979.74        58.40768
980.12        61.85742
980.51        64.77296
980.89        66.49178
981.28        67.20779
981.66        67.21603
982.05         66.9781
982.43        66.70358
982.82        66.17614
983.20        65.84892
983.59        66.46227
983.97        68.22609
984.35        71.13609
984.74        74.28059
985.12        75.66807
985.51        74.20509
985.89         70.2197
986.28        65.19073
986.66        61.51022
987.04        60.15435
987.43        60.51337
987.81        61.34892
988.20        61.01168
988.58        58.92966
988.96        54.78468
989.35         49.3021
989.73        46.69656
990.12        50.10111
990.50        57.60374
990.88        64.14712
991.27        65.74556
991.65        62.95408
992.03        57.00703
992.42        50.41784
992.80        47.65549
993.18        50.01762
993.56        55.03436
993.95        60.46749
994.33        64.51808
994.71        66.66663
995.10        67.84198
995.48        68.11765
995.86        67.31453
996.24        65.47388
996.63        62.26926
997.01        58.36996
997.39         56.3323
997.77        57.28445
998.15        60.83306
998.54        64.60562
998.92        65.31045
999.30        61.92366
999.68        55.30949
1000.06        47.29631
1000.45        42.23185
1000.83        41.64283
1001.21        43.94658
1001.59        47.42282
1001.97        50.32438
1002.35        52.20772
1002.73        53.78541
1003.12        54.33445
1003.50        51.93466
1003.88        46.63166
1004.26        40.08995
1004.64         34.4172
1005.02        30.84176
1005.40        29.13273
1005.78        28.85238
1006.16        31.59713
1006.54        39.38945
1006.92        48.59772
1007.30        55.43464
1007.69        58.83292
1008.07        59.63403
1008.45        58.04997
1008.83        52.43145
1009.21        35.62284
1009.59       -14.36238
1009.97       -134.2277
1010.35       -274.1114
1010.73         -221.41
1011.11       -116.9761
1011.49       -48.73595
1011.86       -3.071227
1012.24        22.51743
1012.62        34.48816
1013.00        38.63599
1013.38        37.42867
1013.76        32.85293
1014.14        31.23179
1014.52        37.64591
1014.90        53.08364
1015.28        70.87608
1015.66        72.05869
1016.04         47.7924
1016.41        6.777274
1016.79       -25.89458
1017.17       -29.71559
1017.55       -14.56826
1017.93        4.547592
1018.31        20.21294
1018.69        29.08149
1019.06        32.30909
1019.44        30.78744
1019.82        24.73201
1020.20        16.28667
1020.58        6.930652
1020.95       -4.522895
1021.33       -51.57524
1021.71        1188.413
1022.09        231.4141
1022.46        192.3933
1022.84        188.9828
1023.22        204.3011
1023.60         257.135
1023.97        808.5955
1024.35       -129.0443
1024.73       -22.62168
