SpectraSmart Spectrum 2.9.0.0
--------- Device Information -----------
Spectrum Name :  反射率_0
Saving Time :  2024/04/26 00:15:23
Spectro-Module Model Name : SE2030-DUVN
Spectro-Module Serial Number : OS361AC55029948
Wavelength Start : 200
Wavelength End : 1025
Wavelength Unit : Wavelength(nm)
Spectrum Unit : Reflectance(%)
-----------Spectrum Setting ------------
Integration Time : 20ms
Average : 10
Boxcar : 0
Background removal :  enabled
linearity correction :  enabled
SC :  disabled
Intensity correction :  disabled
DWT denoise :  enabled
savitzky-golay :  disabled
FFT :  disabled
Running average :  disabled
Kalman :  disabled
High pass :  disabled
---------------BEGIN--------------------
Wavelength(nm)             Reflectance(%)
200.29               0
200.75        79.75692
201.21        73.71712
201.67        66.74863
202.13        62.91924
202.58        62.71445
203.04        65.06628
203.50         68.5384
203.96        70.69888
204.42        70.82557
204.88        69.89202
205.34        68.81242
205.80         68.4626
206.26         69.1226
206.72        70.97887
207.18        74.30532
207.64        75.57178
208.10        70.37771
208.55        64.22215
209.01        60.64877
209.47         59.0239
209.93        58.24304
210.39         58.1108
210.85        57.71936
211.31        55.52075
211.77        51.55472
212.23          46.582
212.69         42.7294
213.14        43.42042
213.60        48.85157
214.06         58.0569
214.52        68.40163
214.98        75.81067
215.44        78.96965
215.90        78.88883
216.36        76.81689
216.81        74.48757
217.27        72.84153
217.73        71.37703
218.19        69.50283
218.65        66.24901
219.11        60.90058
219.57        52.64447
220.02        41.81633
220.48        33.52939
220.94        31.27032
221.40        34.95524
221.86        39.68289
222.32        39.69717
222.77        35.30889
223.23        29.26925
223.69        24.83979
224.15         25.4841
224.61         30.5944
225.06        38.32623
225.52        45.56788
225.98        48.41032
226.44        46.24929
226.90        40.82792
227.36        34.59128
227.81        30.84645
228.27         30.6088
228.73        32.61131
229.19        35.60162
229.65        37.71313
230.10        38.45525
230.56        38.51221
231.02        38.41882
231.48        38.72616
231.93        39.48016
232.39        40.37946
232.85        41.16893
233.31        41.55365
233.77        41.43849
234.22        40.93773
234.68        40.17334
235.14        39.31978
235.60        38.54346
236.05        37.89156
236.51        37.40199
236.97         37.0363
237.43        36.80754
237.88         36.8254
238.34        37.24171
238.80        38.37052
239.26        40.23119
239.71        42.68661
240.17        45.24163
240.63        47.56195
241.08        49.54627
241.54        51.11752
242.00        52.32005
242.46          53.388
242.91        54.73494
243.37        56.70533
243.83        63.03733
244.28        91.25529
244.74        138.3708
245.20        131.4845
245.66        115.2403
246.11        108.5654
246.57        106.6577
247.03        106.4497
247.48        99.93009
247.94        70.54646
248.40        69.14208
248.85        72.61042
249.31        75.57239
249.77        78.33501
250.22        81.67657
250.68        86.53896
251.14         92.6431
251.59        95.12512
252.05        90.03538
252.51        80.19855
252.96        69.96931
253.42        63.16405
253.88        59.21559
254.33        56.91217
254.79        56.97628
255.25        59.73859
255.70        64.10982
256.16        69.19543
256.62        72.63251
257.07        72.08488
257.53        68.41833
257.99        62.68769
258.44        56.98772
258.90         54.5206
259.35        54.49383
259.81        55.54048
260.27        55.79548
260.72        53.49189
261.18        49.28091
261.63        44.03288
262.09        39.22006
262.55         35.9477
263.00        34.21556
263.46        33.52433
263.91        33.09816
264.37        32.29359
264.83          30.967
265.28        29.25909
265.74        27.69774
266.19        26.84822
266.65        26.82971
267.11        27.28168
267.56        27.68381
268.02        27.40139
268.47        26.36083
268.93        24.78679
269.38        23.04003
269.84        21.95955
270.30        21.75858
270.75            22.2
271.21        22.82926
271.66          22.974
272.12        22.45778
272.57        21.50408
273.03         20.4714
273.48         19.8229
273.94        19.68789
274.39        19.87118
274.85        20.11355
275.31        20.04826
275.76        19.59451
276.22        18.90874
276.67        18.19424
277.13        17.80748
277.58         17.7646
278.04        17.94637
278.49        18.11355
278.95        17.97368
279.40        17.46697
279.86        16.75675
280.31        15.99563
280.77        15.49772
281.22        15.29625
281.68        15.29984
282.13        15.39022
282.59        15.41729
283.04        15.34014
283.50        15.23138
283.95        15.09728
284.41        14.95023
284.86        14.79692
285.32        14.62383
285.77        14.48462
286.22        14.51697
286.68        14.70638
287.13        14.99544
287.59        15.22876
288.04        15.17704
288.50        14.83002
288.95        14.26934
289.41        13.67526
289.86         13.2299
290.32        13.03042
290.77        13.00593
291.22        13.13365
291.68         13.3424
292.13        13.60523
292.59        13.93487
293.04        14.31642
293.50        14.72169
293.95          15.127
294.40        15.50388
294.86        15.83255
295.31        16.10491
295.77        16.32807
296.22        16.51611
296.68        16.68381
297.13        16.82471
297.58        16.96733
298.04        17.13666
298.49        17.37845
298.95        17.78991
299.40          18.369
299.85         19.0697
300.31        19.80194
300.76        20.43973
301.21        20.92146
301.67        21.29096
302.12        21.53686
302.58        21.68754
303.03        21.75477
303.48        21.74783
303.94        21.75958
304.39        21.90432
304.84        22.20457
305.30         22.6207
305.75          23.033
306.20        23.25743
306.66        23.27459
307.11        23.13735
307.57        22.96079
308.02        22.85653
308.47        22.88062
308.93        22.98807
309.38        23.15183
309.83        23.35723
310.29         23.5711
310.74        23.78845
311.19        23.96191
311.65        24.01746
312.10        23.94415
312.55        23.76606
313.00        23.51444
313.46         23.2541
313.91        23.00874
314.36        22.78259
314.82        22.61662
315.27        22.56038
315.72        22.61684
316.18        22.76532
316.63        22.93859
317.08        23.00333
317.53         22.9217
317.99        22.71808
318.44        22.46388
318.89        22.27816
319.35        22.18655
319.80        22.16017
320.25        22.12788
320.70        21.97466
321.16        21.68175
321.61        21.29556
322.06        20.90089
322.51        20.62007
322.97        20.47203
323.42         20.4223
323.87        20.39784
324.32        20.27984
324.78        20.03693
325.23        19.71188
325.68         19.3587
326.13        19.06522
326.59        18.85773
327.04        18.72624
327.49        18.64713
327.94        18.58205
328.39        18.51911
328.85        18.46508
329.30        18.45316
329.75         18.5106
330.20         18.6345
330.66        18.78288
331.11        18.92994
331.56        18.99915
332.01        18.96412
332.46        18.83175
332.92        18.62192
333.37        18.38979
333.82        18.16435
334.27        17.96243
334.72        17.77313
335.17        17.57316
335.63        17.36429
336.08        17.15231
336.53        17.02122
336.98        17.10047
337.43        17.39561
337.88        17.86673
338.34        18.30437
338.79        18.40941
339.24        18.09837
339.69        17.45286
340.14         16.7433
340.59         16.4489
341.05        16.67055
341.50        17.24764
341.95        17.89918
342.40        18.20995
342.85        18.08393
343.30        17.67167
343.75        17.10226
344.20        16.60451
344.66        16.27629
345.11        16.01313
345.56        15.85593
346.01        15.86565
346.46        16.01613
346.91        16.31093
347.36        16.55359
347.81        16.41943
348.26        15.87672
348.72        15.05826
349.17        14.21616
349.62        13.85752
350.07        14.09705
350.52        14.75651
350.97        15.58305
351.42         16.1873
351.87        16.44762
352.32        16.47937
352.77        16.33738
353.22        16.11216
353.67         15.8557
354.13        15.53534
354.58        15.20991
355.03        15.01693
355.48        14.98255
355.93        15.09802
356.38        15.25442
356.83        15.25904
357.28        15.06978
357.73        14.73533
358.18        14.38185
358.63        14.21232
359.08        14.26589
359.53        14.47438
359.98        14.69562
360.43         14.7108
360.88        14.47731
361.33        14.07225
361.78        13.63591
362.23        13.39438
362.68        13.39686
363.13        13.55186
363.58         13.7472
364.03        13.81139
364.48        13.69514
364.93        13.46747
365.38        13.15783
365.83        12.80815
366.28        12.45525
366.73        12.08858
367.18        11.78187
367.63        11.65993
368.08         11.7355
368.53        11.96639
368.98        12.24078
369.43        12.37709
369.88        12.33148
370.33        12.15834
370.78        11.91765
371.23        11.71861
371.68        11.60213
372.13        11.52546
372.58        11.50229
373.03        11.55724
373.48        11.67635
373.93        11.85519
374.38        12.00941
374.83        12.00252
375.28        11.81548
375.72        11.48112
376.17         11.1243
376.62        10.90977
377.07        10.88543
377.52        10.99739
377.97        11.18017
378.42        11.32533
378.87        11.38983
379.32        11.40311
379.77        11.37396
380.22        11.31221
380.67        11.22868
381.11        11.12212
381.56        10.99765
382.01        10.87852
382.46        10.77326
382.91         10.6746
383.36        10.60303
383.81        10.58432
384.26        10.61631
384.71        10.69535
385.15        10.75349
385.60        10.69425
386.05        10.50197
386.50        10.19724
386.95        9.885748
387.40        9.753102
387.85        9.835011
388.29        10.06583
388.74        10.30259
389.19        10.35884
389.64        10.21058
390.09        9.916224
390.54        9.599404
390.98        9.467291
391.43          9.5767
391.88        9.843397
392.33         10.1366
392.78        10.26717
393.23        10.20119
393.67        10.00359
394.12        9.786015
394.57         9.66293
395.02        9.662452
395.47        9.743423
395.91        9.856058
396.36        9.901847
396.81        9.853785
397.26        9.736185
397.71        9.603046
398.15        9.519218
398.60        9.513741
399.05        9.567872
399.50        9.616625
399.95        9.542826
400.39         9.37596
400.84        9.115474
401.29        8.873214
401.74         8.83384
402.18        9.044273
402.63        9.424349
403.08        9.828889
403.53         10.0277
403.97        9.964346
404.42        9.711679
404.87        9.376747
405.32        9.147948
405.76        9.087047
406.21        9.134981
406.66        9.238207
407.11        9.324596
407.55        9.372995
408.00        9.408846
408.45        9.431879
408.90        9.427938
409.34        9.396297
409.79        9.333397
410.24        9.266238
410.68        9.238615
411.13        9.260888
411.58        9.329068
412.03        9.411405
412.47        9.450817
412.92         9.42557
413.37        9.348585
413.81        9.268905
414.26        9.274453
414.71        9.371693
415.15         9.53766
415.60         9.68396
416.05        9.688523
416.49        9.527465
416.94         9.25528
417.39        8.961842
417.83        8.801077
418.28        8.821923
418.73        8.963077
419.17        9.164916
419.62        9.326894
420.07        9.419909
420.51        9.474133
420.96        9.478465
421.41         9.40985
421.85        9.275146
422.30        9.096823
422.74        8.924421
423.19        8.854637
423.64        8.891373
424.08        9.014178
424.53        9.161934
424.98         9.24337
425.42        9.231756
425.87        9.152628
426.31        9.030542
426.76        8.935666
427.21        8.872693
427.65        8.763104
428.10        8.671863
428.54        8.751347
428.99        9.006532
429.44        9.371333
429.88        9.708679
430.33        9.829486
430.77        9.704281
431.22        9.392435
431.66        9.043681
432.11        8.922152
432.56         9.05753
433.00        9.326519
433.45        9.600678
433.89        9.780363
434.34        9.785505
434.78        9.565145
435.23         9.28218
435.67        9.247236
436.12        9.434249
436.57         9.50952
437.01         9.42583
437.46          9.3443
437.90        9.280915
438.35        9.195844
438.79        9.103871
439.24        9.055085
439.68        9.059175
440.13        9.058875
440.57        9.059681
441.02        9.190702
441.46        9.370931
441.91        9.277693
442.35        8.958957
442.80        8.762243
443.24        8.673206
443.69         8.56626
444.13        8.426352
444.58        8.242895
445.02        8.060825
445.47        8.050666
445.91        8.166604
446.36        8.187469
446.80        8.090165
447.24        7.992517
447.69        7.926697
448.13        7.884306
448.58        7.878908
449.02        7.908791
449.47         7.94821
449.91        7.955613
450.36        7.924938
450.80        7.864259
451.25        7.812144
451.69        7.819755
452.13        7.896056
452.58        8.009504
453.02        8.121976
453.47        8.165731
453.91        8.130933
454.36        8.044892
454.80        7.928885
455.24        7.822328
455.69        7.749036
456.13        7.692245
456.58        7.678995
457.02        7.735746
457.46        7.862668
457.91        8.045519
458.35        8.229322
458.79        8.313787
459.24        8.287408
459.68        8.167006
460.13        8.032473
460.57        7.980164
461.01         8.04395
461.46        8.184708
461.90        8.343882
462.34        8.413394
462.79        8.368529
463.23        8.235411
463.68        8.087574
464.12        8.043321
464.56        8.134008
465.01        8.319293
465.45        8.498956
465.89        8.555263
466.34        8.477789
466.78        8.267024
467.22        8.031866
467.67         8.02551
468.11        8.239873
468.55        8.405997
468.99        8.475784
469.44        8.544195
469.88        8.626849
470.32          8.7638
470.77        8.908171
471.21        8.922342
471.65        8.794362
472.10        8.625055
472.54        8.477051
472.98        8.432791
473.42        8.515558
473.87        8.701114
474.31        8.919351
474.75        9.049137
475.20        9.064534
475.64        8.996392
476.08         8.90221
476.52        8.871976
476.97        8.927837
477.41        9.043939
477.85         9.17155
478.29        9.251345
478.74        9.268007
479.18        9.195213
479.62        9.082497
480.06        9.159233
480.50        9.247148
480.95        9.350917
481.39        9.371026
481.83        9.350517
482.27        9.285725
482.72        9.118994
483.16        8.921002
483.60        8.922901
484.04        9.123301
484.48         9.29328
484.93        9.560487
485.37        9.881909
485.81        10.07986
486.25        10.71389
486.69        13.46728
487.14        10.65223
487.58        7.341331
488.02        9.017446
488.46        10.12325
488.90         10.0209
489.34        10.00026
489.79        9.973536
490.23        10.60085
490.67        10.99329
491.11        10.96612
491.55        10.86633
491.99         10.6893
492.43        10.52017
492.88        10.41874
493.32        10.37995
493.76        10.35978
494.20        10.49567
494.64        10.75974
495.08        11.10493
495.52        11.47389
495.96        11.79434
496.41        12.00861
496.85        12.12153
497.29        12.14864
497.73        12.00292
498.17        11.84344
498.61        11.95644
499.05        12.35163
499.49        12.46784
499.93        12.60234
500.37        12.76839
500.82        12.90549
501.26         13.1053
501.70        13.29232
502.14        13.36648
502.58        13.32875
503.02         13.3115
503.46        13.32754
503.90        13.30061
504.34        13.24537
504.78        13.21791
505.22        13.22658
505.66        13.26691
506.10        13.31712
506.54        13.33591
506.98        13.31854
507.42        13.28069
507.86        13.26521
508.30        13.33891
508.74        13.50781
509.18        13.73905
509.62        13.98104
510.06         14.1494
510.50        14.22077
510.94        14.22861
511.38        14.18928
511.82        14.12969
512.26        14.06832
512.70        13.99263
513.14        13.94762
513.58        14.00742
514.02        14.16847
514.46        14.40293
514.90        14.62239
515.34        14.64713
515.78        14.41649
516.22        14.15224
516.66        13.96344
517.10         13.5392
517.54        12.91613
517.98        13.82352
518.42        13.65933
518.86        14.03487
519.30        14.15355
519.74        14.27752
520.18        14.38211
520.62        14.39335
521.06         14.3376
521.50        14.20975
521.93        14.05175
522.37        13.94771
522.81        13.91711
523.25        13.93925
523.69         13.9935
524.13        14.04457
524.57        14.07597
525.01        14.09613
525.45        14.09519
525.89        14.05648
526.32        13.97986
526.76        13.87387
527.20        13.75483
527.64        13.65678
528.08        13.59134
528.52        13.53432
528.96         13.4851
529.40        13.47718
529.83        13.51482
530.27        13.45363
530.71        13.52557
531.15        13.46287
531.59         13.3413
532.03         13.1663
532.46        13.01076
532.90        13.00012
533.34        13.14502
533.78        13.39829
534.22        13.65442
534.66        13.75647
535.09        13.66895
535.53        13.44955
535.97        13.17572
536.41        12.97336
536.85        12.88461
537.28        12.87661
537.72        12.91819
538.16        12.95759
538.60        12.97717
539.04        12.98573
539.47        13.00197
539.91        13.08133
540.35        13.21374
540.79        13.33231
541.22          13.417
541.66        13.49239
542.10        13.55422
542.54        13.57417
542.97         13.5877
543.41        13.67524
543.85        13.84433
544.29        14.07973
544.72        14.31431
545.16         14.4481
545.60        14.46366
546.04        14.38971
546.47        14.31922
546.91        14.40819
547.35        14.67554
547.79        15.06919
548.22        15.47056
548.66        15.67711
549.10        15.65912
549.53        15.50946
549.97        15.33921
550.41         15.2741
550.84        15.35919
551.28        15.56463
551.72        15.85302
552.15        16.15552
552.59        16.43044
553.03        16.68777
553.46        16.90906
553.90        17.07825
554.34        17.20083
554.77        17.26028
555.21        17.26637
555.65        17.28982
556.08        17.35259
556.52        17.23301
556.96        17.35237
557.39        17.41112
557.83        17.53464
558.27        17.69695
558.70        17.87789
559.14        18.02848
559.57        18.12755
560.01         18.1976
560.45        18.23213
560.88        18.22201
561.32        18.19181
561.75         18.1359
562.19        18.10108
562.63        18.13351
563.06        18.23719
563.50        18.39931
563.93        18.58492
564.37        18.74408
564.80        18.85456
565.24        18.93751
565.68        18.99618
566.11        19.03796
566.55        19.08629
566.98        19.13536
567.42        19.21473
567.85        19.36399
568.29        19.59736
568.72        19.84073
569.16        20.08944
569.60        20.42318
570.03        20.74784
570.47        20.82456
570.90        20.73341
571.34        20.58033
571.77         20.8457
572.21        20.90527
572.64        20.96418
573.08        20.71437
573.51        20.25163
573.95        21.21139
574.38        22.51452
574.82        22.12816
575.25        21.81279
575.69        21.15217
576.12        20.77635
576.56         20.8646
576.99        21.57872
577.42        22.22803
577.86        22.19371
578.29        22.01006
578.73        23.13615
579.16        21.29669
579.60        19.42953
580.03        20.29603
580.47        21.70202
580.90        21.84475
581.33        21.35352
581.77        21.21256
582.20        22.94823
582.64        22.52408
583.07        19.29516
583.51        18.85571
583.94        18.43224
584.37        19.08658
584.81        19.82673
585.24        20.75846
585.68        21.26989
586.11         20.6627
586.54        19.25014
586.98        18.60905
587.41        18.92344
587.85        19.68791
588.28        20.20244
588.71         19.3029
589.15        18.67755
589.58         19.0436
590.01        19.30571
590.45        19.61987
590.88        19.44002
591.31         19.0985
591.75        19.01133
592.18        19.15208
592.61        19.71361
593.05        20.03702
593.48        20.87089
593.91        21.08899
594.35        19.36462
594.78        19.18999
595.21        19.44994
595.65        20.40912
596.08        21.01749
596.51        20.29869
596.94        20.03241
597.38        20.46811
597.81         21.4538
598.24        21.96691
598.68        21.71713
599.11        21.88601
599.54        23.01044
599.97        23.62363
600.41        22.78299
600.84        23.19969
601.27        23.90852
601.70        23.86413
602.14        24.08613
602.57        24.15156
603.00        24.85876
603.43        25.94135
603.87        27.02653
604.30        27.25784
604.73        26.80083
605.16        26.96919
605.60        27.81539
606.03        28.79422
606.46        29.65192
606.89        29.71256
607.32        29.73887
607.76        30.13685
608.19        31.34521
608.62        31.16778
609.05        30.95413
609.48        31.60162
609.92        32.01297
610.35         32.6841
610.78        33.88746
611.21        34.78668
611.64         33.6414
612.07        34.34355
612.50         34.7955
612.94         35.3277
613.37        35.44418
613.80        35.83006
614.23        36.50301
614.66        36.82515
615.09        37.29542
615.52        37.60211
615.96        37.84383
616.39        38.18152
616.82        37.96322
617.25        38.34943
617.68        39.05681
618.11        39.70423
618.54         40.1136
618.97        40.07973
619.40        39.83182
619.84        40.07809
620.27        40.79304
620.70        41.45012
621.13        41.88248
621.56        41.67413
621.99        41.07037
622.42        41.64452
622.85        43.06755
623.28        42.98121
623.71        42.74184
624.14        42.40569
624.57        42.40563
625.00        42.33923
625.43        42.26115
625.86        41.81798
626.29        41.73891
626.72        41.95436
627.15        41.55771
627.58        41.46441
628.01        41.32846
628.44        41.12087
628.87        40.83739
629.30        40.56484
629.73        40.28566
630.16        39.93264
630.59        39.42805
631.02        38.90351
631.45        38.37403
631.88        37.87568
632.31        37.41671
632.74        36.98704
633.17        36.55919
633.60        36.08696
634.03        35.56067
634.46        34.99682
634.89        34.41681
635.32        33.85484
635.75        33.32586
636.18        32.82649
636.61         32.3461
637.04        31.86222
637.47         31.3655
637.89        30.86237
638.32        30.36654
638.75         29.9211
639.18        29.54123
639.61        29.22273
640.04        28.93216
640.47        28.61147
640.90        28.25003
641.33        27.86304
641.76        27.49217
642.18        27.24836
642.61        27.15138
643.04        27.10534
643.47        27.04399
643.90        27.21103
644.33        27.02496
644.76        26.96974
645.18        26.90528
645.61        26.89388
646.04        26.94305
646.47        27.02748
646.90        27.18098
647.33        27.43657
647.75        27.81028
648.18        28.32309
648.61        28.85525
649.04        29.24162
649.47        29.46283
649.89        29.41213
650.32        29.35817
650.75        30.00411
651.18        31.25673
651.61        32.29512
652.03        32.90171
652.46        33.34124
652.89        33.85807
653.32        34.18859
653.74        34.50155
654.17        36.11639
654.60        36.98109
655.03        36.35529
655.46        37.69632
655.88        40.77161
656.31         44.1864
656.74        101.9455
657.16          66.444
657.59        23.58904
658.02        18.08581
658.45        31.93371
658.87        41.38365
659.30        44.07268
659.73        43.83794
660.15        42.66112
660.58        45.06199
661.01         46.7561
661.44        45.73709
661.86        45.72636
662.29        46.24254
662.72        47.25206
663.14        48.56538
663.57        48.83815
664.00         48.2685
664.42        48.39338
664.85        49.30069
665.27        50.03366
665.70        50.39639
666.13        50.62042
666.55         50.6833
666.98        50.53668
667.41        50.34346
667.83        50.39914
668.26        50.76879
668.69        51.33298
669.11        51.92611
669.54        52.50266
669.96        52.50435
670.39        52.50331
670.82        52.45874
671.24        52.36976
671.67        52.41193
672.09        52.92736
672.52         53.6875
672.94        54.38978
673.37        54.05677
673.80        54.06845
674.22        54.22145
674.65        54.34763
675.07        54.44332
675.50        54.47402
675.92        54.49479
676.35        54.65464
676.77        54.96945
677.20        55.33312
677.62        55.68983
678.05        55.95491
678.47        56.09381
678.90        56.14698
679.32         56.1745
679.75        56.16784
680.17        56.37329
680.60        56.58733
681.02        56.81825
681.45        56.93654
681.87        56.92859
682.30        56.87453
682.72        56.85854
683.15        56.91924
683.57        57.15345
684.00        57.66497
684.42        58.48341
684.85        58.88251
685.27        58.84146
685.70           58.62
686.12         58.3628
686.54        58.26019
686.97        58.36611
687.39        58.63201
687.82        58.96204
688.24        59.24053
688.66        59.40575
689.09        59.50286
689.51        59.57119
689.94        59.65806
690.36         59.7914
690.78        59.91944
691.21        60.04456
691.63        60.22871
692.06        60.42858
692.48        60.53674
692.90        60.61853
693.33        60.61782
693.75        60.99966
694.17        61.31089
694.60        61.61529
695.02        61.77444
695.44        61.75193
695.87        61.81285
696.29        62.00257
696.71        61.82353
697.14        61.47254
697.56        62.09028
697.98        63.37413
698.41        63.37254
698.83        62.71292
699.25        62.23643
699.68        62.25241
700.10        62.22187
700.52        62.18821
700.94        62.46046
701.37        62.95094
701.79        63.42488
702.21        63.78248
702.64        64.09322
703.06        64.29433
703.48        64.27664
703.90        64.05573
704.33        63.67246
704.75        63.25221
705.17        63.08085
705.59        63.22579
706.01        63.50563
706.44        63.80935
706.86        64.45435
707.28        64.51072
707.70        64.82494
708.12        65.08801
708.55        64.91444
708.97        64.44482
709.39        64.41965
709.81         64.8456
710.23        65.06293
710.66         65.0412
711.08        65.22453
711.50        65.52811
711.92        65.62209
712.34        65.47983
712.76        65.18363
713.19        64.88049
713.61        64.83801
714.03        65.09898
714.45        65.57637
714.87        66.07142
715.29        66.27206
715.71        66.11104
716.13        65.69172
716.56        65.20016
716.98         64.9658
717.40        65.07001
717.82         65.4113
718.24        65.85164
718.66        66.15651
719.08        66.25139
719.50        66.21174
719.92        66.10032
720.34         66.0331
720.76        66.05385
721.19        66.01382
721.61        66.11993
722.03        66.24936
722.45        66.44835
722.87        66.71014
723.29        67.00656
723.71         67.2145
724.13        67.29316
724.55          67.383
724.97        67.53215
725.39        67.18876
725.81        67.38354
726.23        67.30335
726.65        67.26246
727.07        67.25665
727.49        67.29864
727.91        67.37493
728.33         67.4697
728.75        67.58208
729.17        67.68479
729.59        67.77657
730.01        67.86575
730.43        67.88479
730.85        67.89481
731.27        68.14753
731.69        68.54196
732.10        68.67785
732.52        68.51688
732.94        68.29721
733.36        68.17338
733.78         68.1871
734.20        68.36993
734.62        68.99409
735.04        69.84299
735.46        69.86586
735.88        69.28053
736.30        69.64817
736.72        70.89792
737.13        71.36286
737.55        70.79654
737.97        70.64955
738.39        70.94049
738.81        70.02015
739.23        68.45144
739.65        69.28464
740.06        71.96605
740.48        72.45049
740.90        70.76363
741.32        70.01875
741.74        70.51505
742.16        70.80136
742.57        70.92652
742.99          71.712
743.41        72.88512
743.83        73.45704
744.25        73.33405
744.67         73.0069
745.08        72.72183
745.50         72.6439
745.92        72.88304
746.34        73.43088
746.75            74.1
747.17        74.50237
747.59        74.57429
748.01        74.45813
748.42        74.30611
748.84        74.37089
749.26        74.75038
749.68        75.20767
750.09        75.65901
750.51        76.37122
750.93        77.07397
751.35        76.77151
751.76        75.73127
752.18        75.39953
752.60        75.80077
753.01        75.97886
753.43        75.79739
753.85        76.01446
754.27        76.60649
754.68        77.35255
755.10        78.04765
755.52        78.45839
755.93        78.51734
756.35        78.33644
756.77        78.16219
757.18        78.11413
757.60        78.26967
758.02        79.08965
758.43        80.01588
758.85         79.4548
759.26        77.54657
759.68         76.7647
760.10        78.51051
760.51        79.51344
760.93        79.31879
761.34         77.9562
761.76        77.33879
762.18        76.55763
762.59        76.37976
763.01        76.86777
763.42        77.90985
763.84        78.69633
764.26        79.06199
764.67        79.22306
765.09        79.21739
765.50        79.25607
765.92        79.21802
766.33        78.25549
766.75        76.75841
767.16         76.1141
767.58         76.5845
768.00         77.7401
768.41         79.3351
768.83        81.04922
769.24        82.08928
769.66        81.29805
770.07        79.30711
770.49        77.46882
770.90        76.37428
771.32        77.59419
771.73         80.3157
772.15        80.08524
772.56        77.28691
772.97        76.60023
773.39        78.03017
773.80        78.49991
774.22        77.82165
774.63        77.78574
775.05        78.32957
775.46         78.6153
775.88        78.55869
776.29        78.46387
776.70        78.38424
777.12        78.37169
777.53        78.46566
777.95        78.60741
778.36        78.73244
778.77        78.67704
779.19        78.45683
779.60        78.20197
780.02        78.00022
780.43         77.9453
780.84        78.24899
781.26        78.60387
781.67        78.94572
782.09        80.31134
782.50        82.12994
782.91        80.34489
783.33        77.91655
783.74        77.15897
784.15        78.03412
784.57        78.97182
784.98        79.30564
785.39        79.29475
785.81        78.90103
786.22        78.38017
786.63        78.03442
787.04        78.02152
787.46        78.40192
787.87        79.24302
788.28         80.2478
788.70        80.73479
789.11        80.56161
789.52        80.08005
789.93        79.52432
790.35        78.93392
790.76        78.53877
791.17        78.89225
791.58        79.78229
792.00         80.1989
792.41        79.99123
792.82        79.76447
793.23        79.67493
793.65        79.35098
794.06         79.1476
794.47        80.17094
794.88        81.53353
795.29        82.30584
795.71        79.19544
796.12        77.32491
796.53        76.31271
796.94        76.03931
797.35        76.58806
797.76        77.94644
798.18        79.52357
798.59        80.48443
799.00        80.46832
799.41        79.50391
799.82        78.10025
800.23        77.26097
800.64        77.21803
801.06        77.58791
801.47        78.20895
801.88        78.70449
802.29         78.9201
802.70        79.01257
803.11        78.99975
803.52        78.87467
803.93        78.67619
804.34         78.3639
804.75        78.06367
805.17        78.05533
805.58        78.42307
805.99        78.90401
806.40        79.31271
806.81        79.79691
807.22        80.04105
807.63        79.07847
808.04        77.40182
808.45        76.68867
808.86         77.1227
809.27        77.91734
809.68        78.72183
810.09         79.2057
810.50        79.17879
810.91        78.75645
811.32        78.18247
811.73        77.83753
812.14         77.8251
812.55        78.02837
812.96        78.34991
813.37        78.52426
813.78        78.52145
814.19        78.65992
814.60        78.80561
815.01        78.55714
815.42        77.90604
815.83        76.98703
816.24        76.16164
816.65        76.01238
817.05        76.71077
817.46        78.05071
817.87        79.50513
818.28        80.12141
818.69        79.65289
819.10        78.33066
819.51        76.78029
819.92        76.10491
820.33        76.59206
820.74        77.81498
821.14        79.18891
821.55        79.90933
821.96        79.62852
822.37        78.16121
822.78        76.18332
823.19        75.17081
823.60        75.39439
824.00        76.30222
824.41        77.40685
824.82        78.14323
825.23        78.22496
825.64        77.84676
826.04         77.2865
826.45        76.94764
826.86        76.93749
827.27        77.09778
827.68        77.28888
828.08        77.32527
828.49        77.09341
828.90        76.74998
829.31        76.37706
829.72        76.09924
830.12        75.99757
830.53        75.97951
830.94        76.11526
831.35        76.49804
831.75         77.1549
832.16        78.00624
832.57        78.84386
832.97        79.22889
833.38        78.98534
833.79        78.24506
834.20        77.37409
834.60         76.9262
835.01          77.055
835.42        77.61044
835.82        78.27785
836.23        78.42749
836.64        77.94421
837.04        77.04355
837.45        76.09573
837.86        75.68834
838.26        75.96974
838.67        76.71275
839.08        77.62471
839.48        78.18165
839.89        78.18294
840.29        77.82626
840.70        77.28857
841.11        76.81443
841.51        76.50213
841.92        76.23574
842.33        76.07153
842.73        76.12362
843.14        76.35326
843.54        76.78996
843.95        77.19839
844.35         77.2397
844.76        76.83592
845.17        76.10079
845.57        75.30905
845.98        74.89648
846.38        74.96171
846.79         75.3598
847.19        75.90105
847.60        76.14949
848.00        76.02157
848.41        75.63892
848.81        75.20018
849.22        74.92384
849.62        74.92415
850.03          75.118
850.43        75.48396
850.84        75.90057
851.24        76.34286
851.65        76.67205
852.05         77.0034
852.46        77.34715
852.86        77.70522
853.27         78.0955
853.67        78.14362
854.07        77.40244
854.48        75.93923
854.88        73.93636
855.29        72.08531
855.69        71.37051
856.10        71.96468
856.50        73.75968
856.90        76.12197
857.31         77.5696
857.71        77.63867
858.12        76.67245
858.52        75.31087
858.92        74.40684
859.33        74.15916
859.73        74.33332
860.13          74.831
860.54        75.44371
860.94        76.12003
861.34        76.89808
861.75        77.63097
862.15        78.16658
862.55        78.42358
862.96        78.39515
863.36        78.20924
863.76        78.07821
864.17        78.07773
864.57        78.20905
864.97        78.42396
865.38        78.63217
865.78        78.84946
866.18        79.03156
866.58        79.22119
866.99        79.46648
867.39        79.82977
867.79        80.33078
868.19        80.72871
868.60        80.58126
869.00        79.82836
869.40        78.59708
869.80        77.57227
870.21        77.81559
870.61        79.59296
871.01        82.54848
871.41        85.71484
871.81        87.43898
872.22        87.28774
872.62        85.77187
873.02        83.78172
873.42        82.87216
873.82        83.24946
874.22        84.10279
874.63        85.12207
875.03        85.72675
875.43        85.53792
875.83        85.62682
876.23        84.43474
876.63        83.88748
877.03        83.86074
877.44        84.45284
877.84        104.2589
878.24         89.6955
878.64        90.04492
879.04        90.51645
879.44        86.66647
879.84        84.91385
880.24        89.13108
880.64        91.28651
881.04        92.26179
881.44        92.71295
881.84         92.0963
882.24        90.62494
882.65        89.18187
883.05        88.60744
883.45        89.04622
883.85        90.48054
884.25        92.32899
884.65        93.31353
885.05        93.06057
885.45        92.03291
885.85        90.83166
886.25        90.27383
886.65         90.5414
887.05         91.3241
887.45        92.37679
887.85        93.26902
888.25         93.7968
888.65        94.13507
889.04        94.22318
889.44        94.00224
889.84        93.51009
890.24        92.73483
890.64        92.00781
891.04         91.8624
891.44         92.3698
891.84        93.40073
892.24        94.50158
892.64        94.82929
893.04        94.22707
893.44        93.06036
893.83         91.8193
894.23        91.20947
894.63        91.36872
895.03        92.00932
895.43        93.02659
895.83        94.20906
896.23        95.36426
896.63        96.56571
897.02        97.38342
897.42        97.12536
897.82        95.77158
898.22        93.57859
898.62         91.3736
899.01        90.38603
899.41        90.86145
899.81         92.3754
900.21        94.25716
900.61        95.39657
901.00        95.46294
901.40        94.81691
901.80        93.82342
902.20        93.04977
902.59        92.68996
902.99        92.54086
903.39        92.51418
903.79        92.48162
904.18        92.40108
904.58        92.41847
904.98        92.54752
905.38        92.77374
905.77        93.06979
906.17          93.376
906.57        93.71286
906.96        94.18885
907.36        94.72342
907.76        95.27265
908.15        95.65542
908.55        95.46889
908.95        94.70136
909.34         93.4606
909.74        92.10638
910.14          91.019
910.53        90.35813
910.93        90.09495
911.33        90.17783
911.72        90.51162
912.12         90.9427
912.52        91.42169
912.91        91.94318
913.31         92.5212
913.70        93.20513
914.10        93.98479
914.49        94.59531
914.89        94.36302
915.29        93.18302
915.68        91.32108
916.08        89.67879
916.47        89.04438
916.87        89.49277
917.26        90.79479
917.66        92.26443
918.05        92.80122
918.45        92.13222
918.84        90.64972
919.24         89.1171
919.64          88.645
920.03        89.50391
920.42        91.31032
920.82        93.44374
921.21        94.95877
921.61        95.35197
922.00        94.97831
922.40        94.05732
922.79        92.88046
923.19        91.66365
923.58        90.22755
923.98        88.69221
924.37        87.82771
924.77        88.06342
925.16        86.87655
925.55        88.64123
925.95        89.83325
926.34        91.60529
926.74        93.53444
927.13        95.26112
927.52        95.93447
927.92        95.46993
928.31        94.16086
928.70        92.30119
929.10        90.43044
929.49        88.76047
929.89        87.24157
930.28        86.29372
930.67        86.59665
931.07        88.08746
931.46        90.60797
931.85        93.18395
932.24        94.35145
932.64        93.80074
933.03        91.77802
933.42        88.91771
933.82        86.71886
934.21        85.70757
934.60        85.57526
934.99        85.79028
935.39        85.82348
935.78        85.58732
936.17         84.8288
936.56        83.41512
936.96         84.7078
937.35        83.95686
937.74        84.75293
938.13        85.44976
938.53        86.17534
938.92        86.97752
939.31        87.93613
939.70         88.8494
940.09        89.03458
940.49        88.34583
940.88        87.12372
941.27        85.84892
941.66        85.06908
942.05        84.86743
942.44        85.04989
942.84        85.56296
943.23        86.41401
943.62        87.41781
944.01        88.51208
944.40        89.37327
944.79        89.50927
945.18        88.78774
945.57        87.25394
945.97        85.14577
946.36        83.27734
946.75        82.24449
947.14        81.93491
947.53        82.16245
947.92        82.67082
948.31         83.3714
948.70        84.38058
949.09        85.55627
949.48        86.45474
949.87        86.82307
950.26        86.63579
950.65        86.15323
951.04        85.86911
951.43          85.897
951.82        86.10844
952.21         86.2009
952.60        85.69995
952.99        84.53447
953.38        82.90487
953.77        81.24481
954.16        80.13961
954.55        79.71999
954.94        79.89389
955.33        80.20469
955.72        79.87527
956.11        78.75249
956.50         77.0487
956.89        75.52261
957.28        75.54088
957.66        77.49888
958.05        80.70184
958.44        84.11459
958.83         86.2221
959.22        86.63451
959.61        85.72444
960.00        84.12794
960.39        82.90939
960.78        82.41481
961.16        82.37942
961.55        82.37343
961.94        81.69538
962.33        80.24929
962.72        78.44735
963.11        76.81833
963.49        75.96695
963.88        75.98369
964.27        76.71363
964.66         77.8119
965.04        78.56221
965.43        78.56989
965.82        78.06768
966.21        77.48676
966.60        77.41753
966.98        77.98936
967.37        78.98705
967.76        80.03101
968.15        80.40665
968.53        79.91067
968.92        78.74667
969.31         77.4799
969.69        76.83238
970.08         76.9441
970.47        77.66959
970.86        78.46059
971.24        78.34303
971.63        77.06725
972.02        74.89417
972.40        72.71708
972.79        72.13159
973.17          73.701
973.56        76.89617
973.95        80.62724
974.33        82.77102
974.72        82.54671
975.11          80.625
975.49        78.11986
975.88        76.52616
976.26        76.10703
976.65        76.47947
977.04          76.984
977.42        76.20159
977.81        73.80409
978.19        70.54118
978.58        67.98792
978.96        67.59692
979.35           69.54
979.74        73.50725
980.12        78.64842
980.51        81.89798
980.89        82.28588
981.28        80.58146
981.66        78.12135
982.05        76.64431
982.43         76.4705
982.82        76.96003
983.20        77.98788
983.59        79.48832
983.97        81.42534
984.35        83.97232
984.74        86.37474
985.12        87.16814
985.51        85.49292
985.89        81.59943
986.28        76.68118
986.66        72.71901
987.04        70.67829
987.43        70.23437
987.81        70.54935
988.20        70.47369
988.58        69.65139
988.96        68.05671
989.35        66.42539
989.73        67.47632
990.12        72.21118
990.50        78.73575
990.88        83.59841
991.27        84.75842
991.65         82.8127
992.03        78.43268
992.42        73.30875
992.80        70.48595
993.18        71.00484
993.56        73.29417
993.95        75.92101
994.33        77.70774
994.71        78.26775
995.10        78.35789
995.48        77.77252
995.86        75.92668
996.24        72.75381
996.63        67.95847
997.01        62.78222
997.39        61.03144
997.77        64.28516
998.15        71.68134
998.54         79.5251
998.92        82.79725
999.30        80.09183
999.68        72.61803
1000.06        62.77563
1000.45        56.33932
1000.83        55.51496
1001.21        58.28447
1001.59        62.61736
1001.97        66.45862
1002.35        69.34425
1002.73        72.30405
1003.12        74.52845
1003.50        73.58138
1003.88         68.8591
1004.26        61.91189
1004.64        55.47891
1005.02         51.5668
1005.40        50.10083
1005.78        50.77724
1006.16          54.743
1006.54        62.07336
1006.92        68.96867
1007.30        73.30165
1007.69        75.46458
1008.07        77.00209
1008.45        78.69561
1008.83        80.92616
1009.21        83.02962
1009.59        76.52724
1009.97        31.81685
1010.35       -65.09957
1010.73       -82.05946
1011.11       -35.39154
1011.49        6.554653
1011.86        38.47203
1012.24        56.89757
1012.62        63.87849
1013.00          63.384
1013.38        57.21435
1013.76        47.36242
1014.14        42.51801
1014.52        50.67938
1014.90        74.16245
1015.28        105.9818
1015.66        122.4312
1016.04        109.6113
1016.41        73.54976
1016.79         36.5812
1017.17        21.14915
1017.55        23.85968
1017.93         32.4176
1018.31        41.00451
1018.69        47.04847
1019.06        51.11028
1019.44        54.43235
1019.82        58.38872
1020.20        64.50765
1020.58        74.23346
1020.95        89.51643
1021.33        108.3235
1021.71        38.80011
1022.09        108.8718
1022.46        118.2026
1022.84        124.3625
1023.22        132.5293
1023.60        151.3971
1023.97        330.1201
1024.35        30.47659
1024.73        68.45886
