SpectraSmart Spectrum 2.9.0.0
--------- Device Information -----------
Spectrum Name :  反射率_0
Saving Time :  2024/04/26 00:34:38
Spectro-Module Model Name : SE2030-DUVN
Spectro-Module Serial Number : OS361AC55029948
Wavelength Start : 200
Wavelength End : 1025
Wavelength Unit : Wavelength(nm)
Spectrum Unit : Reflectance(%)
-----------Spectrum Setting ------------
Integration Time : 20ms
Average : 10
Boxcar : 0
Background removal :  enabled
linearity correction :  enabled
SC :  disabled
Intensity correction :  disabled
DWT denoise :  enabled
savitzky-golay :  disabled
FFT :  disabled
Running average :  disabled
Kalman :  disabled
High pass :  disabled
---------------BEGIN--------------------
Wavelength(nm)             Reflectance(%)
200.29               0
200.75        83.90217
201.21        78.31013
201.67        71.16408
202.13         65.1705
202.58        60.83241
203.04        57.53902
203.50        56.00093
203.96        57.45362
204.42        61.23741
204.88        66.30464
205.34        70.72133
205.80        72.64793
206.26        71.76466
206.72        67.05112
207.18        55.46072
207.64        41.93849
208.10        42.82062
208.55        52.07245
209.01        59.26131
209.47        63.03941
209.93        64.93938
210.39        66.70998
210.85        67.42545
211.31        64.80632
211.77        58.89809
212.23        50.60797
212.69        43.53475
213.14        43.46531
213.60        50.97836
214.06         64.4412
214.52        79.33757
214.98        88.58197
215.44        90.24092
215.90        86.45423
216.36        79.90943
216.81        74.38998
217.27        71.40726
217.73        69.88657
218.19        68.40754
218.65        64.91975
219.11        58.40486
219.57        48.11372
220.02         35.2901
220.48        27.79127
220.94        29.93963
221.40        39.73896
221.86        49.08756
222.32        49.52896
222.77        42.12303
223.23        31.58213
223.69        22.68628
224.15        20.27036
224.61        23.78535
225.06        30.75131
225.52        37.85852
225.98        41.04259
226.44         39.5636
226.90        35.24481
227.36        30.23104
227.81        27.35094
228.27        27.54476
228.73        29.62269
229.19        32.60268
229.65        35.07612
230.10        36.53348
230.56        37.37243
231.02        37.93504
231.48         38.5573
231.93        39.29964
232.39        40.04123
232.85        40.52561
233.31        40.42923
233.77        39.69925
234.22         38.4104
234.68        37.00437
235.14         36.2681
235.60        36.44695
236.05        37.34507
236.51        38.36236
236.97        38.55545
237.43        37.69093
237.88          35.946
238.34        33.75582
238.80        32.56506
239.26        33.20264
239.71        35.42434
240.17        38.52427
240.63        41.50987
241.08        43.93005
241.54        45.89313
242.00        47.38528
242.46        48.53133
242.91        49.63155
243.37        50.60202
243.83        53.26099
244.28         68.7149
244.74        100.2967
245.20        101.2156
245.66        92.66958
246.11        88.51204
246.57        86.48315
247.03        83.54871
247.48        72.51791
247.94        62.57572
248.40        70.19469
248.85        74.45277
249.31        76.86929
249.77        78.56773
250.22        80.27401
250.68        82.41071
251.14        84.67882
251.59        84.50479
252.05        80.43822
252.51        74.44367
252.96        68.47328
253.42        64.27051
253.88        61.26876
254.33        58.83495
254.79         58.1774
255.25        60.30459
255.70        64.32924
256.16        69.17721
256.62        72.33004
257.07        71.31338
257.53        67.04553
257.99        60.72256
258.44        54.67463
258.90        52.30688
259.35        52.76429
259.81        54.49796
260.27        55.38706
260.72        53.44579
261.18        49.35711
261.63        44.08049
262.09        39.27809
262.55        36.25912
263.00        34.97031
263.46        34.79223
263.91        34.75937
264.37        34.04681
264.83        32.53291
265.28        30.45005
265.74        28.49979
266.19        27.51114
266.65        27.62604
267.11        28.35146
267.56        29.00743
268.02        28.78209
268.47        27.58655
268.93        25.72568
269.38         23.6332
269.84        22.28361
270.30        21.95078
270.75        22.35139
271.21        23.03013
271.66        23.31201
272.12        22.99753
272.57        22.30906
273.03        21.52564
273.48         20.9858
273.94        20.80154
274.39         20.8104
274.85        20.85026
275.31        20.70267
275.76        20.31493
276.22        19.79735
276.67        19.26708
277.13        18.95672
277.58        18.85869
278.04        18.90002
278.49        18.91528
278.95        18.71486
279.40        18.25225
279.86        17.65446
280.31        17.00277
280.77         16.5097
281.22        16.19611
281.68        16.01786
282.13        15.93165
282.59        15.89202
283.04        15.87454
283.50        15.91349
283.95        15.95522
284.41        15.92386
284.86         15.8023
285.32        15.60485
285.77         15.4244
286.22        15.45779
286.68        15.70403
287.13        16.08381
287.59        16.40808
288.04         16.3987
288.50        16.03795
288.95        15.42351
289.41        14.77414
289.86         14.3247
290.32        14.18047
290.77        14.25051
291.22        14.46959
291.68        14.70204
292.13        14.91091
292.59        15.13516
293.04          15.403
293.50        15.75533
293.95        16.18267
294.40        16.62771
294.86        17.04045
295.31        17.36655
295.77        17.59677
296.22        17.76044
296.68         17.8695
297.13        17.91359
297.58        17.92812
298.04        17.94005
298.49        18.02421
298.95        18.32352
299.40        18.84416
299.85        19.53074
300.31        20.26185
300.76        20.85804
301.21        21.24786
301.67         21.4945
302.12          21.615
302.58        21.68036
303.03        21.70803
303.48        21.68644
303.94           21.69
304.39        21.80603
304.84        22.05006
305.30        22.39693
305.75        22.72577
306.20        22.85031
306.66        22.75716
307.11         22.4992
307.57        22.21888
308.02        22.07006
308.47        22.10924
308.93         22.2757
309.38        22.49788
309.83        22.68927
310.29        22.80513
310.74        22.86885
311.19        22.87615
311.65        22.81933
312.10        22.70537
312.55        22.53563
313.00        22.32593
313.46        22.11441
313.91        21.91119
314.36        21.72987
314.82        21.59856
315.27        21.54671
315.72        21.57695
316.18        21.67227
316.63         21.7917
317.08        21.84882
317.53        21.81554
317.99        21.70169
318.44        21.55107
318.89        21.43753
319.35        21.37492
319.80        21.34867
320.25        21.30241
320.70        21.14626
321.16        20.87075
321.61        20.51254
322.06        20.15525
322.51         19.9214
322.97        19.82756
323.42        19.83992
323.87        19.87608
324.32        19.79897
324.78        19.57217
325.23        19.24229
325.68        18.87322
326.13         18.5701
326.59        18.36637
327.04        18.24953
327.49        18.19224
327.94        18.14973
328.39        18.10645
328.85        18.06823
329.30        18.07429
329.75        18.16079
330.20        18.32641
330.66        18.53127
331.11        18.72824
331.56        18.80678
332.01        18.73835
332.46        18.53902
332.92        18.27727
333.37        18.09525
333.82        18.04012
334.27        18.09682
334.72        18.18414
335.17        18.15735
335.63        17.98139
336.08        17.70127
336.53        17.43995
336.98        17.39317
337.43        17.59702
337.88        17.99184
338.34        18.39419
338.79        18.54815
339.24        18.37028
339.69        17.93496
340.14         17.4461
340.59        17.25812
341.05        17.44502
341.50        17.88973
341.95        18.38162
342.40         18.6139
342.85        18.51878
343.30         18.2084
343.75        17.79807
344.20         17.4883
344.66        17.35025
345.11        17.28561
345.56        17.28707
346.01        17.34319
346.46         17.4241
346.91        17.55429
347.36        17.61399
347.81        17.40273
348.26        16.91833
348.72        16.26282
349.17        15.62116
349.62        15.38382
350.07        15.63433
350.52         16.2311
350.97        16.97773
351.42        17.57158
351.87        17.90909
352.32        18.07014
352.77        18.06551
353.22        17.91954
353.67        17.66764
354.13        17.30483
354.58        16.91578
355.03        16.67696
355.48        16.62869
355.93        16.74764
356.38        16.92503
356.83        16.96947
357.28        16.83403
357.73        16.56908
358.18        16.28134
358.63        16.14051
359.08        16.18207
359.53        16.34898
359.98        16.52553
360.43         16.5361
360.88        16.34768
361.33        16.02208
361.78        15.68151
362.23        15.52196
362.68        15.58077
363.13        15.77515
363.58        15.99334
364.03        16.06452
364.48        15.94352
364.93        15.69934
365.38         15.3722
365.83        15.02301
366.28        14.69243
366.73        14.36426
367.18        14.10328
367.63        14.01769
368.08        14.11359
368.53        14.35328
368.98         14.6236
369.43        14.74122
369.88        14.66497
370.33        14.45071
370.78        14.16899
371.23        13.94722
371.68        13.83121
372.13        13.77456
372.58        13.78349
373.03        13.86668
373.48        14.00622
373.93        14.20514
374.38        14.37881
374.83        14.39178
375.28        14.22497
375.72        13.90269
376.17         13.5625
376.62        13.39233
377.07        13.43799
377.52        13.63768
377.97         13.8842
378.42         14.0023
378.87        13.94634
379.32        13.77975
379.77        13.56956
380.22        13.40934
380.67        13.32553
381.11        13.28478
381.56        13.26405
382.01        13.23807
382.46        13.19393
382.91        13.14202
383.36        13.08414
383.81          13.017
384.26        12.94385
384.71        12.87063
385.15        12.78687
385.60        12.68527
386.05        12.56256
386.50        12.41407
386.95        12.28256
387.40        12.24045
387.85        12.29546
388.29        12.42172
388.74        12.53578
389.19         12.5191
389.64        12.36116
390.09        12.09529
390.54        11.82396
390.98        11.72101
391.43        11.83095
391.88        12.08217
392.33        12.35256
392.78        12.46249
393.23         12.3827
393.67        12.17473
394.12        11.94771
394.57        11.80794
395.02        11.78238
395.47        11.82915
395.91        11.91386
396.36        11.96204
396.81        11.94987
397.26        11.89153
397.71        11.80751
398.15        11.71208
398.60        11.63222
399.05        11.56957
399.50        11.49688
399.95        11.34247
400.39        11.15307
400.84         10.9084
401.29        10.69764
401.74        10.66054
402.18        10.83362
402.63        11.15396
403.08        11.50373
403.53        11.69358
403.97        11.67466
404.42        11.49946
404.87        11.25445
405.32        11.09447
405.76        11.06535
406.21        11.11833
406.66        11.19889
407.11        11.23298
407.55        11.20431
408.00        11.13891
408.45         11.0554
408.90        10.97904
409.34        10.92401
409.79        10.87822
410.24        10.85264
410.68        10.86445
411.13        10.91582
411.58        11.00982
412.03        11.11042
412.47        11.15406
412.92        11.11742
413.37        11.01183
413.81        10.89957
414.26        10.89295
414.71        11.00026
415.15        11.18966
415.60        11.35507
416.05        11.34438
416.49        11.12817
416.94        10.77445
417.39        10.38468
417.83        10.13327
418.28        10.08018
418.73        10.15841
419.17        10.31909
419.62        10.47698
420.07        10.59964
420.51        10.71272
420.96        10.77392
421.41        10.70771
421.85        10.51213
422.30         10.2301
422.74        9.949059
423.19        9.819622
423.64        9.856409
424.08        10.02646
424.53        10.24441
424.98        10.37556
425.42        10.37777
425.87        10.28416
426.31        10.14288
426.76        10.06524
427.21         10.0593
427.65        10.02043
428.10        9.980654
428.54        10.05028
428.99        10.22834
429.44        10.47296
429.88          10.675
430.33        10.68891
430.77        10.50018
431.22        10.15377
431.66        9.805534
432.11        9.734422
432.56        9.965321
433.00        10.36646
433.45        10.76865
433.89        11.00481
434.34         10.9708
434.78        10.62784
435.23        10.19777
435.67        10.07395
436.12        10.23764
436.57        10.31642
437.01        10.25256
437.46        10.20535
437.90        10.18221
438.35        10.13865
438.79        10.08927
439.24        10.08543
439.68        10.13519
440.13        10.17592
440.57        10.19513
441.02        10.31304
441.46        10.43965
441.91        10.22767
442.35        9.785192
442.80        9.558838
443.24        9.539117
443.69         9.56772
444.13        9.576709
444.58        9.461769
445.02        9.250189
445.47        9.165429
445.91        9.194768
446.36        9.154186
446.80        9.038464
447.24        8.957326
447.69        8.923126
448.13        8.891673
448.58          8.8681
449.02        8.866073
449.47        8.869678
449.91        8.850354
450.36        8.807378
450.80        8.742689
451.25         8.69409
451.69        8.712573
452.13         8.80542
452.58        8.941501
453.02        9.077398
453.47        9.137683
453.91        9.110556
454.36        9.024048
454.80        8.904388
455.24        8.799722
455.69        8.735588
456.13        8.691316
456.58        8.688262
457.02        8.743302
457.46        8.855479
457.91        9.014301
458.35         9.17033
458.79        9.232046
459.24        9.191819
459.68        9.065337
460.13        8.928981
460.57        8.872752
461.01        8.929052
461.46        9.058929
461.90        9.211166
462.34        9.289339
462.79        9.270185
463.23        9.178931
463.68         9.07151
464.12        9.037101
464.56        9.103195
465.01        9.241096
465.45        9.378777
465.89        9.442167
466.34        9.424974
466.78        9.304236
467.22        9.160415
467.67        9.216997
468.11         9.44794
468.55        9.564919
468.99        9.543914
469.44         9.54244
469.88        9.595117
470.32        9.733695
470.77         9.90059
471.21        9.932995
471.65        9.811832
472.10        9.651631
472.54         9.51873
472.98        9.494989
473.42        9.601892
473.87        9.811782
474.31        10.04443
474.75        10.16556
475.20         10.1492
475.64        10.03342
476.08        9.888099
476.52        9.821291
476.97         9.86098
477.41        9.976498
477.85        10.11668
478.29        10.21907
478.74        10.26421
479.18        10.22034
479.62        10.13009
480.06        10.23011
480.50        10.31928
480.95         10.4109
481.39        10.40587
481.83         10.3699
482.27        10.30317
482.72        10.13357
483.16        9.934964
483.60        9.963009
484.04        10.23292
484.48        10.43437
484.93         10.6725
485.37        11.04269
485.81        11.41506
486.25         11.5911
486.69        15.06915
487.14        11.90841
487.58        7.995651
488.02        9.981052
488.46        11.19144
488.90        11.20835
489.34        11.21305
489.79        11.17834
490.23        11.85045
490.67         12.2469
491.11        12.19412
491.55        12.10485
491.99        11.96039
492.43        11.78937
492.88        11.65035
493.32        11.58033
493.76        11.53855
494.20        11.67258
494.64        11.95422
495.08        12.33367
495.52        12.73954
495.96        13.07899
496.41         13.2855
496.85        13.36711
497.29        13.35306
497.73        13.16637
498.17        12.98588
498.61        13.12096
499.05        13.56825
499.49        13.68683
499.93        13.79751
500.37        13.92153
500.82        14.01528
501.26         14.2108
501.70        14.43176
502.14        14.56014
502.58        14.56885
503.02        14.55727
503.46        14.53189
503.90        14.42671
504.34        14.29004
504.78        14.23296
505.22         14.2768
505.66        14.39956
506.10        14.55474
506.54        14.65844
506.98        14.68891
507.42        14.67163
507.86        14.65817
508.30        14.72992
508.74        14.89871
509.18        15.12666
509.62           15.36
510.06        15.51261
510.50        15.56303
510.94        15.55013
511.38        15.49782
511.82        15.44217
512.26        15.40314
512.70        15.36408
513.14        15.36202
513.58        15.45848
514.02        15.64327
514.46        15.88783
514.90        16.10537
515.34        16.12059
515.78         15.8755
516.22        15.59089
516.66        15.37174
517.10        14.90849
517.54        14.24098
517.98        15.07801
518.42        14.87492
518.86        15.24646
519.30        15.40938
519.74        15.61005
520.18        15.80033
520.62        15.86912
521.06        15.83129
521.50        15.69316
521.93        15.50586
522.37         15.3699
522.81        15.31378
523.25        15.31241
523.69        15.35365
524.13        15.41542
524.57        15.48155
525.01        15.55719
525.45        15.61582
525.89        15.61263
526.32        15.53851
526.76        15.40639
527.20        15.24684
527.64         15.1178
528.08        15.03875
528.52        14.98131
528.96        14.92932
529.40        14.89613
529.83        14.88419
530.27        14.74263
530.71        14.75877
531.15        14.68799
531.59        14.61984
532.03        14.54565
532.46        14.49679
532.90         14.5292
533.34         14.6386
533.78        14.80067
534.22        14.95675
534.66        15.02138
535.09        14.97331
535.53        14.84565
535.97        14.67795
536.41         14.5372
536.85        14.44963
537.28        14.40244
537.72        14.38817
538.16        14.39237
538.60         14.4099
539.04        14.43643
539.47        14.47891
539.91        14.58101
540.35        14.72597
540.79         14.8456
541.22        14.92858
541.66        15.01765
542.10        15.10978
542.54        15.16778
542.97        15.21267
543.41        15.30597
543.85        15.45275
544.29        15.64608
544.72        15.83671
545.16        15.95325
545.60        15.98366
546.04        15.94588
546.47        15.91911
546.91        16.03757
547.35        16.31293
547.79        16.70141
548.22        17.08543
548.66         17.2638
549.10        17.21072
549.53        17.01992
549.97        16.81289
550.41        16.72911
550.84        16.81568
551.28        17.04024
551.72        17.35083
552.15         17.6522
552.59        17.89807
553.03        18.10844
553.46        18.28019
553.90        18.42136
554.34        18.54267
554.77        18.61832
555.21        18.65016
555.65        18.70032
556.08        18.78682
556.52         18.6732
556.96        18.81475
557.39        18.88477
557.83        19.02034
558.27        19.19319
558.70        19.38621
559.14        19.55638
559.57        19.68107
560.01        19.77868
560.45        19.83731
560.88        19.83981
561.32        19.80839
561.75        19.73916
562.19         19.6782
562.63        19.66821
563.06        19.71604
563.50        19.81408
563.93         19.9377
564.37        20.05404
564.80        20.14574
565.24         20.2299
565.68         20.3036
566.11         20.3659
566.55        20.43517
566.98        20.49917
567.42        20.58524
567.85        20.74025
568.29        20.97326
568.72        21.18816
569.16        21.39359
569.60        21.68436
570.03        21.95801
570.47        22.00392
570.90        21.93616
571.34          21.626
571.77        22.01645
572.21        22.13785
572.64        22.31442
573.08        22.00662
573.51        21.33583
573.95        22.38043
574.38        24.05603
574.82        23.21672
575.25        23.27139
575.69        22.39885
576.12        21.96249
576.56        21.91733
576.99        22.50572
577.42        23.37403
577.86         23.3413
578.29        23.04513
578.73        24.39698
579.16        22.44962
579.60        20.47018
580.03         21.3931
580.47        22.91798
580.90        23.11679
581.33        22.65104
581.77        22.47068
582.20        24.41327
582.64        23.94838
583.07        20.32099
583.51        19.87705
583.94        19.60973
584.37        20.38682
584.81        21.10325
585.24        22.07229
585.68        22.68011
586.11        22.10188
586.54        20.62884
586.98        20.09911
587.41        20.31764
587.85        21.12646
588.28         21.5764
588.71        20.64598
589.15        19.91792
589.58        20.39998
590.01        20.65944
590.45        21.11341
590.88        21.06613
591.31        20.75768
591.75        20.64115
592.18        20.70086
592.61        21.15434
593.05         21.5614
593.48        22.42351
593.91         22.4828
594.35        20.69372
594.78        20.47021
595.21        20.74236
595.65        21.82552
596.08        22.55906
596.51        21.70446
596.94         21.2081
597.38        21.59143
597.81        22.72139
598.24        23.28032
598.68         23.0847
599.11        23.28697
599.54        24.17244
599.97        24.87054
600.41        23.95554
600.84        24.37889
601.27        25.02787
601.70        24.90238
602.14        25.06933
602.57        25.08812
603.00        25.78071
603.43         26.7721
603.87        27.69097
604.30        27.90214
604.73         27.3384
605.16        27.46899
605.60        28.29107
606.03        29.20292
606.46        29.88724
606.89        30.20625
607.32        29.85701
607.76        30.14125
608.19        31.38904
608.62        31.21505
609.05        31.00336
609.48        31.54577
609.92        31.75819
610.35        32.42983
610.78         33.5729
611.21        34.35734
611.64        33.24935
612.07        33.94717
612.50         34.4409
612.94        34.94467
613.37        34.95033
613.80        35.36506
614.23        35.84907
614.66        36.10165
615.09        36.51189
615.52        36.77188
615.96        36.97866
616.39        37.30003
616.82        37.09906
617.25        37.50106
617.68        38.21066
618.11         38.8299
618.54        39.18272
618.97        39.05912
619.40        38.70916
619.84        38.92953
620.27        39.68527
620.70        40.31432
621.13        40.68265
621.56        40.58055
621.99        40.14684
622.42        40.93356
622.85        41.88909
623.28        41.81044
623.71        41.34092
624.14        41.32928
624.57        41.25015
625.00        40.89625
625.43        41.13703
625.86        40.79942
626.29        40.97059
626.72        41.07663
627.15        40.88771
627.58        40.81198
628.01        40.71367
628.44        40.50263
628.87        40.22565
629.30        40.15766
629.73         40.2127
630.16         39.9958
630.59        39.48114
631.02        38.88079
631.45        38.29618
631.88        37.80289
632.31        37.43251
632.74        37.15849
633.17        36.91481
633.60        36.59219
634.03        36.16013
634.46        35.65545
634.89        35.11475
635.32        34.59801
635.75        34.12896
636.18        33.68866
636.61        33.27133
637.04        32.86691
637.47        32.46473
637.89        32.07111
638.32        31.67377
638.75        31.27005
639.18        30.86764
639.61        30.47816
640.04        30.10571
640.47        29.75189
640.90        29.42111
641.33        29.10956
641.76        28.83081
642.18        28.65429
642.61        28.58458
643.04        28.51771
643.47        28.42876
643.90          28.574
644.33        28.35925
644.76        28.28309
645.18        28.19185
645.61        28.14009
646.04        28.13463
646.47        28.15712
646.90        28.24846
647.33        28.45055
647.75        28.77767
648.18        29.24261
648.61        29.72253
649.04        30.03513
649.47        30.15669
649.89        30.02899
650.32         29.9045
650.75         30.3665
651.18        31.37014
651.61        32.30177
652.03        32.91266
652.46        33.34154
652.89        33.79254
653.32        33.84418
653.74        33.68068
654.17        35.42367
654.60        35.88761
655.03         35.2356
655.46        36.58791
655.88        38.95309
656.31        41.75119
656.74        94.85713
657.16        62.32961
657.59        21.98961
658.02        16.96448
658.45        29.68937
658.87        38.88188
659.30        41.07867
659.73        40.94958
660.15        40.05107
660.58        41.69631
661.01        43.28942
661.44        42.54281
661.86        42.50326
662.29        42.71439
662.72        43.35601
663.14        44.36588
663.57        44.73367
664.00        44.54351
664.42        44.75998
664.85        45.43384
665.27        45.94223
665.70        46.16762
666.13        46.30068
666.55        46.33996
666.98        46.24202
667.41        46.13113
667.83        46.23642
668.26        46.60602
668.69        47.14536
669.11        47.69412
669.54         48.2071
669.96        48.17402
670.39        48.08529
670.82        47.94485
671.24        47.88305
671.67        48.03557
672.09        48.56829
672.52        49.24235
672.94        49.81503
673.37        49.41281
673.80        49.35127
674.22        49.46306
674.65        49.56201
675.07         49.6515
675.50        49.74376
675.92        49.86071
676.35           50.06
676.77         50.3439
677.20        50.64154
677.62         50.9226
678.05        51.14182
678.47        51.27355
678.90        51.34286
679.32        51.40517
679.75        51.39881
680.17        51.54189
680.60        51.76072
681.02        52.06842
681.45        51.87766
681.87        51.80449
682.30        51.71438
682.72        51.82153
683.15        51.86895
683.57        51.94603
684.00        52.31137
684.42        53.06071
684.85        53.44521
685.27        53.45691
685.70         53.3642
686.12         53.2618
686.54        53.21543
686.97         53.2825
687.39        53.53327
687.82        53.86077
688.24        54.07111
688.66        54.06579
689.09        53.98826
689.51        53.92649
689.94        53.99699
690.36        54.23663
690.78         54.5931
691.21        54.98204
691.63        55.27305
692.06        55.42831
692.48        55.49542
692.90        55.51957
693.33        55.55989
693.75        55.64342
694.17        55.75655
694.60        55.90025
695.02        56.05782
695.44        56.19291
695.87        56.46512
696.29        56.84866
696.71        56.81456
697.14        56.52012
697.56        57.03828
697.98        58.14214
698.41        58.10214
698.83        57.49837
699.25        57.14603
699.68        57.30515
700.10        57.24674
700.52        56.95656
700.94        57.49194
701.37        57.54042
701.79        57.98471
702.21        58.37813
702.64        58.76734
703.06        59.05236
703.48        59.16619
703.90        59.13385
704.33        58.69373
704.75        58.47102
705.17        58.31649
705.59        58.45016
706.01        58.69162
706.44        58.95979
706.86        59.59121
707.28        59.72881
707.70        60.10295
708.12        60.41489
708.55        60.38541
708.97        60.09185
709.39        60.01146
709.81        60.18981
710.23        60.28629
710.66        60.30397
711.08        60.50661
711.50        60.80621
711.92        60.94493
712.34        60.89027
712.76        60.70718
713.19        60.50845
713.61         60.5008
714.03         60.7173
714.45        61.09213
714.87         61.4743
715.29        61.62757
715.71        61.50558
716.13        61.19165
716.56        60.83744
716.98        60.71284
717.40         60.8795
717.82        61.24893
718.24        61.70196
718.66        62.03566
719.08        62.18174
719.50        62.20174
719.92        62.13409
720.34        62.05958
720.76        62.01727
721.19        61.88066
721.61        61.87639
722.03        61.94188
722.45        62.13735
722.87        62.44062
723.29        62.78284
723.71        63.03728
724.13        63.16204
724.55        63.18353
724.97        63.14384
725.39        63.12008
725.81        63.13929
726.23        63.18286
726.65        63.23341
727.07         63.2625
727.49        63.27057
727.91         63.2816
728.33        63.31934
728.75        63.42194
729.17        63.59873
729.59         63.7919
730.01        63.97789
730.43        64.21323
730.85        64.50928
731.27        64.50624
731.69        64.81581
732.10        64.83203
732.52         64.6949
732.94        64.48851
733.36        64.35004
733.78        64.38461
734.20        64.61736
734.62        65.30665
735.04        66.19676
735.46        66.23267
735.88        65.62029
736.30        65.77676
736.72        66.73035
737.13        67.29829
737.55        67.19162
737.97        67.23064
738.39        67.41638
738.81        66.63626
739.23        65.39661
739.65          66.186
740.06        68.51121
740.48        68.90022
740.90         67.4222
741.32        66.68584
741.74        67.30872
742.16        67.55437
742.57        67.57211
742.99         68.1142
743.41        69.01109
743.83         69.5676
744.25        69.66817
744.67         69.4903
745.08        69.22089
745.50        69.16763
745.92          69.419
746.34        69.85419
746.75        70.33549
747.17        70.60928
747.59        70.63455
748.01         70.5666
748.42        70.52684
748.84        70.57184
749.26        70.83488
749.68        71.44863
750.09        72.26723
750.51        73.03198
750.93        73.51522
751.35        73.25261
751.76        72.45876
752.18        72.13866
752.60        72.32101
753.01        72.23206
753.43        71.93535
753.85        72.08491
754.27        72.71709
754.68        73.56306
755.10        74.41541
755.52        75.07274
755.93        75.41386
756.35        75.47023
756.77        75.40545
757.18        75.23962
757.60        75.09887
758.02         75.5871
758.43         76.3167
758.85        75.71509
759.26        74.27337
759.68        73.69471
760.10        74.68881
760.51        75.48144
760.93        75.88479
761.34        74.55422
761.76        73.96985
762.18        73.26574
762.59        73.32034
763.01        73.84795
763.42        74.77016
763.84        75.61179
764.26        76.17813
764.67        76.41982
765.09        76.31493
765.50        76.15205
765.92        75.85908
766.33        74.60341
766.75         72.9108
767.16        72.39584
767.58        73.23677
768.00        74.79404
768.41        76.65988
768.83        78.06313
769.24        78.44586
769.66         77.7533
770.07        76.48226
770.49        74.94017
770.90        73.65803
771.32        74.63143
771.73        77.13424
772.15        76.82623
772.56        74.10528
772.97        73.39438
773.39        74.70651
773.80        75.26302
774.22         74.8356
774.63        74.84753
775.05         75.2513
775.46        75.54601
775.88        75.63885
776.29        75.54908
776.70        75.35503
777.12        75.32859
777.53        75.51996
777.95        75.77351
778.36        75.96926
778.77        75.90952
779.19        75.60825
779.60        75.15595
780.02        74.70197
780.43         74.6336
780.84        75.10613
781.26        75.30279
781.67        75.26206
782.09        76.72089
782.50        79.00168
782.91        77.47872
783.33        74.87315
783.74         73.7946
784.15        75.01353
784.57        75.95159
784.98        76.20895
785.39        76.20686
785.81        75.92731
786.22        75.51286
786.63        75.22422
787.04        75.29338
787.46        75.84935
787.87        76.49409
788.28        77.90771
788.70         78.4557
789.11        78.01664
789.52        77.18421
789.93        76.25565
790.35        75.71398
790.76        75.68901
791.17        76.05081
791.58        76.60829
792.00        77.01946
792.41        77.09947
792.82        76.94634
793.23        76.75738
793.65        76.26634
794.06        75.84834
794.47        77.08888
794.88        79.15588
795.29        78.90759
795.71        76.51061
796.12        74.37852
796.53        73.18142
796.94         72.7753
797.35        73.27377
797.76        74.53386
798.18        75.96107
798.59        76.90549
799.00        77.01622
799.41        76.24323
799.82        75.05464
800.23        74.41621
800.64        74.53805
801.06        75.04272
801.47        75.75301
801.88        76.27316
802.29        76.45309
802.70        76.45779
803.11        76.34985
803.52        76.19959
803.93        76.06096
804.34         75.8675
804.75         75.7084
805.17        75.78902
805.58        76.16483
805.99        76.62827
806.40        76.98129
806.81         77.2735
807.22        77.24515
807.63        76.12483
808.04        74.42057
808.45        73.68118
808.86        74.08773
809.27         74.9339
809.68        75.86539
810.09        76.48403
810.50        76.57553
810.91         76.2729
811.32        75.76575
811.73        75.34686
812.14        75.11273
812.55        74.98354
812.96        74.97758
813.37        74.99738
813.78        75.08788
814.19        75.60239
814.60        76.24102
815.01        76.25761
815.42        75.58036
815.83        74.47462
816.24        73.38907
816.65        73.03442
817.05         73.6377
817.46        74.94898
817.87        76.42371
818.28        77.08479
818.69        76.67638
819.10        75.45675
819.51        74.01248
819.92        73.40724
820.33        73.92123
820.74        75.01817
821.14        76.20254
821.55        77.07952
821.96        77.20564
822.37        75.79389
822.78        73.52537
823.19        72.36814
823.60        72.60798
824.00          73.379
824.41        74.25394
824.82        74.94527
825.23        75.20277
825.64         75.1381
826.04        74.89211
826.45        74.66087
826.86        74.51046
827.27         74.3457
827.68         74.1592
828.08        73.99177
828.49        73.79768
828.90        73.66111
829.31        73.55533
829.72        73.40015
830.12        73.21621
830.53         73.0061
830.94        72.89791
831.35        73.05504
831.75        73.53877
832.16        74.23819
832.57        75.02195
832.97        75.59394
833.38        75.78361
833.79        75.65524
834.20        75.39053
834.60         75.2732
835.01        75.39909
835.42        75.68672
835.82        75.94756
836.23        75.78687
836.64         75.1745
837.04        74.26858
837.45        73.38449
837.86        73.01449
838.26        73.27811
838.67        73.99704
839.08        74.89638
839.48        75.47169
839.89        75.52383
840.29        75.21365
840.70        74.71814
841.11        74.29525
841.51        74.03989
841.92        73.84451
842.33        73.70809
842.73        73.65093
843.14        73.62859
843.54         73.6968
843.95         73.7572
844.35        73.69412
844.76        73.47481
845.17        73.14828
845.57        72.80801
845.98        72.61024
846.38        72.59475
846.79        72.69286
847.19        72.87669
847.60         73.0089
848.00        73.07682
848.41        73.08292
848.81        73.06735
849.22        73.01635
849.62        72.98617
850.03        72.98517
850.43        73.04856
850.84        73.16351
851.24        73.36828
851.65        73.49512
852.05        73.72742
852.46        74.18916
852.86        74.87479
853.27        75.75706
853.67        76.30077
854.07        75.80906
854.48        74.29791
854.88        72.01823
855.29        69.79607
855.69        68.82417
856.10        69.33746
856.50        71.18372
856.90        73.65464
857.31        75.10711
857.71        75.02593
858.12        73.82499
858.52        72.26942
858.92         71.3609
859.33        71.32415
859.73        71.88466
860.13        72.82258
860.54        73.67586
860.94        74.29242
861.34        74.77411
861.75        75.14538
862.15        75.53776
862.55        75.93931
862.96         76.2523
863.36        76.45051
863.76        76.48415
864.17        76.35515
864.57        76.17305
864.97        75.99126
865.38        75.86265
865.78        75.85938
866.18        75.88905
866.58        76.00473
866.99        76.28511
867.39        76.77071
867.79        77.46272
868.19        78.05165
868.60        77.95853
869.00        77.07886
869.40        75.60027
869.80        74.22308
870.21        74.03732
870.61        75.36504
871.01        77.87132
871.41        80.76704
871.81        82.68346
872.22        83.21498
872.62        82.72962
873.02        81.84158
873.42        81.73271
873.82         82.4872
874.22        83.36682
874.63        84.13405
875.03        84.39501
875.43        83.90435
875.83        83.81266
876.23        82.31016
876.63        81.44592
877.03        81.00333
877.44        81.08111
877.84        105.4357
878.24        86.49124
878.64        87.32753
879.04        88.56248
879.44        84.56269
879.84        82.84464
880.24        87.66385
880.64        90.00774
881.04        90.91013
881.44        91.24988
881.84        90.52121
882.24        88.90198
882.65         87.3976
883.05        86.97655
883.45        87.79675
883.85        89.85022
884.25        92.32703
884.65        93.50289
885.05        92.89906
885.45         91.1469
885.85        89.14944
886.25        88.12811
886.65        88.35098
887.05        89.39349
887.45        90.85309
887.85         92.0192
888.25        92.56979
888.65         92.7354
889.04        92.56207
889.44        92.15298
889.84        91.58572
890.24        90.81013
890.64        90.00436
891.04        89.47321
891.44        89.27177
891.84        89.35866
892.24        89.58582
892.64        89.63496
893.04        89.46121
893.44        89.23831
893.83         89.0676
894.23        89.11064
894.63        89.38791
895.03        89.74406
895.43        90.31277
895.83        91.32748
896.23        92.73135
896.63        94.44627
897.02        95.80452
897.42        95.73372
897.82        94.12518
898.22        91.40464
898.62        88.60674
899.01        87.24419
899.41        87.63754
899.81        89.26519
900.21        91.38074
900.61        92.75813
901.00        93.01704
901.40        92.55772
901.80        91.73028
902.20        91.07487
902.59        90.78029
902.99        90.62258
903.39        90.55334
903.79        90.52998
904.18        90.52412
904.58        90.66232
904.98        90.87527
905.38        91.01732
905.77        91.04955
906.17        90.96851
906.57        90.91151
906.96        91.15352
907.36        91.64948
907.76        92.31265
908.15        92.86819
908.55        92.75813
908.95        91.92978
909.34        90.53545
909.74        89.02811
910.14        87.93665
910.53        87.45111
910.93        87.49214
911.33        87.90568
911.72        88.41242
912.12        88.81431
912.52        89.14265
912.91         89.4877
913.31        89.97796
913.70        90.68285
914.10        91.53962
914.49        92.28065
914.89        92.21905
915.29        91.20259
915.68        89.52048
916.08         87.9504
916.47        87.13235
916.87        87.15409
917.26        87.82455
917.66        88.69408
918.05        89.08743
918.45        88.81141
918.84        88.10777
919.24        87.41363
919.64         87.3278
920.03        88.00902
920.42        89.24546
920.82        90.64634
921.21        91.71069
921.61        92.08965
922.00        91.94293
922.40         91.4231
922.79        90.77264
923.19        90.15086
923.58        89.40308
923.98        88.41135
924.37        87.45451
924.77        86.90901
925.16        84.08067
925.55        84.56152
925.95         84.8352
926.34        86.57779
926.74        89.14743
927.13         91.8381
927.52        93.20185
927.92        92.98481
928.31        91.66229
928.70        89.71231
929.10        87.97361
929.49        86.72904
929.89         85.7793
930.28         85.4035
930.67        86.08366
931.07        87.68268
931.46        90.11178
931.85        92.46358
932.24        93.36082
932.64        92.53694
933.03        90.22155
933.42        87.05247
933.82        84.56466
934.21        83.31381
934.60        82.99616
934.99        83.08188
935.39        83.05693
935.78        82.82941
936.17        82.08033
936.56        80.55637
936.96        81.95935
937.35        80.66325
937.74        81.09441
938.13        81.54803
938.53        82.37492
938.92        83.63091
939.31        85.39114
939.70        87.26963
940.09        88.02073
940.49         87.2465
940.88        85.45447
941.27        83.54313
941.66        82.58067
942.05        82.72178
942.44        83.63503
942.84        84.95777
943.23        86.13177
943.62        86.82048
944.01        87.14952
944.40        87.19479
944.79        87.07526
945.18        86.83254
945.57        86.39058
945.97        85.63351
946.36        84.48601
946.75        83.21619
947.14         82.1049
947.53        81.44038
947.92        81.41208
948.31        81.97542
948.70        83.08328
949.09        84.52625
949.48        85.72826
949.87        86.33183
950.26        86.35117
950.65        86.01273
951.04        85.74051
951.43        85.66306
951.82        85.69467
952.21        85.55933
952.60        84.85426
952.99        83.55241
953.38        81.81358
953.77        80.21675
954.16        79.56416
954.55        79.97193
954.94        81.27171
955.33        82.63973
955.72        82.68594
956.11        81.09918
956.50        78.21629
956.89        75.22292
957.28        74.32766
957.66        76.20734
958.05        79.94096
958.44        84.07244
958.83        86.42514
959.22        86.44724
959.61        84.74402
960.00        82.21918
960.39         80.3533
960.78        79.63905
961.16        79.67932
961.55        79.92982
961.94        79.49606
962.33        78.20095
962.72         76.5165
963.11        75.03263
963.49         74.4436
963.88        74.85869
964.27        76.08029
964.66        77.65755
965.04        78.64824
965.43        78.57159
965.82        77.74664
966.21          76.747
966.60        76.33957
966.98        76.68208
967.37        77.49392
967.76        78.39143
968.15        78.65086
968.53        78.07442
968.92         76.9216
969.31        75.65833
969.69        74.84933
970.08        74.61941
970.47        74.82815
970.86        75.16022
971.24        75.06822
971.63        74.40131
972.02        73.31145
972.40        72.26106
972.79        72.05959
973.17        73.02152
973.56        74.80145
973.95        76.80686
974.33        77.88867
974.72        77.57902
975.11        76.22339
975.49        74.51219
975.88        73.40224
976.26        73.03569
976.65        73.20998
977.04        73.35527
977.42          72.257
977.81        69.75151
978.19        66.52148
978.58        64.11364
978.96        63.99654
979.35        66.34368
979.74        70.84041
980.12        76.65979
980.51        80.68278
980.89        81.76601
981.28        80.60487
981.66        78.32185
982.05        76.41815
982.43        75.29242
982.82        74.47527
983.20         74.1638
983.59        74.73225
983.97        76.27236
984.35        78.90929
984.74        81.82277
985.12        83.26099
985.51        82.19124
985.89        78.83188
986.28        74.45061
986.66        71.16786
987.04        69.88373
987.43        70.11441
987.81         70.7704
988.20        70.41792
988.58        68.58013
988.96        64.99975
989.35        60.43523
989.73        58.98891
990.12        63.25478
990.50        71.15816
990.88        77.80101
991.27        79.62036
991.65        77.19854
992.03        71.69298
992.42        65.36996
992.80        62.32785
993.18        63.83579
993.56        67.68452
993.95        71.99944
994.33        75.25789
994.71        76.98208
995.10         78.0476
995.48        78.24944
995.86        76.97087
996.24        74.15328
996.63        69.49255
997.01        64.16731
997.39        61.91866
997.77        64.35302
998.15        70.67425
998.54        77.49714
998.92         80.1489
999.30        77.26425
999.68        70.02827
1000.06        60.52854
1000.45        53.87938
1000.83         52.1613
1001.21        53.66588
1001.59        56.79123
1001.97        59.89927
1002.35         62.5587
1002.73        65.70487
1003.12        68.47987
1003.50        68.07608
1003.88        63.69217
1004.26        56.96944
1004.64        50.79937
1005.02        47.48936
1005.40        47.10525
1005.78        49.37015
1006.16        55.45843
1006.54        64.27197
1006.92          70.993
1007.30        74.32852
1007.69        75.22823
1008.07        75.23045
1008.45        74.60442
1008.83        72.20881
1009.21        64.27525
1009.59        37.90998
1009.97       -32.43043
1010.35       -124.1254
1010.73        -103.257
1011.11       -44.61668
1011.49       -4.468359
1011.86        23.69518
1012.24         39.7849
1012.62        47.50927
1013.00        50.47614
1013.38        50.18879
1013.76        48.33804
1014.14         49.9647
1014.52        58.94907
1014.90         76.1035
1015.28        95.49338
1015.66        100.9846
1016.04          84.248
1016.41        50.78899
1016.79        20.43884
1017.17        10.97042
1017.55        17.16881
1017.93         27.8935
1018.31        37.58212
1018.69        43.70297
1019.06        46.87162
1019.44        47.79922
1019.82        46.92985
1020.20        44.83885
1020.58        41.27796
1020.95        34.61216
1021.33        0.258884
1021.71        848.9421
1022.09        189.9699
1022.46        162.8757
1022.84        159.2781
1023.22        166.3537
1023.60         192.506
1023.97        463.8965
1024.35         3.73621
1024.73        56.63107
