SpectraSmart Spectrum 2.9.0.0
--------- Device Information -----------
Spectrum Name :  反射率_0
Saving Time :  2024/04/26 00:51:51
Spectro-Module Model Name : SE2030-DUVN
Spectro-Module Serial Number : OS361AC55029948
Wavelength Start : 200
Wavelength End : 1025
Wavelength Unit : Wavelength(nm)
Spectrum Unit : Reflectance(%)
-----------Spectrum Setting ------------
Integration Time : 20ms
Average : 10
Boxcar : 0
Background removal :  enabled
linearity correction :  enabled
SC :  disabled
Intensity correction :  disabled
DWT denoise :  enabled
savitzky-golay :  disabled
FFT :  disabled
Running average :  disabled
Kalman :  disabled
High pass :  disabled
---------------BEGIN--------------------
Wavelength(nm)             Reflectance(%)
200.29               0
200.75        82.69309
201.21        77.99368
201.67        72.00587
202.13        66.72163
202.58        62.53419
203.04        59.35129
203.50         57.5229
203.96        57.70005
204.42        59.52737
204.88        62.28055
205.34        65.03354
205.80        67.09501
206.26         68.7065
206.72        70.61732
207.18        72.85077
207.64        72.81448
208.10        68.26371
208.55        62.89363
209.01        60.49208
209.47        61.25493
209.93         64.0891
210.39        69.00164
210.85        73.69711
211.31        72.93829
211.77        65.48048
212.23        53.36496
212.69        41.51722
213.14        37.53032
213.60        42.62417
214.06        54.90479
214.52        69.29575
214.98        77.77695
215.44        78.29894
215.90        73.31385
216.36        66.50131
216.81        62.99858
217.27        63.97023
217.73        67.37203
218.19        70.38012
218.65        69.37315
219.11        63.09972
219.57        51.04342
220.02        34.88364
220.48        24.65587
220.94         26.4306
221.40        37.74644
221.86        49.46213
222.32        51.89202
222.77        45.80019
223.23        36.21765
223.69        28.08232
224.15        26.37276
224.61        30.55432
225.06        38.08358
225.52        45.47714
225.98        48.39233
226.44        46.11676
226.90        40.65592
227.36        34.49043
227.81        30.90947
228.27        30.94062
228.73        33.22881
229.19        36.60934
229.65        39.37623
230.10        40.92949
230.56        41.80057
231.02        42.31446
231.48        42.78878
231.93        43.30166
232.39        43.71113
232.85        43.89792
233.31        43.77832
233.77         43.3273
234.22        42.57751
234.68        41.73151
235.14         41.0915
235.60        40.82518
236.05        40.98366
236.51        41.29044
236.97         41.2648
237.43        40.81821
237.88        40.00366
238.34        39.37825
238.80        40.43427
239.26        43.71756
239.71        48.90982
240.17        54.28985
240.63         57.3215
241.08         57.3848
241.54        55.08711
242.00        51.96539
242.46        50.10028
242.91        50.32599
243.37        53.14907
243.83         64.2946
244.28        103.6684
244.74        152.9845
245.20        133.4516
245.66        111.1395
246.11        102.7909
246.57        100.9775
247.03         101.994
247.48        101.0811
247.94        76.19658
248.40        70.54074
248.85         72.2221
249.31        74.32143
249.77        76.36398
250.22         78.8757
250.68        82.43604
251.14        87.20766
251.59         90.5022
252.05         89.4709
252.51        85.36798
252.96        79.74672
253.42        74.61127
253.88        69.81913
254.33        64.91829
254.79        62.04216
255.25        63.47755
255.70        68.34644
256.16         74.8972
256.62        79.92004
257.07        80.29235
257.53        76.90746
257.99         71.1289
258.44        65.34885
258.90        63.11388
259.35        63.53685
259.81        65.11765
260.27        65.73762
260.72        63.41092
261.18        58.92708
261.63         53.2621
262.09        48.13037
262.55        44.83697
263.00        43.31411
263.46        42.94653
263.91        42.77929
264.37        42.07081
264.83        40.65137
265.28        38.71881
265.74        36.85386
266.19        35.67056
266.65         35.3613
267.11        35.55415
267.56        35.72883
268.02        35.27343
268.47        34.08848
268.93        32.40754
269.38        30.58257
269.84        29.43759
270.30        29.18615
270.75        29.58636
271.21        30.19659
271.66        30.36073
272.12        29.90134
272.57        29.02504
273.03        28.05483
273.48        27.39356
273.94        27.16696
274.39        27.18981
274.85        27.25775
275.31        27.07305
275.76        26.56613
276.22        25.88222
276.67        25.17093
277.13        24.72578
277.58        24.55091
278.04        24.57076
278.49         24.5912
278.95        24.40137
279.40        23.94134
279.86        23.34761
280.31        22.72083
280.77        22.31749
281.22        22.14179
281.68        22.12357
282.13        22.15842
282.59        22.13426
283.04        22.01381
283.50        21.87512
283.95        21.69917
284.41          21.473
284.86        21.20377
285.32        20.89894
285.77        20.66249
286.22        20.71354
286.68        21.04263
287.13        21.54868
287.59        22.00545
288.04        22.06701
288.50        21.70473
288.95        21.03196
289.41        20.28545
289.86        19.71837
290.32        19.45751
290.77        19.40838
291.22        19.53493
291.68        19.74321
292.13        19.99813
292.59         20.3279
293.04        20.72658
293.50        21.18027
293.95        21.66147
294.40        22.12708
294.86        22.54276
295.31        22.87922
295.77        23.13658
296.22        23.33244
296.68         23.4791
297.13        23.56788
297.58        23.63245
298.04        23.70469
298.49         23.8478
298.95        24.18845
299.40        24.73033
299.85        25.42373
300.31        26.16755
300.76        26.81241
301.21        27.29143
301.67        27.66009
302.12        27.90668
302.58         28.0717
303.03         28.1636
303.48         28.1882
303.94        28.24251
304.39        28.44238
304.84        28.81004
305.30        29.30398
305.75        29.78619
306.20        30.05112
306.66        30.07588
307.11        29.91179
307.57        29.69778
308.02        29.56986
308.47        29.59312
308.93        29.71951
309.38        29.89375
309.83         30.0616
310.29        30.18786
310.74         30.2807
311.19        30.33774
311.65        30.35146
312.10        30.31926
312.55        30.24286
313.00         30.1039
313.46        29.88577
313.91        29.59347
314.36        29.26309
314.82        28.97748
315.27        28.84399
315.72        28.88717
316.18        29.06742
316.63        29.31106
317.08        29.47305
317.53        29.50283
317.99        29.42303
318.44        29.28981
318.89         29.1989
319.35        29.16744
319.80        29.17176
320.25        29.13865
320.70        28.95654
321.16        28.61324
321.61        28.15548
322.06        27.69044
322.51         27.3742
322.97        27.22916
323.42        27.21737
323.87        27.23294
324.32        27.09878
324.78        26.76982
325.23        26.30946
325.68         25.8094
326.13        25.42216
326.59        25.18907
327.04        25.08236
327.49        25.04676
327.94        24.99293
328.39        24.89148
328.85         24.7626
329.30        24.65905
329.75        24.63061
330.20         24.6881
330.66        24.78546
331.11         24.8973
331.56        24.94457
332.01        24.89978
332.46        24.76878
332.92        24.57431
333.37        24.38964
333.82          24.234
334.27        24.11133
334.72        23.97974
335.17        23.76634
335.63        23.46541
336.08        23.11129
336.53        22.81308
336.98        22.74281
337.43        22.92446
337.88         23.3023
338.34         23.6937
338.79        23.84658
339.24        23.67227
339.69        23.23872
340.14        22.72832
340.59        22.46485
341.05        22.52657
341.50        22.81776
341.95        23.16604
342.40        23.31638
342.85        23.21226
343.30        22.94832
343.75        22.62467
344.20        22.41346
344.66        22.36571
345.11        22.38085
345.56        22.43339
346.01        22.48705
346.46        22.51216
346.91        22.54431
347.36        22.48313
347.81        22.16129
348.26        21.58928
348.72         20.8605
349.17        20.17061
349.62        19.92367
350.07        20.19849
350.52        20.84753
350.97        21.63828
351.42        22.21096
351.87          22.454
352.32        22.46769
352.77        22.30123
353.22        22.04195
353.67        21.74412
354.13        21.38461
354.58        21.02975
355.03        20.82758
355.48        20.80407
355.93        20.94032
356.38        21.12416
356.83        21.15828
357.28        20.99484
357.73        20.68494
358.18        20.33411
358.63        20.11298
359.08        20.06343
359.53        20.13393
359.98        20.22658
360.43        20.19218
360.88        19.99946
361.33        19.69773
361.78        19.39114
362.23        19.24457
362.68        19.28701
363.13        19.45044
363.58         19.6205
364.03        19.62283
364.48        19.41898
364.93        19.07742
365.38        18.67582
365.83        18.33644
366.28        18.10558
366.73        17.94485
367.18        17.85578
367.63        17.84171
368.08        17.88378
368.53         17.9779
368.98        18.06597
369.43         18.0508
369.88         17.9177
370.33        17.69994
370.78         17.4463
371.23        17.24697
371.68         17.1349
372.13        17.07819
372.58        17.09134
373.03        17.19398
373.48        17.36704
373.93        17.59868
374.38         17.7951
374.83        17.81163
375.28        17.62701
375.72        17.27442
376.17        16.88707
376.62        16.64549
377.07        16.60241
377.52        16.70319
377.97        16.87249
378.42        16.98425
378.87        16.99626
379.32        16.94866
379.77        16.86674
380.22        16.78427
380.67        16.71244
381.11        16.63471
381.56         16.5451
382.01        16.44778
382.46        16.34547
382.91        16.24511
383.36        16.15083
383.81        16.06369
384.26        15.98633
384.71        15.92137
385.15         15.8608
385.60        15.80254
386.05        15.73687
386.50        15.65544
386.95        15.57057
387.40        15.50532
387.85         15.4678
388.29        15.45766
388.74        15.44269
389.19        15.35873
389.64        15.20045
390.09        14.97621
390.54        14.76989
390.98        14.72138
391.43        14.85974
391.88        15.12741
392.33        15.38484
392.78        15.42688
393.23        15.23288
393.67        14.87573
394.12        14.51802
394.57        14.33314
395.02        14.35611
395.47        14.52467
395.91        14.75496
396.36        14.87662
396.81        14.83809
397.26        14.68248
397.71        14.47629
398.15        14.30212
398.60        14.20668
399.05        14.16636
399.50        14.13053
399.95        13.98912
400.39        13.79312
400.84        13.52746
401.29        13.29196
401.74        13.23786
402.18        13.40596
402.63        13.72224
403.08        14.07248
403.53        14.27408
403.97        14.27789
404.42        14.13906
404.87        13.92179
405.32        13.74262
405.76        13.64468
406.21        13.59477
406.66        13.58347
407.11        13.60296
407.55        13.64712
408.00        13.72163
408.45        13.79554
408.90         13.7965
409.34        13.70858
409.79         13.5534
410.24         13.3921
410.68        13.31252
411.13        13.33408
411.58        13.43445
412.03         13.5638
412.47        13.63494
412.92        13.61215
413.37        13.52294
413.81        13.41879
414.26        13.39229
414.71        13.45448
415.15         13.5791
415.60        13.69434
416.05        13.70646
416.49        13.59416
416.94        13.40073
417.39        13.18671
417.83          13.055
418.28        13.04113
418.73        13.10013
419.17        13.19774
419.62        13.27422
420.07        13.31114
420.51        13.32933
420.96        13.31028
421.41        13.22012
421.85        13.06132
422.30        12.86489
422.74        12.68055
423.19         12.6102
423.64        12.65587
424.08        12.79691
424.53        12.96431
424.98        13.06019
425.42         13.0575
425.87        12.97776
426.31        12.85592
426.76        12.78883
427.21        12.77709
427.65        12.70658
428.10        12.63555
428.54        12.73273
428.99        13.00103
429.44        13.36767
429.88        13.67844
430.33         13.7328
430.77        13.50379
431.22        13.05724
431.66        12.58623
432.11         12.4339
432.56        12.63304
433.00        13.01908
433.45        13.40874
433.89        13.64867
434.34        13.62859
434.78        13.28266
435.23        12.85281
435.67         12.7946
436.12        13.07512
436.57         13.2285
437.01        13.17826
437.46        13.12919
437.90        13.09396
438.35        13.01312
438.79        12.91166
439.24        12.86508
439.68        12.89024
440.13        12.91163
440.57        12.92005
441.02        13.07633
441.46        13.26776
441.91        13.04821
442.35        12.54386
442.80        12.30941
443.24        12.33252
443.69        12.40784
444.13        12.45055
444.58        12.32609
445.02        12.07204
445.47        11.98034
445.91        12.03095
446.36        11.97654
446.80        11.81202
447.24        11.68344
447.69        11.62262
448.13        11.59949
448.58        11.62128
449.02        11.69548
449.47        11.77306
449.91        11.77151
450.36        11.67955
450.80        11.51624
451.25        11.35526
451.69         11.3035
452.13        11.38319
452.58        11.54674
453.02        11.72661
453.47        11.81199
453.91        11.78078
454.36        11.67378
454.80        11.52996
455.24        11.41613
455.69        11.36405
456.13        11.34302
456.58        11.36889
457.02        11.44831
457.46        11.57946
457.91        11.75682
458.35        11.93045
458.79        12.00955
459.24        11.98696
459.68        11.87344
460.13        11.75141
460.57        11.71702
461.01        11.80351
461.46        11.97112
461.90        12.15333
462.34        12.23291
462.79        12.18179
463.23        12.03017
463.68        11.85755
464.12         11.7976
464.56        11.88653
465.01        12.08471
465.45        12.28123
465.89        12.35775
466.34        12.30238
466.78        12.09075
467.22        11.84465
467.67        11.87772
468.11          12.164
468.55        12.32944
468.99         12.3245
469.44         12.3224
469.88        12.36076
470.32        12.48564
470.77        12.65338
471.21        12.70274
471.65        12.61596
472.10        12.52002
472.54        12.45229
472.98        12.43616
473.42        12.48791
473.87        12.60718
474.31        12.74728
474.75        12.82653
475.20        12.83211
475.64        12.78004
476.08        12.72502
476.52        12.75182
476.97         12.8768
477.41        13.07559
477.85        13.28074
478.29        13.40869
478.74         13.4399
479.18        13.33439
479.62         13.1657
480.06        13.27106
480.50        13.39524
480.95        13.54681
481.39        13.58995
481.83        13.59548
482.27         13.5589
482.72         13.3928
483.16        13.17286
483.60        13.20313
484.04        13.50445
484.48        13.64911
484.93        13.82175
485.37        14.27391
485.81        14.91375
486.25        15.09443
486.69          20.019
487.14        15.82928
487.58        10.53053
488.02        12.80278
488.46        14.62765
488.90        14.63047
489.34        14.55115
489.79        14.46845
490.23        15.34868
490.67        15.83583
491.11        15.71226
491.55        15.58675
491.99        15.45315
492.43        15.32633
492.88        15.27632
493.32        15.37644
493.76        15.51226
494.20        15.76219
494.64        16.06875
495.08        16.40491
495.52        16.74289
495.96        17.06536
496.41        17.31603
496.85         17.4748
497.29        17.54736
497.73         17.3763
498.17        17.17509
498.61        17.37017
499.05        17.96273
499.49        18.10934
499.93        18.23993
500.37        18.38072
500.82        18.47568
501.26        18.70111
501.70        18.96246
502.14        19.10858
502.58         19.1202
503.02         19.1507
503.46        19.20796
503.90        19.19052
504.34        19.13506
504.78        19.14787
505.22          19.243
505.66        19.40204
506.10        19.56916
506.54        19.63922
506.98        19.59261
507.42        19.49607
507.86        19.37974
508.30        19.41769
508.74        19.61599
509.18         19.9252
509.62        20.26109
510.06          20.486
510.50        20.56183
510.94        20.53856
511.38        20.45822
511.82        20.38703
512.26        20.35377
512.70        20.33218
513.14        20.34592
513.58        20.43652
514.02        20.59117
514.46        20.79184
514.90        20.97067
515.34        20.98089
515.78        20.77289
516.22        20.55019
516.66         20.3967
517.10        19.99791
517.54        19.38406
517.98        20.16399
518.42        19.96346
518.86        20.32924
519.30        20.52913
519.74        20.78626
520.18        21.02504
520.62        21.09392
521.06        20.99877
521.50        20.76052
521.93        20.46988
522.37        20.29001
522.81        20.26371
523.25        20.34686
523.69        20.48212
524.13        20.57723
524.57        20.60149
525.01        20.58252
525.45        20.53548
525.89        20.48315
526.32          20.432
526.76        20.36993
527.20        20.29083
527.64        20.19801
528.08        20.09649
528.52        19.97157
528.96        19.82736
529.40        19.72141
529.83        19.66962
530.27         19.4609
530.71        19.46654
531.15        19.35284
531.59         19.2352
532.03        19.10985
532.46        19.02361
532.90        19.05291
533.34        19.19446
533.78        19.41205
534.22        19.62592
534.66        19.72056
535.09        19.66694
535.53        19.51006
535.97        19.29806
536.41        19.11392
536.85        18.99141
537.28        18.91319
537.72        18.87825
538.16         18.8838
538.60         18.9243
539.04        18.98864
539.47        19.06803
539.91        19.19363
540.35        19.33964
540.79        19.42708
541.22        19.46176
541.66        19.53297
542.10        19.64484
542.54        19.73953
542.97        19.83141
543.41        19.97795
543.85        20.17935
544.29         20.4327
544.72         20.6794
545.16        20.83543
545.60        20.88685
546.04        20.85241
546.47        20.83203
546.91        20.99492
547.35        21.35666
547.79         21.8649
548.22        22.36825
548.66        22.60946
549.10        22.55564
549.53        22.32777
549.97        22.08555
550.41        22.01733
550.84        22.18347
551.28         22.5362
551.72        22.99637
552.15        23.41799
552.59        23.73787
553.03        23.99103
553.46        24.18309
553.90        24.34391
554.34        24.49182
554.77        24.58741
555.21        24.63617
555.65         24.7272
556.08         24.8813
556.52        24.77902
556.96         25.0055
557.39        25.09754
557.83        25.23344
558.27        25.38725
558.70        25.55552
559.14        25.71586
559.57        25.84959
560.01        25.97283
560.45        26.06487
560.88        26.09429
561.32         26.0826
561.75        26.02667
562.19        25.98189
562.63        25.99704
563.06        26.07907
563.50        26.21895
563.93        26.38412
564.37        26.53396
564.80        26.64706
565.24        26.74723
565.68        26.83733
566.11        26.92391
566.55        27.03287
566.98        27.15394
567.42         27.3111
567.85        27.53617
568.29        27.84424
568.72        28.13497
569.16        28.41874
569.60        28.82643
570.03        29.22808
570.47        29.29444
570.90        29.14309
571.34        28.88703
571.77        29.19237
572.21        29.33407
572.64        29.38215
573.08        29.00384
573.51        28.23602
573.95        29.57722
574.38        31.60683
574.82        30.48133
575.25        30.39283
575.69        29.46687
576.12        29.04305
576.56        28.95411
576.99        29.46811
577.42        30.67912
577.86        30.79179
578.29        30.55621
578.73        32.18361
579.16        29.57602
579.60        27.00445
580.03        28.17691
580.47        30.00823
580.90        30.47262
581.33        29.96231
581.77        29.32551
582.20        32.17698
582.64        31.76091
583.07        27.11664
583.51        26.42286
583.94        25.68967
584.37        26.60754
584.81        27.80599
585.24        29.25875
585.68        30.03857
586.11        29.27114
586.54        27.15963
586.98        26.36916
587.41        26.62924
587.85        27.80032
588.28          28.478
588.71        27.06825
589.15        26.27199
589.58        26.62715
590.01         27.0924
590.45        27.44827
590.88         27.6102
591.31        27.20046
591.75        27.01385
592.18        27.06288
592.61        27.63339
593.05        28.38776
593.48        29.52373
593.91        29.63446
594.35        27.36374
594.78        26.96267
595.21        27.11517
595.65        28.40653
596.08         29.3777
596.51        28.35324
596.94         27.8244
597.38        28.36349
597.81        29.74118
598.24        30.38486
598.68        30.16749
599.11        30.16292
599.54        31.38236
599.97        32.75836
600.41        30.93843
600.84        31.47344
601.27         32.4084
601.70         32.3384
602.14        32.58733
602.57        32.52411
603.00        33.26531
603.43        34.51668
603.87        35.79369
604.30        35.97726
604.73        35.28371
605.16        35.14294
605.60        36.14759
606.03         37.1986
606.46         38.0544
606.89        38.18717
607.32        37.65433
607.76        37.86668
608.19        39.47795
608.62         39.2983
609.05        39.01442
609.48        39.61426
609.92        39.81077
610.35        40.02892
610.78        41.62689
611.21        42.53272
611.64        40.80717
612.07        41.47947
612.50        41.95797
612.94         42.5019
613.37         42.4882
613.80        42.87503
614.23        43.53184
614.66        43.82302
615.09        44.30361
615.52        44.57504
615.96        44.73377
616.39        45.01968
616.82        44.67868
617.25        44.79545
617.68        45.51206
618.11        46.09012
618.54        46.45294
618.97        46.25426
619.40        45.79155
619.84        45.86693
620.27        46.79237
620.70        47.45594
621.13        47.77854
621.56        47.55033
621.99        47.02116
622.42          47.605
622.85        48.93604
623.28        48.94267
623.71         48.6389
624.14        48.26599
624.57        48.24507
625.00        47.92715
625.43        48.04214
625.86         47.5098
626.29        47.43157
626.72        47.69707
627.15        47.36248
627.58        47.35479
628.01        47.25999
628.44        47.29739
628.87        46.90656
629.30         46.8238
629.73        46.82924
630.16        46.60677
630.59        46.13913
631.02        45.61266
631.45        45.09369
631.88        44.59807
632.31        44.14915
632.74        43.74057
633.17        43.35953
633.60        42.98471
634.03        42.60761
634.46        42.23847
634.89        41.86227
635.32        41.45325
635.75         41.0108
636.18        40.54197
636.61        40.07508
637.04        39.65548
637.47        39.28745
637.89        38.95575
638.32        38.62864
638.75        38.27891
639.18        37.90416
639.61        37.52965
640.04        37.15645
640.47        36.77893
640.90        36.40522
641.33        36.03318
641.76        35.70061
642.18        35.52335
642.61        35.51323
643.04        35.55574
643.47        35.55536
643.90        35.81894
644.33        35.58003
644.76        35.47476
645.18        35.34069
645.61        35.29105
646.04        35.34875
646.47        35.48084
646.90        35.69929
647.33        35.99337
647.75        36.36317
648.18        36.83842
648.61        37.32143
649.04        37.65343
649.47        37.80946
649.89        37.75868
650.32        37.73769
650.75         38.1634
651.18        39.03387
651.61        40.10273
652.03        41.08459
652.46          41.495
652.89        41.57555
653.32        41.68155
653.74         42.0873
654.17        43.34217
654.60        44.05301
655.03        43.28396
655.46        44.41695
655.88        47.42711
656.31        51.22219
656.74        119.5361
657.16         77.8288
657.59         27.4186
658.02        20.64611
658.45        35.65637
658.87        46.44885
659.30        48.93584
659.73        49.07178
660.15        47.32009
660.58        49.66007
661.01        51.16477
661.44        49.82666
661.86        49.44446
662.29        49.53047
662.72        50.42165
663.14        51.87574
663.57        52.08598
664.00        51.24892
664.42        51.24712
664.85        52.15392
665.27        52.78659
665.70        52.95263
666.13        53.01338
666.55          52.952
666.98        52.66944
667.41        52.33358
667.83        52.25732
668.26        52.51017
668.69          52.981
669.11         53.4734
669.54         53.9153
669.96        53.73394
670.39        53.46044
670.82        53.12896
671.24        53.00154
671.67        53.19816
672.09        53.72132
672.52        54.31344
672.94        54.85803
673.37        54.39476
673.80        54.28029
674.22        54.32388
674.65        54.35648
675.07        54.38393
675.50        54.41145
675.92        54.46822
676.35        54.61781
676.77        54.84392
677.20        55.11382
677.62        55.41201
678.05        55.54218
678.47        55.44558
678.90        55.85485
679.32        55.59254
679.75        55.56422
680.17         55.6462
680.60        55.68126
681.02        55.72549
681.45        55.73132
681.87        55.70929
682.30        55.75968
682.72        55.88724
683.15        55.86598
683.57        55.83081
684.00        56.22943
684.42        57.11532
684.85        57.50982
685.27        57.39405
685.70        57.17722
686.12        56.99229
686.54        56.93464
686.97        57.05021
687.39        57.31057
687.82        57.59721
688.24        57.79165
688.66        57.84386
689.09        57.66105
689.51         57.5913
689.94        57.57616
690.36        57.73777
690.78        57.97759
691.21        58.23178
691.63        58.49685
692.06        58.69421
692.48         58.6483
692.90        58.46177
693.33        58.46522
693.75         58.6935
694.17        59.00384
694.60        59.31584
695.02        59.47799
695.44        59.44679
695.87        59.55857
696.29        59.80515
696.71        59.56928
697.14        59.10409
697.56        59.59802
697.98        60.70935
698.41        61.19545
698.83        60.15941
699.25        59.75161
699.68        59.83013
700.10        59.78407
700.52        59.62823
700.94        59.95356
701.37        60.26045
701.79        60.66803
702.21        60.96408
702.64        61.21053
703.06        61.35969
703.48        61.37376
703.90        61.27993
704.33        60.95337
704.75        60.72818
705.17        60.60985
705.59        60.72615
706.01        60.90982
706.44         61.0997
706.86        61.69396
707.28        61.82109
707.70        62.20497
708.12        62.50827
708.55        62.43853
708.97        62.05032
709.39        61.76522
709.81        61.69416
710.23        61.67223
710.66        61.73378
711.08        62.07276
711.50        62.52154
711.92        62.71472
712.34        62.58932
712.76        62.24044
713.19        61.85307
713.61        61.76213
714.03        62.02829
714.45        62.54233
714.87        63.07621
715.29         63.2729
715.71        63.05854
716.13         62.5618
716.56        61.99763
716.98        61.73584
717.40        61.86977
717.82        62.27995
718.24        62.81684
718.66        63.22684
719.08        63.41927
719.50        63.46973
719.92        63.41866
720.34        63.34889
720.76        63.30107
721.19        63.14071
721.61        63.09958
722.03        63.11835
722.45        63.26327
722.87        63.51806
723.29        63.81721
723.71         64.0352
724.13        64.13169
724.55        64.13507
724.97        64.09892
725.39        64.09109
725.81        64.12852
726.23        64.23429
726.65        64.38411
727.07        64.27414
727.49        64.32219
727.91        64.22215
728.33        64.13411
728.75        64.09886
729.17        64.13442
729.59        64.21102
730.01        64.32968
730.43        64.49583
730.85        64.70281
731.27        64.97365
731.69        65.23019
732.10        65.33439
732.52        65.27587
732.94        65.08217
733.36        64.89034
733.78        64.95548
734.20        65.35174
734.62        65.67491
735.04        66.71788
735.46        66.68005
735.88        66.10516
736.30        65.98682
736.72        67.17417
737.13        67.49639
737.55        67.00146
737.97        66.98025
738.39        67.40304
738.81        66.71217
739.23        65.38306
739.65        66.06929
740.06        68.27073
740.48        68.63541
740.90        67.28201
741.32        66.00545
741.74        66.83171
742.16        66.97975
742.57        67.02637
742.99        67.65896
743.41        68.67648
743.83        69.30744
744.25        69.39874
744.67        69.15544
745.08        68.79482
745.50        68.68018
745.92        68.92162
746.34        69.38718
746.75        69.90457
747.17        70.18641
747.59         70.1847
748.01        70.00168
748.42         69.8184
748.84        69.93628
749.26        70.42828
749.68        71.06718
750.09        71.70752
750.51        72.35568
750.93         72.8253
751.35        72.59502
751.76        71.85763
752.18        71.55044
752.60        71.69381
753.01         71.5826
753.43        71.26783
753.85        71.33706
754.27        71.83076
754.68        72.51447
755.10         73.2238
755.52        73.83171
755.93        74.23894
756.35        74.40139
756.77        74.42414
757.18        74.45443
757.60        74.56428
758.02        74.89655
758.43        75.07323
758.85        74.87085
759.26        73.06464
759.68        72.47321
760.10        74.40913
760.51        75.02802
760.93        74.57489
761.34        73.43549
761.76        72.89002
762.18        72.33808
762.59        72.22207
763.01        72.50169
763.42        73.14307
763.84        73.74849
764.26        74.22675
764.67        74.60003
765.09        74.77022
765.50        74.79005
765.92        74.55129
766.33         73.3509
766.75        71.70549
767.16        71.15258
767.58        71.88963
768.00        73.31888
768.41        75.05821
768.83        76.44991
769.24         76.8709
769.66        76.13857
770.07        74.34497
770.49        72.87012
770.90        71.99465
771.32        72.99074
771.73        75.17414
772.15         74.8619
772.56        72.45266
772.97        71.98104
773.39        73.38634
773.80        73.87667
774.22        73.22372
774.63        72.93697
775.05        73.05091
775.46        73.13183
775.88        73.13291
776.29        73.09504
776.70        73.02431
777.12        73.07418
777.53        73.27068
777.95        73.42909
778.36         73.4424
778.77        73.56468
779.19        73.13544
779.60        72.76381
780.02        72.39575
780.43        72.38887
780.84        72.85644
781.26        73.20341
781.67        73.44619
782.09        74.69331
782.50        76.35522
782.91        75.51463
783.33        73.14214
783.74        72.35211
784.15        73.38894
784.57        74.16634
784.98         74.3215
785.39        74.14837
785.81        73.66582
786.22        73.10059
786.63        72.74241
787.04        72.72749
787.46         73.1238
787.87        74.05801
788.28        75.21364
788.70        75.83859
789.11        75.77821
789.52         75.3428
789.93        74.75199
790.35        74.20811
790.76        73.84525
791.17        73.77345
791.58        73.95291
792.00        74.05402
792.41        74.00442
792.82        74.20115
793.23        74.63152
793.65        74.31868
794.06        73.61005
794.47        74.60694
794.88        76.60043
795.29        76.31202
795.71        73.95381
796.12        72.06561
796.53        71.20846
796.94        70.81257
797.35        71.01869
797.76        72.19379
798.18        73.79178
798.59        74.79356
799.00        74.84613
799.41         74.1543
799.82        73.10214
800.23        72.39272
800.64         72.2166
801.06        72.27665
801.47        72.54571
801.88        72.89077
802.29        73.22366
802.70        73.61473
803.11        73.96004
803.52        74.05595
803.93        73.88286
804.34        73.46407
804.75        72.97549
805.17        72.82555
805.58        73.14417
805.99        73.49065
806.40        73.71175
806.81        74.36005
807.22        74.96273
807.63        73.78648
808.04        71.45247
808.45        70.48253
808.86         71.1095
809.27        72.07703
809.68        72.96578
810.09        73.54807
810.50        73.60487
810.91        73.22299
811.32        72.64933
811.73        72.28345
812.14        72.24067
812.55         72.3682
812.96        72.60227
813.37        72.82529
813.78        72.97858
814.19        73.16512
814.60        73.25703
815.01         73.0338
815.42        72.48569
815.83        71.63239
816.24        70.82213
816.65        70.67193
817.05        71.34928
817.46        72.64461
817.87        74.02956
818.28        74.55196
818.69        73.96964
819.10        72.52661
819.51        70.87505
819.92        70.12305
820.33        70.55842
820.74        71.84775
821.14        73.38088
821.55        74.06081
821.96        73.63858
822.37        72.48866
822.78        71.13044
823.19        70.32687
823.60        70.29124
824.00         70.8228
824.41         71.5893
824.82        72.13759
825.23        72.26588
825.64        72.14492
826.04        71.91779
826.45        71.77749
826.86        71.77788
827.27        71.80611
827.68        71.82526
828.08        71.82722
828.49        71.74551
828.90        71.67099
829.31         71.5517
829.72        71.27988
830.12        70.89165
830.53         70.4082
830.94        70.05556
831.35        70.13542
831.75        70.72561
832.16        71.68147
832.57         72.7653
832.97        73.47037
833.38        73.56487
833.79         73.1848
834.20         72.6077
834.60         72.2638
835.01        72.29137
835.42        72.55645
835.82        72.86624
836.23        72.81998
836.64        72.36789
837.04        71.68102
837.45        70.99688
837.86        70.68302
838.26        70.83148
838.67        71.27135
839.08        71.85262
839.48        72.30176
839.89        72.47575
840.29        72.47858
840.70         72.2933
841.11        71.87696
841.51         71.2794
841.92        70.49951
842.33        69.76952
842.73        69.48771
843.14        69.70225
843.54        70.34212
843.95        71.09506
844.35        71.48244
844.76        71.35675
845.17        70.87391
845.57        70.25859
845.98        69.86841
846.38        69.80258
846.79        69.91963
847.19        70.14653
847.60        70.28046
848.00        70.28981
848.41        70.23257
848.81         70.1548
849.22        70.03371
849.62        69.92891
850.03        69.83364
850.43        69.83646
850.84        70.03604
851.24        70.48013
851.65        70.97183
852.05        71.54825
852.46        72.09716
852.86        72.57089
853.27        73.02664
853.67        73.10715
854.07        72.38431
854.48        70.93298
854.88        68.92085
855.29        67.05117
855.69        66.33495
856.10        66.95866
856.50        68.82179
856.90        71.26999
857.31        72.76243
857.71        72.80853
858.12        71.75635
858.52         70.3271
858.92         69.4856
859.33        69.43997
859.73        69.91721
860.13        70.68942
860.54        71.28536
860.94        71.57057
861.34        71.69376
861.75        71.68934
862.15        71.68084
862.55        71.68192
862.96         71.6243
863.36        71.60674
863.76        71.78093
864.17        72.15883
864.57        72.74572
864.97          73.384
865.38        73.81938
865.78        74.03756
866.18        74.01109
866.58        73.89816
866.99        73.97153
867.39        74.34801
867.79        74.99381
868.19        75.56357
868.60        75.41361
869.00        74.42434
869.40        72.82631
869.80        71.40293
870.21        71.35522
870.61        73.01382
871.01        75.99696
871.41         79.3638
871.81        81.49958
872.22        81.94011
872.62        81.12566
873.02        79.83599
873.42        79.52139
873.82        80.30833
874.22        81.34113
874.63        82.31702
875.03        82.68002
875.43         82.1146
875.83         81.9331
876.23        80.16228
876.63        79.13214
877.03        78.59971
877.44        78.66367
877.84        106.1658
878.24        84.40475
878.64        85.01591
879.04        86.23441
879.44        81.21585
879.84        78.90057
880.24        84.59463
880.64        87.20576
881.04        87.93248
881.44        88.08663
881.84         87.1856
882.24        85.38316
882.65        83.69957
883.05        83.02195
883.45        83.48473
883.85        85.16676
884.25        87.33489
884.65        88.33447
885.05        87.72161
885.45        86.10139
885.85         84.3028
886.25        83.44711
886.65        83.77683
887.05        84.89175
887.45        86.40691
887.85        87.64319
888.25        88.29272
888.65        88.57281
889.04        88.53238
889.44        88.28595
889.84         87.9059
890.24         87.3267
890.64        86.72558
891.04        86.40591
891.44        86.42307
891.84        86.75105
892.24        87.18784
892.64        87.32062
893.04        87.09014
893.44        86.68874
893.83        86.35218
894.23        86.43547
894.63        86.98712
895.03        87.80547
895.43         88.8369
895.83        89.97132
896.23        91.05323
896.63        92.09602
897.02        92.68096
897.42        92.15752
897.82        90.53043
898.22        88.10712
898.62        85.69036
899.01        84.44113
899.41         84.6076
899.81         85.7936
900.21        87.43339
900.61        88.58829
901.00        88.93499
901.40        88.74217
901.80         88.2262
902.20        87.72398
902.59        87.37672
902.99        87.07502
903.39         86.7907
903.79        86.50986
904.18        86.25919
904.58        86.14214
904.98        86.27361
905.38        86.80161
905.77        87.66586
906.17        88.70237
906.57        89.68909
906.96        90.36732
907.36        90.59166
907.76         90.4573
908.15        89.94793
908.55        88.94582
908.95        87.57652
909.34        85.90849
909.74        84.34177
910.14        83.29907
910.53        82.91647
910.93        83.15349
911.33         83.8573
911.72         84.7147
912.12        85.46017
912.52        86.06476
912.91        86.54345
913.31        86.94189
913.70        87.32781
914.10        87.66598
914.49        87.75493
914.89        87.18358
915.29        85.96457
915.68        84.32497
916.08         82.9921
916.47        82.55397
916.87        83.03962
917.26        84.27923
917.66        85.65346
918.05        86.17564
918.45        85.60015
918.84        84.26879
919.24        82.87592
919.64        82.43672
920.03        83.20126
920.42        84.82626
920.82         86.7601
921.21        88.16818
921.61        88.58268
922.00        88.31357
922.40        87.53022
922.79        86.49078
923.19        85.41935
923.58        84.07567
923.98        82.52602
924.37        81.71675
924.77        82.13393
925.16        80.02428
925.55        82.07785
925.95        83.10626
926.34        84.98055
926.74        87.19415
927.13         89.2534
927.52         90.0464
927.92        89.43835
928.31         87.8291
928.70        85.69178
929.10        83.86815
929.49        82.61609
929.89        81.74353
930.28        81.49195
930.67        82.24977
931.07        83.85155
931.46        86.24672
931.85        88.47231
932.24        89.07301
932.64        87.79223
933.03        84.85127
933.42        81.13694
933.82        78.65548
934.21        78.03633
934.60        78.77116
934.99         79.8842
935.39        80.41058
935.78        80.19721
936.17        78.91602
936.56        76.43523
936.96        77.91687
937.35        76.72159
937.74        77.93453
938.13        79.04893
938.53        80.11813
938.92        81.20641
939.31        82.53339
939.70        83.79026
940.09        83.95007
940.49        82.80544
940.88        80.80592
941.27        78.89304
941.66        78.19299
942.05        78.80621
942.44        80.36337
942.84        82.30933
943.23        83.70157
943.62        84.09653
944.01        83.74792
944.40        82.88485
944.79        81.85277
945.18        80.76956
945.57        79.47204
945.97        78.02923
946.36        76.74294
946.75        75.92495
947.14        75.61968
947.53         75.6852
947.92        75.86635
948.31        76.10141
948.70        76.49519
949.09        76.95142
949.48        77.24586
949.87        77.28903
950.26        77.03062
950.65        76.84496
951.04        77.36597
951.43        78.66012
951.82        80.51366
952.21        82.20462
952.60        82.56014
952.99         81.3504
953.38        79.00034
953.77        76.35968
954.16        74.65605
954.55        74.19646
954.94        74.70996
955.33        75.57499
955.72        75.72723
956.11         74.9014
956.50         73.4166
956.89        72.03043
957.28        72.08501
957.66        73.97789
958.05        76.97793
958.44         80.1117
958.83        81.98852
959.22        82.24548
959.61        81.24516
960.00        79.56235
960.39        78.14517
960.78        77.31983
961.16        76.85994
961.55        76.43945
961.94        75.53121
962.33        74.08405
962.72        72.44611
963.11        71.02817
963.49         70.2711
963.88        70.22656
964.27        70.78615
964.66        71.66787
965.04        72.29215
965.43        72.34055
965.82        71.99574
966.21        71.63508
966.60        71.80132
966.98         72.5949
967.37        73.78201
967.76        75.00244
968.15        75.55068
968.53        75.21716
968.92         74.2409
969.31        73.04006
969.69        72.12989
970.08        71.64816
970.47        71.47794
970.86        71.44687
971.24         71.2509
971.63        70.81516
972.02        70.24773
972.40        69.79734
972.79        69.88053
973.17        70.67181
973.56        71.90555
973.95        73.23489
974.33         73.9808
974.72        73.82349
975.11        72.97284
975.49        71.84699
975.88        71.06879
976.26        70.73331
976.65        70.71255
977.04        70.67538
977.42        69.90362
977.81        68.31757
978.19        66.30484
978.58        64.93746
978.96        65.17257
979.35        67.11617
979.74        70.56798
980.12         74.9349
980.51        77.78366
980.89        78.33996
981.28        77.10059
981.66        75.01345
982.05        73.30348
982.43        72.27597
982.82        71.59059
983.20        71.30927
983.59        71.54912
983.97        72.36825
984.35        73.87507
984.74         75.6049
985.12         76.6756
985.51          76.451
985.89        74.90569
986.28        72.70258
986.66        70.85753
987.04         69.9218
987.43         69.7391
987.81        69.60152
988.20        68.48296
988.58        65.96252
988.96        61.56226
989.35        55.96956
989.73        53.50949
990.12        57.27364
990.50        65.34725
990.88        72.61968
991.27        75.19196
991.65        73.63384
992.03        69.18291
992.42         63.9092
992.80        61.46872
993.18        63.00928
993.56        66.47011
993.95        70.36697
994.33        73.66282
994.71        75.90465
995.10        77.81052
995.48        78.86798
995.86         77.9668
996.24        74.91187
996.63        69.48845
997.01        63.11643
997.39        60.20237
997.77        62.67568
998.15        69.53902
998.54        77.04246
998.92        79.94018
999.30        76.71325
999.68        68.78388
1000.06        58.29047
1000.45        50.54609
1000.83        47.90282
1001.21        48.63038
1001.59        51.40975
1001.97         54.9706
1002.35        58.92646
1002.73         64.3248
1003.12        69.91805
1003.50        71.17552
1003.88        66.27604
1004.26        57.41895
1004.64        48.80922
1005.02        43.94403
1005.40         42.9393
1005.78        45.22496
1006.16        51.87157
1006.54        61.06776
1006.92        67.58092
1007.30         70.6453
1007.69         71.3894
1008.07        71.46478
1008.45        71.18714
1008.83        69.44979
1009.21         63.3063
1009.59        43.06701
1009.97       -10.85655
1010.35       -80.99486
1010.73       -66.65987
1011.11       -25.24967
1011.49        2.677897
1011.86        23.06257
1012.24        34.68239
1012.62        40.15508
1013.00        42.10026
1013.38         41.3165
1013.76         39.6604
1014.14        42.91831
1014.52        55.66554
1014.90        79.58133
1015.28        107.3281
1015.66        118.4134
1016.04        101.7084
1016.41        62.41506
1016.79        24.37976
1017.17         10.9928
1017.55        16.86483
1017.93        28.57534
1018.31        39.42145
1018.69        46.13124
1019.06        49.39412
1019.44         50.4707
1019.82        49.88137
1020.20        48.21671
1020.58        45.42947
1020.95        39.01895
1021.33        8.494689
1021.71        705.4624
1022.09        161.5672
1022.46        138.5318
1022.84        134.9464
1023.22        140.9023
1023.60        164.0355
1023.97        406.2021
1024.35       -7.603995
1024.73        36.08099
