SpectraSmart Spectrum 2.9.0.0
--------- Device Information -----------
Spectrum Name :  反射率_0
Saving Time :  2024/04/26 00:32:14
Spectro-Module Model Name : SE2030-DUVN
Spectro-Module Serial Number : OS361AC55029948
Wavelength Start : 200
Wavelength End : 1025
Wavelength Unit : Wavelength(nm)
Spectrum Unit : Reflectance(%)
-----------Spectrum Setting ------------
Integration Time : 20ms
Average : 10
Boxcar : 0
Background removal :  enabled
linearity correction :  enabled
SC :  disabled
Intensity correction :  disabled
DWT denoise :  enabled
savitzky-golay :  disabled
FFT :  disabled
Running average :  disabled
Kalman :  disabled
High pass :  disabled
---------------BEGIN--------------------
Wavelength(nm)             Reflectance(%)
200.29               0
200.75        88.59953
201.21        83.97041
201.67        78.43645
202.13        75.49329
202.58        75.58578
203.04        78.13663
203.50        81.33978
203.96         82.1731
204.42        80.24376
204.88        76.90784
205.34        74.07611
205.80        73.72625
206.26        76.64259
206.72        84.61832
207.18         100.836
207.64        114.9111
208.10        105.0755
208.55         85.5862
209.01        73.22206
209.47        68.74676
209.93        68.70827
210.39        71.30218
210.85        74.68262
211.31        75.13884
211.77        71.65296
212.23        65.94439
212.69        60.71094
213.14        60.10535
213.60        64.68285
214.06        73.11638
214.52        83.11559
214.98        91.25986
215.44        96.11327
215.90        98.35547
216.36        98.51967
216.81        97.18125
217.27        95.29327
217.73        92.99636
218.19        90.17837
218.65        86.44629
219.11        81.40582
219.57        74.28066
220.02        66.40883
220.48        64.04961
220.94        69.93673
221.40        81.93417
221.86        92.60933
222.32        94.73602
222.77        89.37561
223.23        80.91742
223.69        73.81631
224.15        72.77513
224.61        77.39929
225.06        85.52708
225.52        94.03471
225.98        98.79253
226.44        99.05375
226.90        96.48539
227.36        93.43707
227.81         93.0885
228.27        96.29314
228.73        101.4868
229.19        106.8465
229.65        109.7563
230.10        109.7376
230.56         108.318
231.02        106.5469
231.48        105.6303
231.93        105.6856
232.39        106.2752
232.85        107.1754
233.31        108.2522
233.77        109.3321
234.22        110.5562
234.68        111.3555
235.14        110.7212
235.60        108.5224
236.05        105.1623
236.51        101.5277
236.97        98.73667
237.43        96.94368
237.88        95.94379
238.34        95.28505
238.80        94.57919
239.26        93.60477
239.71         92.9132
240.17        91.92484
240.63        90.24117
241.08        88.03178
241.54        85.42561
242.00        83.24569
242.46         82.5071
242.91        83.99811
243.37        88.98779
243.83        105.3967
244.28        157.9413
244.74        213.2998
245.20        177.3125
245.66        146.5471
246.11        137.1461
246.57        138.8558
247.03        152.8018
247.48        189.1026
247.94        141.2333
248.40        95.03424
248.85        84.43063
249.31        82.85767
249.77         84.4861
250.22        88.43004
250.68        95.50006
251.14        106.0639
251.59         114.718
252.05        115.0123
252.51        108.7885
252.96        100.5997
253.42        95.85709
253.88        94.54544
254.33        94.88013
254.79        97.32717
255.25        101.8112
255.70        107.1851
256.16        113.1758
256.62        117.8175
257.07        119.0988
257.53        117.9746
257.99        115.0046
258.44        111.5512
258.90        110.3926
259.35        110.4626
259.81        111.0703
260.27        110.6876
260.72         107.849
261.18        103.5195
261.63        98.20327
262.09        93.26059
262.55        89.30045
263.00        86.30157
263.46        84.19492
263.91        82.45439
264.37        81.10422
264.83        79.78668
265.28         78.3765
265.74        76.90388
266.19        75.01074
266.65        73.04598
267.11        71.14189
267.56        69.35715
268.02        67.81783
268.47        66.36868
268.93        64.98838
269.38         63.7507
269.84        62.99659
270.30        62.76592
270.75        62.96457
271.21        63.22974
271.66        62.99685
272.12        62.16233
272.57        60.86167
273.03        59.50642
273.48        58.61166
273.94         58.3337
274.39        58.42309
274.85        58.59877
275.31        58.38017
275.76        57.64706
276.22        56.62952
276.67        55.50037
277.13        54.67403
277.58        54.14338
278.04         53.8337
278.49        53.51229
278.95        53.00906
279.40        52.21908
279.86        51.32258
280.31        50.34876
280.77         49.5154
281.22        48.80838
281.68        48.22088
282.13        47.70421
282.59        47.29538
283.04         46.9371
283.50        46.67899
283.95        46.39049
284.41        45.93799
284.86        45.28143
285.32        44.48801
285.77        43.70941
286.22        43.27082
286.68        43.19593
287.13        43.33598
287.59        43.44893
288.04        43.12262
288.50        42.34046
288.95        41.22951
289.41        40.06387
289.86        39.10597
290.32        38.50161
290.77        38.12094
291.22        37.93686
291.68        37.86629
292.13        37.85632
292.59        37.93797
293.04          38.058
293.50        38.14173
293.95        38.15768
294.40        38.09735
294.86        38.00171
295.31        37.94334
295.77        37.95207
296.22        38.01902
296.68        38.10455
297.13        38.11435
297.58        38.05035
298.04        37.95801
298.49        37.93227
298.95        38.16063
299.40        38.64544
299.85        39.31044
300.31        39.98962
300.76        40.43314
301.21        40.57265
301.67         40.5277
302.12        40.36559
302.58        40.26047
303.03        40.23651
303.48        40.25869
303.94        40.38299
304.39        40.65115
304.84        41.05771
305.30        41.57693
305.75        42.04832
306.20        42.24333
306.66         42.1469
307.11        41.81188
307.57        41.41978
308.02        41.15302
308.47        41.09584
308.93        41.18992
309.38          41.364
309.83         41.5426
310.29        41.68424
310.74        41.80154
311.19        41.88702
311.65        41.92299
312.10         41.9008
312.55        41.81722
313.00        41.66776
313.46        41.46506
313.91        41.21426
314.36         40.9399
314.82        40.69324
315.27        40.52358
315.72        40.45388
316.18         40.4683
316.63        40.53646
317.08        40.58158
317.53        40.57494
317.99        40.51871
318.44        40.44992
318.89        40.43484
319.35        40.47006
319.80        40.53764
320.25        40.54816
320.70        40.36378
321.16        39.97099
321.61        39.42887
322.06        38.85785
322.51        38.43809
322.97        38.20231
323.42        38.11296
323.87        38.08972
324.32        37.99573
324.78        37.78669
325.23        37.51652
325.68        37.21776
326.13        36.95051
326.59        36.72812
327.04         36.5456
327.49        36.39686
327.94        36.28523
328.39          36.209
328.85        36.16161
329.30        36.16161
329.75        36.17744
330.20        36.20321
330.66        36.22695
331.11        36.27255
331.56        36.32989
332.01        36.39245
332.46        36.43862
332.92        36.46317
333.37        36.51516
333.82        36.58123
334.27        36.67447
334.72        36.72083
335.17         36.5977
335.63        36.29408
336.08          35.858
336.53        35.46674
336.98        35.41166
337.43        35.74308
337.88        36.37564
338.34        37.04993
338.79        37.39046
339.24        37.27066
339.69        36.79718
340.14        36.20636
340.59        35.91787
341.05        36.04282
341.50        36.44503
341.95        36.92273
342.40        37.18586
342.85        37.16529
343.30        36.96896
343.75        36.69225
344.20        36.49439
344.66        36.43242
345.11        36.41403
345.56        36.42609
346.01        36.45309
346.46        36.47508
346.91        36.52146
347.36        36.50692
347.81        36.28736
348.26        35.86541
348.72         35.3156
349.17        34.78862
349.62        34.61045
350.07        34.84384
350.52        35.37317
350.97        36.00148
351.42         36.4252
351.87        36.55726
352.32        36.48432
352.77        36.27779
353.22        36.05774
353.67        35.87356
354.13        35.69102
354.58        35.51353
355.03        35.39099
355.48        35.32808
355.93        35.33208
356.38        35.34692
356.83        35.27107
357.28        35.08023
357.73        34.79157
358.18         34.4767
358.63        34.25219
359.08        34.14374
359.53         34.1252
359.98        34.10277
360.43        33.92919
360.88        33.58244
361.33        33.11102
361.78        32.64914
362.23         32.4128
362.68        32.43882
363.13        32.64345
363.58        32.87107
364.03        32.88002
364.48        32.61356
364.93        32.15727
365.38        31.61604
365.83        31.15857
366.28        30.84541
366.73        30.62316
367.18        30.47885
367.63        30.39417
368.08        30.34479
368.53         30.3377
368.98        30.32468
369.43         30.2191
369.88        30.00905
370.33         29.7242
370.78        29.40512
371.23        29.13081
371.68        28.93101
372.13        28.77466
372.58        28.69173
373.03        28.72689
373.48        28.86765
373.93        29.09933
374.38         29.2985
374.83         29.2744
375.28        28.99734
375.72        28.50985
376.17        27.98953
376.62        27.69295
377.07        27.68516
377.52        27.88563
377.97         28.1512
378.42         28.2488
378.87        28.11858
379.32        27.84345
379.77        27.52009
380.22        27.28324
380.67        27.16575
381.11        27.11937
381.56        27.09414
382.01        27.02215
382.46        26.88579
382.91        26.71795
383.36        26.54815
383.81        26.41714
384.26        26.33662
384.71        26.28628
385.15        26.24293
385.60        26.19763
386.05        26.12907
386.50        26.03517
386.95        25.91622
387.40        25.77557
387.85        25.63105
388.29        25.49274
388.74        25.37473
389.19        25.23663
389.64        25.07532
390.09        24.88402
390.54        24.73947
390.98        24.76608
391.43        24.98057
391.88        25.32645
392.33        25.63993
392.78        25.68099
393.23        25.43356
393.67         24.9819
394.12        24.54223
394.57        24.33647
395.02        24.40801
395.47        24.67197
395.91        25.02579
396.36        25.24733
396.81        25.26679
397.26        25.14157
397.71        24.92538
398.15        24.67461
398.60        24.45908
399.05        24.26922
399.50        24.10537
399.95        23.90166
400.39        23.76236
400.84        23.62126
401.29        23.54475
401.74         23.5958
402.18        23.78745
402.63        24.06346
403.08        24.35243
403.53        24.54013
403.97         24.5952
404.42        24.54549
404.87         24.4234
405.32        24.29208
405.76        24.17732
406.21        24.07392
406.66        23.99629
407.11        23.97129
407.55         24.0051
408.00        24.08804
408.45        24.18071
408.90        24.19191
409.34        24.09916
409.79        23.93429
410.24         23.7672
410.68        23.69498
411.13        23.74284
411.58        23.88206
412.03        24.05959
412.47        24.18564
412.92        24.21215
413.37        24.16743
413.81        24.09783
414.26        24.09567
414.71        24.16838
415.15        24.28713
415.60        24.38113
416.05        24.35822
416.49        24.20269
416.94        23.96322
417.39         23.7015
417.83        23.51847
418.28        23.45581
418.73        23.47369
419.17        23.55827
419.62        23.68784
420.07         23.8408
420.51        24.02114
420.96        24.16913
421.41        24.18343
421.85        24.04142
422.30        23.80178
422.74        23.53515
423.19         23.3948
423.64        23.39108
424.08        23.49813
424.53        23.63977
424.98        23.72372
425.42        23.73066
425.87        23.67585
426.31        23.59731
426.76        23.61715
427.21         23.7194
427.65        23.70925
428.10        23.66396
428.54        23.86302
428.99        24.30911
429.44        24.86749
429.88        25.30834
430.33        25.36244
430.77        24.99433
431.22        24.30286
431.66        23.56837
432.11        23.33711
432.56        23.65639
433.00        24.16491
433.45        24.62052
433.89        25.11621
434.34        25.41174
434.78        24.88703
435.23        23.97917
435.67         23.8797
436.12        24.51618
436.57        24.80864
437.01         24.6364
437.46        24.53592
437.90         24.5494
438.35        24.52268
438.79        24.45693
439.24        24.42125
439.68        24.43831
440.13        24.39552
440.57        24.34434
441.02         24.6969
441.46        25.26224
441.91          25.145
442.35        24.48445
442.80        24.22206
443.24        24.33315
443.69        24.45106
444.13        24.47791
444.58        24.24915
445.02        23.86575
445.47        23.85702
445.91        24.15664
446.36        24.21726
446.80        24.00842
447.24        23.85427
447.69        23.80304
448.13        23.77481
448.58        23.78475
449.02        23.84572
449.47        23.92749
449.91        23.97818
450.36        23.98728
450.80        23.96259
451.25        23.92765
451.69        23.90563
452.13        23.90886
452.58        23.91816
453.02        23.93344
453.47        23.95909
453.91        23.99438
454.36        24.04794
454.80        24.09223
455.24        24.07366
455.69        23.99868
456.13        23.87475
456.58        23.78499
457.02        23.81726
457.46        23.99281
457.91        24.26774
458.35        24.55431
458.79        24.71493
459.24        24.72774
459.68        24.61754
460.13        24.46827
460.57        24.35845
461.01        24.33497
461.46        24.36864
461.90        24.42595
462.34         24.4539
462.79        24.43033
463.23        24.36837
463.68        24.31547
464.12        24.35758
464.56         24.5071
465.01        24.75397
465.45        24.96015
465.89        25.01842
466.34        24.92957
466.78        24.58909
467.22         24.1944
467.67        24.31063
468.11        24.86237
468.55        25.11402
468.99        24.98426
469.44        24.85385
469.88        24.81187
470.32        24.94243
470.77        25.17912
471.21        25.22751
471.65        25.06251
472.10        24.92544
472.54        24.86422
472.98        24.86273
473.42        24.93606
473.87        25.09636
474.31        25.28175
474.75        25.39442
475.20        25.41775
475.64        25.36435
476.08        25.29027
476.52        25.28091
476.97        25.35869
477.41         25.5025
477.85        25.65145
478.29        25.75721
478.74        25.80879
479.18        25.69768
479.62        25.49869
480.06        25.75592
480.50        25.95374
480.95        26.15223
481.39        26.13307
481.83        26.10161
482.27        26.05325
482.72        25.76728
483.16        25.38634
483.60        25.45876
484.04         26.0113
484.48        26.29944
484.93        26.54721
485.37        27.04204
485.81        27.83382
486.25        27.58356
486.69        36.84175
487.14        29.81419
487.58        19.13902
488.02        23.08713
488.46        26.50008
488.90        26.41449
489.34        26.62081
489.79        26.37879
490.23        27.72072
490.67        28.41442
491.11        28.15602
491.55        28.00834
491.99        27.90193
492.43        27.70505
492.88        27.51007
493.32         27.5792
493.76        27.70501
494.20        27.94556
494.64        28.20226
495.08        28.51366
495.52        28.84942
495.96        29.09038
496.41        29.20226
496.85        29.38255
497.29        29.60339
497.73        29.32397
498.17        28.87873
498.61        29.12407
499.05        30.06396
499.49        30.23553
499.93        30.36257
500.37        30.49985
500.82         30.5589
501.26        30.83392
501.70        31.17141
502.14        31.32162
502.58        31.25927
503.02        31.24243
503.46        31.28644
503.90        31.22844
504.34         31.1177
504.78        31.11142
505.22        31.22745
505.66        31.42639
506.10        31.63833
506.54        31.74249
506.98        31.71159
507.42         31.5895
507.86        31.45677
508.30        31.43725
508.74        31.55729
509.18         31.7694
509.62        32.01523
510.06        32.19938
510.50        32.29199
510.94        32.33207
511.38        32.33121
511.82        32.30464
512.26        32.26838
512.70        32.21163
513.14        32.17919
513.58        32.24942
514.02        32.42112
514.46        32.66154
514.90        32.89329
515.34        32.96158
515.78        32.81499
516.22        32.63809
516.66        32.50433
517.10        32.14996
517.54        31.60685
517.98        32.24039
518.42        32.05173
518.86        32.37921
519.30        32.60358
519.74          32.904
520.18        33.19675
520.62        33.32123
521.06        33.27164
521.50        33.07406
521.93        32.81059
522.37        32.62794
522.81        32.57172
523.25        32.60696
523.69        32.69459
524.13        32.77066
524.57        32.81232
525.01        32.83812
525.45         32.8583
525.89        32.88638
526.32        32.91838
526.76        32.94067
527.20        32.93126
527.64        32.87178
528.08        32.76925
528.52        32.60913
528.96        32.40829
529.40        32.28136
529.83         32.2604
530.27        31.98933
530.71        32.09216
531.15        32.04516
531.59        32.03213
532.03        32.03377
532.46        32.07474
532.90        32.18587
533.34        32.34995
533.78        32.54541
534.22        32.70272
534.66        32.72526
535.09        32.59352
535.53        32.35485
535.97        32.07355
536.41        31.86042
536.85        31.75466
537.28        31.73536
537.72        31.77389
538.16        31.82316
538.60        31.86631
539.04        31.89185
539.47        31.91887
539.91        32.05827
540.35        32.27736
540.79        32.42641
541.22         32.4873
541.66        32.56674
542.10        32.65985
542.54        32.68849
542.97        32.69221
543.41        32.78689
543.85        32.98055
544.29        33.25589
544.72        33.52063
545.16        33.64365
545.60        33.60175
546.04        33.43359
546.47        33.27991
546.91        33.37535
547.35        33.74764
547.79        34.32629
548.22        34.91861
548.66         35.1983
549.10        35.11961
549.53        34.84121
549.97         34.5486
550.41        34.44527
550.84        34.60017
551.28        34.95872
551.72        35.43278
552.15        35.85644
552.59        36.16246
553.03         36.3962
553.46         36.5535
553.90        36.66304
554.34        36.74454
554.77        36.74774
555.21          36.701
555.65        36.77019
556.08        36.99149
556.52        36.87548
556.96        37.25297
557.39        37.37424
557.83        37.49352
558.27        37.58765
558.70        37.69807
559.14        37.87241
559.57        38.09716
560.01         38.3679
560.45        38.59963
560.88        38.66249
561.32        38.56813
561.75        38.34366
562.19        38.11725
562.63        38.03037
563.06        38.10962
563.50        38.31848
563.93        38.57632
564.37        38.77522
564.80        38.86845
565.24        38.90596
565.68          38.915
566.11        38.93919
566.55        39.02211
566.98        39.13912
567.42        39.29811
567.85        39.50641
568.29        39.78623
568.72        40.01804
569.16        40.25532
569.60        40.72178
570.03        41.22604
570.47        41.30943
570.90        41.13064
571.34        40.71891
571.77        41.01732
572.21         41.3826
572.64        41.26477
573.08        40.61079
573.51        39.27186
573.95        41.04617
574.38        43.79181
574.82        42.95943
575.25        42.38017
575.69        40.89592
576.12        40.31035
576.56         40.2248
576.99        41.08044
577.42        43.10013
577.86        43.15091
578.29        42.83337
578.73        45.02166
579.16        41.46478
579.60        37.84937
580.03        39.51135
580.47        42.05684
580.90          42.768
581.33        41.89424
581.77        41.47169
582.20        45.24694
582.64        45.05193
583.07        38.48976
583.51        37.68594
583.94        36.84121
584.37        38.27935
584.81        40.02481
585.24         42.1187
585.68        43.27797
586.11        42.13341
586.54        39.32389
586.98        38.19233
587.41        38.46269
587.85        40.45203
588.28        41.73045
588.71         39.5928
589.15        38.42351
589.58        39.11892
590.01        39.36245
590.45        40.12066
590.88        40.24147
591.31        39.80471
591.75        39.63836
592.18        39.77242
592.61         40.6737
593.05        41.33044
593.48        43.03539
593.91        43.27003
594.35        39.77283
594.78        38.95271
595.21        38.90977
595.65        40.91514
596.08        42.76481
596.51        41.23686
596.94        40.01878
597.38        40.55905
597.81        42.56699
598.24        43.73912
598.68        42.83321
599.11        42.94829
599.54        44.91861
599.97        46.04704
600.41        43.37821
600.84          43.766
601.27        44.97805
601.70        44.67505
602.14        44.87093
602.57        44.68846
603.00        45.65501
603.43        47.14562
603.87        48.53011
604.30        48.56474
604.73         47.5342
605.16        47.16446
605.60        48.27593
606.03        49.52646
606.46        50.56012
606.89           50.99
607.32        49.77572
607.76        50.16951
608.19        52.15107
608.62        51.83169
609.05        51.26142
609.48        51.95642
609.92        52.24657
610.35        52.03859
610.78        54.29283
611.21        55.04131
611.64        52.97388
612.07        53.88789
612.50        54.61717
612.94        55.36626
613.37         55.2921
613.80        55.60142
614.23        56.34141
614.66        56.52688
615.09        56.97178
615.52          57.271
615.96        57.52604
616.39        57.85902
616.82        57.27367
617.25        57.45033
617.68        58.20699
618.11        58.95103
618.54        59.46722
618.97        59.24501
619.40         58.6349
619.84        58.74977
620.27        59.89119
620.70        60.65142
621.13        60.94267
621.56        60.63736
621.99        59.99131
622.42         60.7009
622.85        62.37161
623.28        62.13246
623.71        61.75256
624.14        61.98758
624.57        61.58669
625.00        61.55302
625.43        61.56385
625.86        60.97424
626.29        61.02589
626.72        61.07481
627.15        60.82293
627.58        60.79169
628.01        60.76377
628.44        60.70441
628.87        60.61195
629.30        60.52021
629.73         60.3648
630.16        60.31305
630.59         59.8494
631.02         59.2423
631.45        58.47029
631.88        57.87233
632.31        57.49177
632.74        57.18079
633.17        56.88523
633.60        56.55597
634.03        56.16687
634.46        55.74103
634.89         55.2941
635.32        54.84996
635.75        54.42106
636.18        53.99426
636.61        53.58467
637.04        53.21693
637.47        52.88668
637.89        52.59277
638.32        52.28261
638.75        51.90538
639.18        51.45768
639.61        50.96915
640.04         50.4829
640.47        50.06036
640.90        49.72168
641.33        49.44727
641.76        49.21405
642.18        49.05489
642.61        48.96059
643.04        48.81373
643.47        48.57954
643.90        48.82983
644.33        48.55588
644.76        48.57781
645.18         48.5914
645.61        48.61083
646.04        48.62619
646.47        48.62877
646.90        48.69429
647.33        48.90554
647.75        49.29123
648.18        49.86212
648.61        50.43741
649.04        50.74321
649.47        50.74604
649.89         50.3959
650.32        50.06002
650.75         50.5126
651.18        51.71008
651.61        52.90575
652.03         53.7493
652.46        54.22747
652.89        54.61616
653.32        54.53957
653.74        54.38279
654.17        56.20563
654.60        57.47685
655.03        56.10502
655.46        57.13582
655.88         61.0639
656.31        65.90994
656.74        152.0546
657.16        99.44926
657.59        35.04035
658.02        26.57189
658.45        46.07456
658.87         59.5694
659.30        63.03133
659.73        62.28601
660.15        61.04279
660.58         63.1053
661.01        65.12921
661.44        63.53811
661.86         63.2452
662.29        63.53933
662.72        64.50473
663.14        65.96566
663.57        66.26948
664.00        65.61411
664.42        65.72541
664.85        66.68226
665.27        67.35944
665.70        67.57056
666.13        67.67416
666.55        67.66239
666.98        67.43822
667.41        67.17368
667.83        67.19732
668.26        67.57082
668.69        68.15746
669.11        68.74933
669.54        69.30181
669.96        69.08833
670.39        68.88208
670.82        68.64883
671.24        68.35632
671.67        68.26667
672.09        68.96754
672.52        70.09248
672.94        70.99536
673.37        70.38148
673.80        70.18261
674.22        70.18877
674.65        70.21829
675.07        70.29191
675.50        70.36192
675.92        70.44575
676.35        70.64601
676.77        70.96269
677.20         71.2869
677.62        71.59943
678.05        71.86089
678.47        72.03895
678.90        72.17812
679.32        72.32086
679.75        72.22919
680.17        72.46955
680.60        72.61181
681.02        72.75591
681.45        72.68124
681.87        72.52923
682.30        72.23351
682.72        71.99123
683.15        72.07192
683.57        72.53312
684.00        73.19405
684.42        73.99775
684.85        74.49437
685.27        74.62406
685.70         74.4953
686.12        74.21177
686.54        74.05042
686.97        74.10484
687.39        74.22787
687.82        74.28324
688.24        74.89579
688.66        74.71111
689.09        74.77492
689.51        74.78479
689.94        75.04774
690.36        75.49034
690.78        75.64889
691.21         75.5459
691.63        75.58259
692.06        75.78506
692.48        75.92874
692.90        76.01763
693.33        76.15753
693.75        76.34558
694.17        76.54815
694.60        76.78808
695.02        77.03636
695.44         77.2328
695.87        77.69971
696.29        78.32769
696.71        77.99977
697.14        77.06078
697.56        77.63361
697.98        79.37762
698.41         79.3595
698.83         78.3771
699.25        77.80795
699.68        77.99478
700.10        78.01729
700.52        77.89693
700.94        78.10258
701.37        78.55868
701.79        79.01724
702.21        79.38081
702.64        79.71465
703.06        79.94123
703.48        79.93848
703.90        79.71623
704.33        79.30892
704.75        78.86105
705.17        78.70707
705.59        78.93056
706.01        79.31694
706.44        79.69867
706.86        80.48199
707.28        80.51951
707.70        80.70919
708.12        80.77338
708.55        80.76066
708.97        80.68879
709.39         80.6121
709.81         80.5852
710.23        80.62844
710.66        80.75692
711.08        81.03082
711.50        81.34457
711.92         81.4733
712.34         81.3727
712.76        81.17986
713.19        81.07201
713.61        80.86353
714.03        81.39864
714.45        81.94073
714.87        82.50455
715.29        82.71177
715.71        82.49822
716.13        81.98048
716.56        81.37936
716.98        81.10857
717.40        81.26454
717.82        81.72068
718.24         82.3054
718.66        82.72442
719.08        82.87873
719.50        82.85651
719.92        82.72024
720.34        82.59325
720.76        82.52829
721.19        82.34936
721.61        82.33731
722.03        82.37531
722.45           82.54
722.87        82.81705
723.29        83.14746
723.71        83.41481
724.13        83.57843
724.55         83.6584
724.97        83.68842
725.39        83.73365
725.81         83.8131
726.23        83.90656
726.65        83.99287
727.07        84.03882
727.49        84.04675
727.91        84.04684
728.33        84.06647
728.75        84.14581
729.17        84.28806
729.59        84.45936
730.01        84.66302
730.43        84.89626
730.85        85.15025
731.27        85.45693
731.69        85.71437
732.10        85.73348
732.52        85.48899
732.94        85.08961
733.36        84.75786
733.78        84.68377
734.20        84.91876
734.62        85.78126
735.04        86.94101
735.46        86.95779
735.88        86.10098
736.30        86.41077
736.72        87.85252
737.13        88.41691
737.55        87.82763
737.97        87.83166
738.39        88.40645
738.81         87.5233
739.23        85.80035
739.65        86.79337
740.06        89.86582
740.48        90.33689
740.90        88.29514
741.32        87.28918
741.74        87.94322
742.16        88.21646
742.57        88.25611
742.99        89.03646
743.41        90.31078
743.83        91.10658
744.25        91.27459
744.67        91.12331
745.08        90.87541
745.50        90.83916
745.92        91.11952
746.34        91.58359
746.75        92.11176
747.17        92.45258
747.59        92.57014
748.01        92.68711
748.42        92.83739
748.84        92.85468
749.26        92.93911
749.68        93.34923
750.09        94.04291
750.51        95.17783
750.93        96.29871
751.35        95.87583
751.76        94.31179
752.18        93.86535
752.60        94.59361
753.01        94.94003
753.43        94.81515
753.85        95.05542
754.27         95.6685
754.68        96.32557
755.10        96.91164
755.52        97.43984
755.93        97.82706
756.35        97.98225
756.77        98.07294
757.18        98.15171
757.60        98.24267
758.02        98.98225
758.43        99.87322
758.85        98.89404
759.26        96.45374
759.68        96.20596
760.10        97.94501
760.51         99.1116
760.93        99.10424
761.34        97.94252
761.76        97.21857
762.18        96.25205
762.59        95.82453
763.01        96.28083
763.42        97.69307
763.84        98.57137
764.26        98.80302
764.67        98.81121
765.09        98.67245
765.50        98.78187
765.92        98.87915
766.33        97.44615
766.75        95.14008
767.16        94.30456
767.58        95.25483
768.00         97.2786
768.41        99.85358
768.83        101.6575
769.24        101.9836
769.66        101.1933
770.07        99.81908
770.49        97.70921
770.90        95.61761
771.32        96.64584
771.73        99.93504
772.15        99.61452
772.56        96.19437
772.97        95.65273
773.39        97.87602
773.80        98.68707
774.22        97.78854
774.63        97.60355
775.05        98.11531
775.46        98.34673
775.88        98.20979
776.29        97.96709
776.70        97.73151
777.12        97.74034
777.53        98.04391
777.95        98.47978
778.36        98.88103
778.77        98.90485
779.19        98.53156
779.60         98.0206
780.02        97.56217
780.43        97.24066
780.84        97.38361
781.26        98.00054
781.67        98.97382
782.09        100.7683
782.50        102.5114
782.91        101.1049
783.33        97.59576
783.74        96.42581
784.15        97.84334
784.57        99.08157
784.98        99.56657
785.39        99.52237
785.81         98.9274
786.22        98.15189
786.63        97.61348
787.04        97.50355
787.46        97.95665
787.87        99.19411
788.28         100.759
788.70        101.6551
789.11         101.445
789.52        100.7811
789.93        99.96185
790.35        99.28419
790.76        98.95782
791.17        99.29057
791.58        100.0689
792.00        100.3742
792.41        100.0244
792.82         100.179
793.23        99.67588
793.65        99.67758
794.06         99.9877
794.47        101.4156
794.88        102.9521
795.29        103.0771
795.71        99.67967
796.12        97.17591
796.53        95.67448
796.94        95.16745
797.35        95.80959
797.76        97.59293
798.18        99.73753
798.59        101.0944
799.00        101.1816
799.41        100.0889
799.82        98.44235
800.23        97.46114
800.64        97.43545
801.06        97.89063
801.47        98.63155
801.88        99.21754
802.29        99.45849
802.70        99.53667
803.11        99.49607
803.52        99.30873
803.93        99.03448
804.34        98.74746
804.75         98.5724
805.17        98.36203
805.58        99.11564
805.99        99.43957
806.40        99.53017
806.81        100.6965
807.22        102.1767
807.63        100.7424
808.04        97.23895
808.45        95.79053
808.86        96.73359
809.27        97.96376
809.68        98.92365
810.09        99.54411
810.50        99.55756
810.91        99.02166
811.32        98.28242
811.73        97.84407
812.14        97.83901
812.55        98.22754
812.96        98.86589
813.37        99.07145
813.78        98.91842
814.19        99.48219
814.60        100.4047
815.01        100.3227
815.42        99.17191
815.83        97.55641
816.24        96.11017
816.65        95.69913
817.05        96.61716
817.46        98.56578
817.87        100.7473
818.28        101.7304
818.69        101.1341
819.10        99.32212
819.51        97.13934
819.92        96.09664
820.33        96.60717
820.74        98.01823
821.14          99.627
821.55         100.666
821.96        100.6085
822.37        98.82307
822.78        96.16462
823.19        94.81667
823.60        95.12217
824.00         96.1783
824.41        97.36333
824.82        98.09541
825.23        98.05331
825.64        97.48518
826.04        96.73732
826.45        96.31073
826.86        96.33723
827.27         96.6058
827.68        97.00469
828.08        97.41293
828.49        97.66885
828.90        97.90756
829.31         98.0222
829.72        97.79768
830.12        97.25803
830.53        96.46468
830.94        95.73785
831.35        95.51304
831.75        95.92405
832.16        96.79771
832.57        97.92741
832.97        98.84457
833.38        99.27313
833.79         99.3226
834.20        99.18285
834.60        99.16164
835.01        99.36464
835.42        99.67336
835.82        99.90238
836.23          99.658
836.64        98.92912
837.04        97.89979
837.45        96.88247
837.86        96.35697
838.26        96.45158
838.67        96.97152
839.08        97.71243
839.48         98.2803
839.89        98.47759
840.29        98.44019
840.70        98.20665
841.11        97.81178
841.51        97.31542
841.92        96.66982
842.33        96.06047
842.73        95.82273
843.14        95.97556
843.54        96.48602
843.95        97.04181
844.35        97.18536
844.76        96.79497
845.17        96.03913
845.57        95.18522
845.98        94.66307
846.38         94.5779
846.79        94.75732
847.19            95.1
847.60        95.30569
848.00        95.31984
848.41        95.22285
848.81        95.06323
849.22        94.82652
849.62         94.5997
850.03        94.37213
850.43        94.29588
850.84        94.51616
851.24         95.1195
851.65        95.82938
852.05        96.69956
852.46         97.5966
852.86        98.43967
853.27        99.30296
853.67        99.63815
854.07        98.75781
854.48         96.7488
854.88        93.85522
855.29        91.14535
855.69        90.16983
856.10        91.21848
856.50        94.13073
856.90        97.84723
857.31        99.91857
857.71        99.57547
858.12        97.46219
858.52        94.82557
858.92        93.35357
859.33        93.39523
859.73        94.51888
860.13        96.26752
860.54        97.66514
860.94         98.3891
861.34        98.66585
861.75        98.70488
862.15        98.93568
862.55        99.42913
862.96        99.95606
863.36        100.4022
863.76        100.5454
864.17        100.3485
864.57        100.0148
864.97        99.65577
865.38        99.39301
865.78        99.33053
866.18        99.35106
866.58        99.56161
866.99        100.1161
867.39        101.0956
867.79        102.4984
868.19        103.8638
868.60        104.3152
869.00        103.6717
869.40        102.0992
869.80        100.5287
870.21        100.4527
870.61        102.2815
871.01        105.5703
871.41        109.1265
871.81        110.9183
872.22        110.3908
872.62        108.1952
873.02        105.6021
873.42         104.486
873.82        105.3542
874.22        107.9363
874.63        111.2154
875.03        112.8528
875.43        111.9076
875.83        108.8673
876.23        106.8285
876.63        106.8169
877.03        109.7963
877.44        116.2611
877.84        92.12331
878.24        125.9797
878.64        123.2855
879.04        115.9638
879.44        115.6169
879.84        115.2725
880.24        112.4602
880.64        113.7442
881.04        118.1178
881.44        120.9961
881.84        120.3951
882.24        117.5947
882.65        114.3581
883.05        113.0449
883.45        114.0602
883.85        116.5541
884.25        119.4761
884.65        121.1208
885.05        120.8802
885.45        119.4071
885.85        117.6705
886.25        116.9593
886.65         117.545
887.05        118.9474
887.45        120.6507
887.85        121.7578
888.25        121.9261
888.65        121.5136
889.04        120.6934
889.44        119.7628
889.84        118.8799
890.24        117.9438
890.64        117.2137
891.04        117.1088
891.44        117.6576
891.84        118.7785
892.24        120.0344
892.64        120.5833
893.04        120.2586
893.44        119.3996
893.83         118.456
894.23         118.141
894.63        118.5875
895.03        119.5098
895.43        120.8454
895.83        122.4541
896.23        124.1221
896.63        125.8498
897.02        127.1112
897.42        127.0443
897.82        125.6037
898.22        123.1342
898.62        120.4845
899.01        118.8979
899.41        118.7054
899.81        119.4966
900.21        120.8151
900.61        121.8829
901.00        122.4005
901.40        122.6211
901.80        122.5943
902.20        122.3977
902.59          122.11
902.99        121.6338
903.39        121.1074
903.79        120.8134
904.18        120.8243
904.58        121.1202
904.98        121.5624
905.38        121.9049
905.77        122.0437
906.17        122.0545
906.57        121.9824
906.96        121.9484
907.36        121.9413
907.76        121.9326
908.15         121.848
908.55        121.4675
908.95        120.8093
909.34        119.8921
909.74        119.0124
910.14         118.438
910.53        118.2927
910.93        118.6117
911.33        119.1417
911.72        119.4279
912.12        119.3193
912.52        118.8754
912.91        118.6148
913.31        119.3288
913.70        121.1743
914.10        124.0131
914.49        127.0044
914.89        127.6924
915.29         125.377
915.68        120.9908
916.08         116.653
916.47        114.3814
916.87        114.4412
917.26        116.1669
917.66        118.4584
918.05        119.5214
918.45        118.8511
918.84        117.1045
919.24        115.2576
919.64        114.7094
920.03        115.8243
920.42        118.0598
920.82        120.6956
921.21        122.6911
921.61        123.4611
922.00        123.3932
922.40        122.7092
922.79        121.5636
923.19        120.0782
923.58        118.4659
923.98        117.0739
924.37        115.8295
924.77        114.9258
925.16        117.3074
925.55         117.245
925.95        118.9961
926.34        120.6244
926.74         122.093
927.13        123.1494
927.52        123.2988
927.92        122.6457
928.31        121.3045
928.70        119.6145
929.10        118.1627
929.49        117.1341
929.89        116.4526
930.28        116.3764
930.67        117.2903
931.07        119.0231
931.46        121.4294
931.85        123.7137
932.24        124.7208
932.64        124.2191
933.03        122.4924
933.42        119.8961
933.82        117.4526
934.21        115.6241
934.60        114.3039
934.99        113.6597
935.39        113.5386
935.78        113.8676
936.17        115.3617
936.56        117.8195
936.96        116.4022
937.35        116.0349
937.74         113.196
938.13        111.0377
938.53        110.7939
938.92        112.4131
939.31        115.6085
939.70        119.3065
940.09        120.8529
940.49        119.2728
940.88        115.6622
941.27        111.7757
941.66        109.6448
942.05        109.5731
942.44        110.9234
942.84        112.9856
943.23        114.6686
943.62        115.4209
944.01        115.5375
944.40        115.3905
944.79        115.5541
945.18        116.1933
945.57        117.1044
945.97        117.7016
946.36        117.0532
946.75         115.084
947.14        112.5587
947.53        110.4415
947.92        109.5192
948.31        109.7877
948.70        111.0359
949.09        112.8728
949.48        114.3333
949.87        114.9052
950.26        114.7269
950.65        114.2483
951.04        114.2312
951.43        114.8361
951.82        115.7828
952.21        116.5006
952.60        116.1314
952.99        114.5498
953.38        112.1426
953.77        109.6778
954.16        108.2137
954.55        107.9954
954.94        108.7995
955.33         109.956
955.72        110.3255
956.11        109.6239
956.50        108.1423
956.89        106.7374
957.28        106.9557
957.66        109.2288
958.05        112.7476
958.44        116.3514
958.83         118.363
959.22        118.3599
959.61        116.7722
960.00        114.4043
960.39         112.569
960.78        111.7117
961.16        111.5938
961.55        111.5869
961.94        110.6914
962.33        108.7785
962.72         106.367
963.11        104.3528
963.49         103.864
963.88        105.0754
964.27        107.7161
964.66        110.9179
965.04        112.7877
965.43        112.4367
965.82        110.4899
966.21        108.1505
966.60        107.0126
966.98        107.3864
967.37        108.7613
967.76        110.3701
968.15        110.7805
968.53        109.6038
968.92        107.4152
969.31        105.1139
969.69        103.8143
970.08        103.7661
970.47        104.6476
970.86        105.8446
971.24        106.3259
971.63        105.6992
972.02        104.2161
972.40        102.6587
972.79        102.3223
973.17         103.738
973.56        106.3927
973.95        109.2384
974.33        110.2688
974.72        108.9233
975.11        105.9781
975.49         102.832
975.88        101.3549
976.26        101.8544
976.65        103.9114
977.04        106.6061
977.42        107.6047
977.81         105.962
978.19        102.5863
978.58        99.60061
978.96        99.22604
979.35        101.7836
979.74        106.6932
980.12        112.8491
980.51        116.3985
980.89        116.1444
981.28        113.2501
981.66         109.246
982.05        106.0833
982.43        104.1941
982.82        103.0746
983.20        102.8106
983.59        103.7243
983.97        105.8846
984.35        109.4174
984.74        113.5148
985.12        116.5815
985.51         117.352
985.89        116.0653
986.28        113.2806
986.66        110.2122
987.04         107.806
987.43        106.1134
987.81        105.1634
988.20        105.0623
988.58        105.8285
988.96        107.6695
989.35        111.0745
989.73        116.4981
990.12         121.767
990.50        125.6685
990.88        126.6178
991.27        124.4311
991.65        119.5701
992.03        112.1619
992.42         104.118
992.80        99.36112
993.18        99.21772
993.56        101.9566
993.95        105.3855
994.33        107.1817
994.71        106.9413
995.10        105.7242
995.48        103.9691
995.86        102.2139
996.24        100.7346
996.63        99.03918
997.01        97.87792
997.39        99.22644
997.77        103.5402
998.15        110.0645
998.54        116.1571
998.92        118.6052
999.30        116.5056
999.68        110.6946
1000.06        102.5463
1000.45         95.8253
1000.83        92.39349
1001.21        91.29738
1001.59        92.09248
1001.97        94.25467
1002.35        97.53888
1002.73        102.8648
1003.12        108.6837
1003.50         110.271
1003.88        105.4052
1004.26        96.25454
1004.64        87.75599
1005.02        84.39593
1005.40        86.69887
1005.78        94.88784
1006.16        109.0302
1006.54         120.271
1006.92        120.7899
1007.30        115.1899
1007.69        109.7151
1008.07         107.991
1008.45        110.5491
1008.83        118.2881
1009.21        136.6763
1009.59         173.251
1009.97        217.4325
1010.35        207.0254
1010.73        134.9795
1011.11        102.5489
1011.49        96.86935
1011.86        99.16129
1012.24        102.1364
1012.62        103.6213
1013.00        104.0677
1013.38        104.0232
1013.76        106.1193
1014.14        117.3679
1014.52        142.9912
1014.90        184.3666
1015.28        230.9743
1015.66        256.1544
1016.04        242.6612
1016.41        193.0279
1016.79        132.5023
1017.17        91.99057
1017.55        75.51311
1017.93        71.53297
1018.31        72.99623
1018.69        75.98659
1019.06        80.14561
1019.44        86.98058
1019.82        99.90613
1020.20        124.1671
1020.58        167.9171
1020.95        247.3803
1021.33        426.7691
1021.71       -2272.828
1022.09       -102.1558
1022.46        16.60407
1022.84        53.90085
1023.22        65.79269
1023.60        61.23955
1023.97       -61.32923
1024.35        159.9393
1024.73        142.2624
