SpectraSmart Spectrum 2.9.0.0
--------- Device Information -----------
Spectrum Name :  反射率_0
Saving Time :  2024/04/26 00:47:41
Spectro-Module Model Name : SE2030-DUVN
Spectro-Module Serial Number : OS361AC55029948
Wavelength Start : 200
Wavelength End : 1025
Wavelength Unit : Wavelength(nm)
Spectrum Unit : Reflectance(%)
-----------Spectrum Setting ------------
Integration Time : 20ms
Average : 10
Boxcar : 0
Background removal :  enabled
linearity correction :  enabled
SC :  disabled
Intensity correction :  disabled
DWT denoise :  enabled
savitzky-golay :  disabled
FFT :  disabled
Running average :  disabled
Kalman :  disabled
High pass :  disabled
---------------BEGIN--------------------
Wavelength(nm)             Reflectance(%)
200.29               0
200.75        84.90999
201.21        79.82438
201.67        73.48499
202.13        68.12798
202.58        64.13399
203.04        61.37575
203.50        59.93335
203.96        59.99025
204.42        61.19709
204.88        63.07151
205.34        65.00216
205.80        66.57177
206.26        67.96143
206.72        69.71108
207.18        71.49788
207.64        69.75068
208.10        62.85905
208.55        56.51928
209.01        53.59682
209.47        53.24613
209.93        54.28703
210.39        56.86753
210.85        59.25015
211.31        57.68884
211.77        51.59835
212.23        42.49786
212.69          34.464
213.14        33.93264
213.60         41.6581
214.06        55.62147
214.52        71.14919
214.98        81.00869
215.44        83.15459
215.90        79.84155
216.36        73.54913
216.81        67.73617
217.27         63.9819
217.73        61.38535
218.19        58.94971
218.65         55.1759
219.11        49.16549
219.57        40.19296
220.02        29.27914
220.48        23.16316
220.94         25.4101
221.40        34.50247
221.86        43.03577
222.32          43.333
222.77          36.494
223.23        26.73083
223.69        18.87816
224.15        17.91259
224.61        23.16707
225.06          32.099
225.52        40.93966
225.98        44.86563
226.44        43.05898
226.90        37.63271
227.36        31.28217
227.81        27.65494
228.27        27.82818
228.73        30.29033
229.19        33.71895
229.65        36.20657
230.10        37.17495
230.56        37.32193
231.02        37.08977
231.48        36.86176
231.93        36.75994
232.39        36.65478
232.85        36.42637
233.31        36.00079
233.77        35.34814
234.22        34.42206
234.68        33.58096
235.14        33.38328
235.60        33.95773
236.05         35.2277
236.51        36.41889
236.97        36.32716
237.43        34.70993
237.88        31.67406
238.34        28.25739
238.80        27.47144
239.26        30.79709
239.71        37.58401
240.17        45.72442
240.63        51.65675
241.08        54.12375
241.54        53.89813
242.00        52.04861
242.46        50.01076
242.91        48.11547
243.37        44.66168
243.83        38.28032
244.28        37.08001
244.74        70.80746
245.20        97.08628
245.66        99.94849
246.11        100.8192
246.57        103.6294
247.03        110.4257
247.48         120.115
247.94         84.7373
248.40        67.17406
248.85        65.03503
249.31        66.08456
249.77        68.75781
250.22        73.14219
250.68        80.45533
251.14        90.27901
251.59        95.09177
252.05        88.52558
252.51        74.45555
252.96        60.42583
253.42        53.03471
253.88        51.51649
254.33        53.52344
254.79        57.81062
255.25        62.05463
255.70        65.19529
256.16        67.90166
256.62        69.29141
257.07        68.41558
257.53        65.90967
257.99         61.9263
258.44        57.88065
258.90        56.24559
259.35        56.22374
259.81        56.93831
260.27        56.65951
260.72        53.70687
261.18        48.84136
261.63        42.93006
262.09        37.67327
262.55        34.45921
263.00        33.19046
263.46        33.16425
263.91        33.32313
264.37        32.72796
264.83        31.25602
265.28        29.18543
265.74        27.22766
266.19        26.23632
266.65         26.3591
267.11        27.08132
267.56        27.76269
268.02         27.6433
268.47        26.63247
268.93        25.02111
269.38        23.16077
269.84        21.87083
270.30        21.39396
270.75        21.50735
271.21        21.87183
271.66        21.98971
272.12        21.69989
272.57        21.16312
273.03        20.59205
273.48        20.22276
273.94        20.13292
274.39        20.19986
274.85        20.25629
275.31         20.0761
275.76        19.61732
276.22        18.98571
276.67        18.35804
277.13        18.05493
277.58        18.07823
278.04        18.32995
278.49        18.55938
278.95        18.45337
279.40        17.95252
279.86        17.22198
280.31        16.44082
280.77        15.96824
281.22        15.83865
281.68        15.94194
282.13        16.12385
282.59        16.18375
283.04        16.07563
283.50         15.8986
283.95         15.6859
284.41        15.49159
284.86        15.33505
285.32        15.18771
285.77        15.10326
286.22        15.21991
286.68        15.51557
287.13        15.93032
287.59        16.28022
288.04        16.29146
288.50        15.94865
288.95        15.34407
289.41        14.69581
289.86        14.24194
290.32        14.09113
290.77         14.1555
291.22        14.37628
291.68        14.62705
292.13        14.86961
292.59        15.13479
293.04        15.44496
293.50        15.83105
293.95        16.28011
294.40        16.74277
294.86         17.1596
295.31        17.46024
295.77        17.64198
296.22        17.74538
296.68        17.81911
297.13        17.91227
297.58        18.06586
298.04        18.27591
298.49        18.57763
298.95        19.05389
299.40           19.69
299.85        20.44953
300.31        21.20243
300.76        21.75856
301.21        22.05963
301.67        22.17887
302.12        22.19054
302.58         22.2504
303.03        22.38722
303.48        22.56603
303.94         22.7974
304.39        23.06658
304.84        23.36631
305.30        23.69991
305.75         23.9993
306.20        24.16265
306.66         24.1931
307.11        24.11012
307.57        24.00784
308.02         23.9686
308.47        24.03828
308.93        24.18616
309.38        24.38061
309.83        24.59665
310.29        24.80324
310.74         24.9966
311.19        25.14787
311.65        25.21375
312.10        25.18835
312.55        25.08705
313.00        24.92167
313.46        24.72313
313.91         24.5055
314.36        24.28412
314.82        24.11366
315.27        24.06388
315.72        24.14572
316.18        24.33241
316.63        24.55423
317.08        24.67377
317.53        24.64902
317.99        24.50359
318.44        24.30758
318.89        24.17767
319.35        24.13807
319.80        24.16145
320.25        24.16721
320.70        24.02682
321.16        23.71926
321.61        23.29168
322.06        22.85158
322.51        22.55679
322.97        22.43136
323.42        22.43436
323.87        22.45569
324.32        22.31292
324.78        21.96198
325.23        21.46703
325.68        20.93549
326.13        20.54197
326.59        20.33483
327.04         20.2822
327.49        20.30939
327.94        20.29148
328.39        20.19104
328.85        20.03799
329.30        19.91173
329.75          19.916
330.20        20.07202
330.66        20.31557
331.11        20.57913
331.56        20.72046
332.01        20.69568
332.46        20.52804
332.92        20.27605
333.37          20.069
333.82        19.94863
334.27        19.89816
334.72        19.85056
335.17        19.69012
335.63        19.39575
336.08        19.01687
336.53        18.67029
336.98        18.53562
337.43        18.64701
337.88        18.95134
338.34        19.28218
338.79        19.41107
339.24        19.25686
339.69        18.88045
340.14        18.45682
340.59        18.29241
341.05        18.44767
341.50        18.82035
341.95        19.22074
342.40        19.37323
342.85        19.21852
343.30        18.85742
343.75         18.4051
344.20        18.06343
344.66        17.90186
345.11        17.82509
345.56        17.81309
346.01        17.83134
346.46        17.84937
346.91        17.90219
347.36        17.88841
347.81        17.63757
348.26        17.15342
348.72        16.52389
349.17        15.92751
349.62        15.74305
350.07        16.04539
350.52        16.69748
350.97        17.48199
351.42        18.06506
351.87        18.34271
352.32        18.40371
352.77        18.30178
353.22        18.13073
353.67        17.93806
354.13        17.69663
354.58        17.43985
355.03        17.26207
355.48        17.18325
355.93          17.204
356.38        17.25726
356.83        17.21939
357.28        17.06078
357.73        16.80945
358.18        16.54382
358.63         16.3881
359.08        16.37095
359.53        16.46196
359.98        16.56354
360.43        16.52602
360.88        16.32321
361.33        15.99724
361.78        15.68247
362.23        15.59555
362.68        15.76705
363.13        16.10896
363.58        16.44644
364.03        16.51047
364.48        16.24484
364.93        15.74956
365.38        15.16319
365.83        14.70659
366.28        14.45787
366.73        14.35602
367.18        14.36684
367.63        14.43229
368.08        14.51305
368.53        14.62122
368.98        14.72495
369.43        14.76659
369.88         14.7369
370.33        14.65092
370.78        14.51845
371.23        14.36953
371.68        14.22411
372.13        14.07096
372.58        13.97097
373.03        14.02115
373.48        14.22499
373.93        14.54803
374.38        14.85948
374.83        14.95766
375.28        14.80465
375.72        14.44955
376.17        14.04519
376.62        13.80258
377.07         13.7826
377.52        13.91858
377.97        14.11837
378.42        14.23187
378.87        14.21397
379.32        14.11791
379.77        13.98917
380.22        13.88804
380.67        13.83193
381.11         13.7963
381.56        13.76033
382.01        13.70449
382.46        13.62172
382.91        13.52075
383.36        13.41768
383.81        13.33293
384.26         13.2729
384.71        13.23667
385.15        13.19439
385.60         13.1088
386.05        12.96991
386.50        12.78245
386.95        12.60208
387.40        12.52469
387.85        12.56741
388.29        12.69792
388.74        12.82714
389.19        12.82907
389.64        12.69083
390.09        12.44741
390.54        12.20395
390.98        12.13635
391.43        12.28713
391.88        12.58205
392.33        12.88837
392.78        13.01291
393.23         12.9257
393.67         12.6921
394.12        12.43931
394.57        12.29711
395.02        12.29709
395.47        12.39412
395.91        12.53323
396.36        12.60141
396.81        12.56615
397.26        12.45279
397.71          12.316
398.15        12.22008
398.60        12.19808
399.05        12.23181
399.50        12.25553
399.95        12.14327
400.39        11.93721
400.84        11.63064
401.29        11.34617
401.74        11.28232
402.18        11.49128
402.63        11.88785
403.08        12.32074
403.53        12.54918
403.97        12.51199
404.42        12.28227
404.87        11.96367
405.32        11.73949
405.76        11.67001
406.21        11.69841
406.66        11.77667
407.11        11.84175
407.55        11.87563
408.00        11.90204
408.45        11.91795
408.90        11.90292
409.34        11.85562
409.79        11.77578
410.24        11.69707
410.68        11.67166
411.13         11.7113
411.58        11.80858
412.03        11.92284
412.47        11.98193
412.92        11.95754
413.37        11.86723
413.81         11.7688
414.26        11.76553
414.71        11.86663
415.15        12.04364
415.60        12.20065
416.05         12.2039
416.49        12.02631
416.94        11.72551
417.39        11.39634
417.83        11.20057
418.28        11.19099
418.73        11.30591
419.17        11.48345
419.62        11.62076
420.07        11.68736
420.51        11.71479
420.96        11.69707
421.41        11.61964
421.85        11.49017
422.30        11.33042
422.74        11.17899
423.19        11.12181
423.64        11.16085
424.08        11.28048
424.53        11.42962
424.98        11.53863
425.42        11.58461
425.87        11.57876
426.31        11.53114
426.76         11.4977
427.21        11.47263
427.65        11.36456
428.10        11.24396
428.54        11.29186
428.99        11.52084
429.44        11.85557
429.88        12.15719
430.33         12.2424
430.77        12.08163
431.22        11.73374
431.66        11.35567
432.11        11.23332
432.56        11.39398
433.00        11.69231
433.45        11.98362
433.89        12.18129
434.34        12.19554
434.78        11.93394
435.23        11.59689
435.67        11.58729
436.12        11.87072
436.57        12.02367
437.01        11.96976
437.46        11.88876
437.90        11.79666
438.35        11.64769
438.79        11.48409
439.24        11.40479
439.68        11.43054
440.13        11.48101
440.57        11.54209
441.02        11.74608
441.46        11.98381
441.91        11.85429
442.35         11.4413
442.80        11.21493
443.24        11.16463
443.69        11.11564
444.13        11.03522
444.58        10.88085
445.02        10.70014
445.47        10.72492
445.91        10.89857
446.36        10.93068
446.80        10.79439
447.24        10.64563
447.69        10.53172
448.13        10.45303
448.58        10.42965
449.02        10.46007
449.47        10.50677
449.91        10.50705
450.36        10.45203
450.80        10.35811
451.25        10.27909
451.69         10.2884
452.13        10.39832
452.58        10.56591
453.02        10.73912
453.47        10.83276
453.91        10.82988
454.36        10.76281
454.80        10.65195
455.24        10.53444
455.69        10.43827
456.13        10.34854
456.58        10.30536
457.02         10.3504
457.46        10.48868
457.91        10.70259
458.35        10.92787
458.79        11.05014
459.24        11.05327
459.68        10.95462
460.13         10.8383
460.57        10.80451
461.01        10.88809
461.46        11.04669
461.90        11.21714
462.34        11.28742
462.79        11.23231
463.23        11.08406
463.68        10.91934
464.12        10.86456
464.56        10.95431
465.01        11.14773
465.45        11.34465
465.89        11.43882
466.34        11.41791
466.78        11.25821
467.22        11.06005
467.67        11.09648
468.11        11.33966
468.55        11.44571
468.99        11.39098
469.44        11.37121
469.88        11.42857
470.32        11.59614
470.77        11.81277
471.21        11.89322
471.65        11.81152
472.10        11.69937
472.54        11.60824
472.98        11.58714
473.42        11.65838
473.87        11.81057
474.31        11.99087
474.75        12.10883
475.20        12.14688
475.64        12.12378
476.08        12.09086
476.52        12.12776
476.97        12.25024
477.41        12.43413
477.85        12.61824
478.29        12.72891
478.74        12.75001
479.18        12.64453
479.62         12.4801
480.06        12.57183
480.50        12.67845
480.95        12.81059
481.39        12.84568
481.83        12.86098
482.27        12.85217
482.72        12.72704
483.16        12.55122
483.60        12.61297
484.04        12.92924
484.48        13.08598
484.93        13.24701
485.37        13.67541
485.81        14.23694
486.25         14.3633
486.69        18.66248
487.14        14.85896
487.58        9.905854
488.02        12.22953
488.46        13.90049
488.90        13.89816
489.34        13.87294
489.79        13.86852
490.23        14.81205
490.67        15.38318
491.11        15.32865
491.55        15.13315
491.99        14.83072
492.43        14.62405
492.88        14.60446
493.32        14.73698
493.76        14.88763
494.20        15.13797
494.64        15.42333
495.08        15.71662
495.52        16.00546
495.96        16.29546
496.41        16.53851
496.85        16.70978
497.29        16.80266
497.73         16.6478
498.17        16.44632
498.61        16.61303
499.05        17.16214
499.49        17.31095
499.93        17.47455
500.37        17.66753
500.82        17.81653
501.26        18.06397
501.70        18.31142
502.14         18.4203
502.58        18.38598
503.02        18.37833
503.46        18.41264
503.90        18.38803
504.34        18.33077
504.78        18.32862
505.22        18.39289
505.66        18.50814
506.10        18.63565
506.54        18.70554
506.98        18.70408
507.42        18.65579
507.86        18.61577
508.30        18.66989
508.74        18.83207
509.18        19.06642
509.62        19.31957
510.06        19.50386
510.50        19.59472
510.94        19.62712
511.38        19.62013
511.82        19.60377
512.26        19.59489
512.70        19.57695
513.14        19.58422
513.58        19.67493
514.02        19.84162
514.46        20.06022
514.90        20.25343
515.34        20.26185
515.78        20.03289
516.22         19.7747
516.66        19.58698
517.10        19.17481
517.54        18.57322
517.98        19.40241
518.42        19.23973
518.86        19.60703
519.30        19.76063
519.74        19.94009
520.18        20.10514
520.62        20.16006
521.06        20.12215
521.50        19.99162
521.93        19.82402
522.37        19.72528
522.81        19.72008
523.25        19.78083
523.69        19.86938
524.13         19.9238
524.57        19.92417
525.01        19.88919
525.45        19.83076
525.89        19.76742
526.32        19.70514
526.76        19.63812
527.20        19.56271
527.64        19.48219
528.08        19.40241
528.52        19.30925
528.96        19.20555
529.40        19.14626
529.83        19.14484
530.27        18.99101
530.71        19.04744
531.15        18.99169
531.59        18.93357
532.03        18.86546
532.46        18.82034
532.90        18.85246
533.34        18.95757
533.78        19.11267
534.22        19.25592
534.66        19.29833
535.09        19.21877
535.53        19.05324
535.97        18.85233
536.41        18.70057
536.85        18.62826
537.28        18.62054
537.72        18.65125
538.16        18.67669
538.60         18.6855
539.04        18.67599
539.47        18.68248
539.91        18.80245
540.35           19.02
540.79        19.23478
541.22        19.39876
541.66        19.51609
542.10        19.57362
542.54        19.54342
542.97         19.4887
543.41        19.54303
543.85         19.7265
544.29        20.01044
544.72        20.30809
545.16        20.49127
545.60        20.53293
546.04        20.47013
546.47        20.41045
546.91        20.53271
547.35        20.85903
547.79        21.33132
548.22        21.80773
548.66        22.04904
549.10        22.02165
549.53         21.8379
549.97        21.63893
550.41        21.58436
550.84          21.727
551.28        22.02721
551.72        22.41552
552.15        22.76488
552.59        23.02157
553.03        23.21757
553.46        23.36233
553.90        23.48569
554.34        23.60312
554.77        23.68151
555.21        23.72172
555.65        23.76865
556.08        23.89203
556.52        23.75099
556.96        23.92472
557.39        23.97216
557.83        24.06733
558.27        24.18244
558.70        24.32348
559.14        24.48487
559.57        24.64712
560.01        24.81816
560.45        24.95643
560.88        24.99439
561.32        24.94782
561.75        24.83766
562.19        24.73479
562.63         24.6943
563.06        24.73973
563.50        24.89207
563.93        25.10956
564.37        25.29858
564.80        25.42752
565.24        25.54674
565.68        25.64087
566.11         25.6768
566.55         25.6791
566.98        25.65206
567.42        25.65307
567.85        25.76855
568.29        26.02548
568.72        26.31209
569.16        26.61226
569.60        27.00857
570.03        27.36862
570.47        27.40114
570.90        27.22136
571.34        26.94233
571.77        27.18679
572.21        27.28147
572.64        27.23976
573.08        26.89336
573.51        26.25478
573.95        27.47789
574.38        29.20206
574.82        28.31085
575.25        28.11718
575.69         27.1165
576.12        26.70598
576.56        26.70815
576.99        27.42998
577.42        28.48782
577.86        28.52486
578.29        28.35863
578.73        29.52433
579.16        27.25347
579.60        24.85684
580.03        25.99855
580.47        27.72905
580.90        28.08448
581.33        27.71694
581.77        27.26797
582.20        29.66662
582.64        29.17328
583.07        25.01945
583.51         24.5297
583.94        24.05593
584.37        25.03348
584.81        26.13684
585.24        27.39322
585.68        27.99571
586.11        27.37332
586.54        25.41647
586.98         24.7487
587.41        24.98992
587.85        26.06947
588.28        26.86185
588.71        25.47105
589.15        24.82208
589.58        25.27621
590.01         25.6088
590.45        26.13312
590.88        26.07789
591.31        25.77726
591.75        25.74208
592.18        25.75685
592.61        26.12671
593.05        26.66802
593.48        27.78595
593.91        27.94238
594.35        25.92835
594.78        25.39351
595.21        25.65096
595.65        26.79403
596.08        27.63342
596.51        26.67591
596.94        26.26319
597.38         26.7867
597.81        28.00457
598.24        28.68543
598.68        28.48631
599.11        28.32531
599.54        29.47412
599.97        30.58325
600.41        28.97285
600.84        29.41137
601.27         30.1746
601.70        29.99988
602.14        30.14171
602.57        30.04441
603.00         30.7189
603.43         31.8905
603.87        32.98094
604.30         33.1315
604.73        32.46801
605.16        32.40372
605.60        33.06306
606.03        33.97052
606.46        34.79984
606.89         34.8719
607.32        34.15092
607.76        34.54254
608.19        35.77168
608.62         35.5505
609.05          35.186
609.48        35.76781
609.92        36.09943
610.35        36.21648
610.78        37.74389
611.21        38.32804
611.64        36.98276
612.07        37.59426
612.50         37.9868
612.94        38.48325
613.37        38.41076
613.80        38.63805
614.23        39.16854
614.66        39.37019
615.09        39.78945
615.52        40.06548
615.96         40.2616
616.39        40.51997
616.82        40.14372
617.25        40.22577
617.68        40.75663
618.11        41.23581
618.54        41.58233
618.97          41.508
619.40        41.20667
619.84        41.43976
620.27         42.1502
620.70        42.59922
621.13         42.7049
621.56        42.52623
621.99        42.24549
622.42        42.82759
622.85        43.93556
623.28        43.88994
623.71        43.60817
624.14        43.41747
624.57        43.37749
625.00        43.15749
625.43        43.30607
625.86        42.98109
626.29        43.15294
626.72        43.26355
627.15        43.07592
627.58        42.94035
628.01        42.71224
628.44          42.763
628.87         42.4413
629.30        42.48775
629.73        42.59463
630.16        42.58241
630.59        42.13061
631.02        41.66129
631.45        41.18549
631.88        40.76183
632.31        40.42036
632.74        40.18215
633.17        39.94127
633.60         39.6912
634.03         39.3896
634.46        39.05912
634.89        38.70399
635.32        38.33068
635.75        37.94822
636.18        37.55455
636.61        37.15952
637.04        36.77927
637.47         36.4151
637.89        36.06559
638.32        35.72605
638.75        35.40899
639.18        35.12077
639.61           34.87
640.04        34.63519
640.47        34.37728
640.90        34.09241
641.33        33.78598
641.76        33.49771
642.18        33.34523
642.61        33.34204
643.04        33.37356
643.47        33.35298
643.90        33.57349
644.33        33.31945
644.76         33.1923
645.18        33.02928
645.61        32.92114
646.04        32.88481
646.47        32.88533
646.90        32.96758
647.33        33.17582
647.75        33.52258
648.18        34.02909
648.61        34.53216
649.04        34.79096
649.47        34.77763
649.89        34.42396
650.32        34.06815
650.75        34.47238
651.18          35.575
651.61        36.61185
652.03        37.27342
652.46        37.61345
652.89        37.87544
653.32        37.83377
653.74         37.6768
654.17        39.20778
654.60        39.72885
655.03         38.6125
655.46        39.86846
655.88        42.36969
656.31        45.35188
656.74        101.0686
657.16        65.47002
657.59        22.94048
658.02         17.7386
658.45        31.74757
658.87         41.0316
659.30        42.94135
659.73        42.78485
660.15         41.2192
660.58        43.26453
661.01        44.84605
661.44        43.98162
661.86        43.73431
662.29         43.6794
662.72        44.33879
663.14        45.54612
663.57        45.66011
664.00        44.87266
664.42        44.82431
664.85        45.58861
665.27        46.20146
665.70         46.4564
666.13        46.55013
666.55        46.45228
666.98        46.12138
667.41        45.74559
667.83        45.65842
668.26        45.93348
668.69        46.44474
669.11        46.98523
669.54        47.43203
669.96        47.26416
670.39        46.98702
670.82        46.63683
671.24        46.42059
671.67        46.47349
672.09         46.8689
672.52        47.39507
672.94        47.90728
673.37        47.56406
673.80        47.58668
674.22         47.7712
674.65        47.88152
675.07        47.90368
675.50        47.86534
675.92         47.8408
676.35        47.94469
676.77        48.18904
677.20        48.53374
677.62        48.92765
678.05        48.99965
678.47        49.17332
678.90        49.13072
679.32        49.06593
679.75        48.96453
680.17        49.05033
680.60        49.14467
681.02         49.2739
681.45        49.34805
681.87        49.36904
682.30        49.43267
682.72        49.54424
683.15        49.61875
683.57         49.7051
684.00        49.85209
684.42         50.2373
684.85        50.38897
685.27        50.35423
685.70        50.25202
686.12        50.13563
686.54        50.12484
686.97        50.24657
687.39        50.28761
687.82        50.53579
688.24        50.63412
688.66        50.65218
689.09        50.60977
689.51        50.56762
689.94        50.59941
690.36        50.72714
690.78        50.92442
691.21        51.14383
691.63         51.3153
692.06        51.41854
692.48         51.4777
692.90        51.52919
693.33        51.61884
693.75        51.76406
694.17        51.95539
694.60         52.1572
695.02        52.31451
695.44        52.38873
695.87        52.47434
696.29        52.60764
696.71         52.5593
697.14        52.42071
697.56        52.80265
697.98        53.51996
698.41        53.34164
698.83        52.83088
699.25        52.48121
699.68        52.52864
700.10        52.56004
700.52        52.59698
700.94        52.88996
701.37        53.35054
701.79        53.75797
702.21        54.02388
702.64        54.21444
703.06        54.30035
703.48        54.22865
703.90        54.02147
704.33        53.70228
704.75        53.36888
705.17        53.23687
705.59        53.35937
706.01        53.62029
706.44        53.91642
706.86        54.40191
707.28        54.49342
707.70        54.65954
708.12        54.75447
708.55        54.71934
708.97        54.59248
709.39        54.55801
709.81        54.62703
710.23        54.64033
710.66        54.59817
711.08        54.64886
711.50        54.75546
711.92         54.7499
712.34         54.6091
712.76        54.47432
713.19        54.48182
713.61        54.26399
714.03        54.79805
714.45        55.24923
714.87        55.71312
715.29        55.85591
715.71        55.62476
716.13        55.13773
716.56        54.59238
716.98        54.28974
717.40        54.35057
717.82         54.8306
718.24        55.52222
718.66        55.91864
719.08        55.90981
719.50        55.69901
719.92        55.42345
720.34         55.2691
720.76        55.30396
721.19        55.37123
721.61        55.58573
722.03        55.75146
722.45        55.88258
722.87        56.00296
723.29        56.11596
723.71        56.21485
724.13        56.29588
724.55        56.34846
724.97        56.37231
725.39        56.37759
725.81         56.3693
726.23        56.35225
726.65        56.33118
727.07        56.30851
727.49        56.29158
727.91         56.2893
728.33        56.30803
728.75        56.35627
729.17        56.43018
729.59        56.51521
730.01        56.61555
730.43        56.73183
730.85        56.86218
731.27        57.02759
731.69        57.17234
732.10        57.18978
732.52        57.06849
732.94        56.87416
733.36         56.7355
733.78        56.75177
734.20        56.94384
734.62        57.51351
735.04        58.26241
735.46        58.28487
735.88        57.76866
736.30        58.03839
736.72        59.03034
737.13        59.41364
737.55        59.00612
737.97        58.80828
738.39        58.91108
738.81         58.5174
739.23        57.88922
739.65        58.50821
740.06         59.9995
740.48        60.09006
740.90        58.87624
741.32        58.32613
741.74        58.64519
742.16        58.84153
742.57        58.95195
742.99        59.60934
743.41        60.58931
743.83          61.062
744.25        60.94819
744.67        60.67254
745.08        60.44378
745.50         60.3834
745.92        60.58552
746.34        61.07127
746.75        61.65042
747.17        61.93554
747.59        61.86446
748.01        61.55861
748.42        61.24561
748.84        61.27603
749.26         61.7291
749.68        62.46139
750.09        63.24637
750.51         63.7142
750.93        63.77512
751.35        63.50441
751.76        63.05112
752.18        62.79784
752.60          62.757
753.01        62.56507
753.43        62.29904
753.85        62.39446
754.27        62.88589
754.68        63.58798
755.10          64.313
755.52        64.87946
755.93        65.18855
756.35        65.21842
756.77        65.10982
757.18        65.07301
757.60         65.1757
758.02        65.53982
758.43        65.82716
758.85        65.68966
759.26        64.06395
759.68        63.82115
760.10        64.86476
760.51        65.37123
760.93        65.17097
761.34        64.27924
761.76        63.93033
762.18        63.39589
762.59        63.20644
763.01        63.68451
763.42        64.72243
763.84        65.44321
764.26        65.67489
764.67        65.65481
765.09        65.45896
765.50        65.32427
765.92        65.21115
766.33        64.44584
766.75        63.38807
767.16        63.16704
767.58        63.84562
768.00        65.05749
768.41        66.58134
768.83        66.96587
769.24         67.5817
769.66        66.80928
770.07        65.60258
770.49        64.28879
770.90         63.2806
771.32        64.09159
771.73        66.10784
772.15         65.8199
772.56        63.57307
772.97        63.05658
773.39        64.26196
773.80        64.75117
774.22        64.34321
774.63        64.39124
775.05        64.83218
775.46         65.0776
775.88        65.03744
776.29        64.81567
776.70        64.52789
777.12        64.44009
777.53        64.61617
777.95        64.93388
778.36        65.22344
778.77        65.20019
779.19        64.84101
779.60        64.24732
780.02        63.67088
780.43        63.55128
780.84        64.00891
781.26        64.59322
781.67        65.16888
782.09        66.13346
782.50        67.05205
782.91        66.27349
783.33        64.37787
783.74        63.73393
784.15         64.4854
784.57        65.08353
784.98        65.25458
785.39        65.33965
785.81        65.26031
786.22        64.80392
786.63        64.27193
787.04        64.23118
787.46        64.74177
787.87        65.61566
788.28        66.54411
788.70        66.99054
789.11        66.82392
789.52        66.27495
789.93        65.60624
790.35        65.08939
790.76        64.87966
791.17        65.10933
791.58        65.60902
792.00        65.86543
792.41        65.74097
792.82        65.46282
793.23        65.23505
793.65        64.90495
794.06        64.72002
794.47        65.74069
794.88        67.30405
795.29        67.05118
795.71        65.15039
796.12        63.47739
796.53        62.56874
796.94         62.2328
797.35        62.61387
797.76        63.75002
798.18        65.07537
798.59         65.9494
799.00        66.10744
799.41        64.72115
799.82        63.89589
800.23        63.14048
800.64        63.14616
801.06        63.55073
801.47        64.20719
801.88        64.74419
802.29        64.99451
802.70        65.10236
803.11        65.09994
803.52        65.01969
803.93        64.90804
804.34         64.7247
804.75        64.52193
805.17        64.49018
805.58         64.6998
805.99        64.82956
806.40        64.83501
806.81        65.33681
807.22        65.96089
807.63        65.14533
808.04        63.35346
808.45        62.66437
808.86        63.24691
809.27        64.04593
809.68        64.71392
810.09        65.08127
810.50        64.98363
810.91        64.49698
811.32        63.85612
811.73        63.43902
812.14        63.35338
812.55        63.46215
812.96        63.71199
813.37        63.99323
813.78        64.23774
814.19        64.52606
814.60        64.70192
815.01        64.51049
815.42        63.93688
815.83        63.01736
816.24        62.10886
816.65         61.8481
817.05        62.41368
817.46        63.59384
817.87        64.89905
818.28        65.44279
818.69        64.99103
819.10        63.77823
819.51        62.35889
819.92        61.67502
820.33        61.98048
820.74        62.98501
821.14        64.21051
821.55        64.79079
821.96        64.52311
822.37        63.69979
822.78         62.7043
823.19        62.09483
823.60        62.03156
824.00        62.36977
824.41         62.8604
824.82        63.18863
825.23        63.21461
825.64        63.05917
826.04        62.85234
826.45        62.76168
826.86        62.83074
827.27        62.98083
827.68        63.12409
828.08        63.15219
828.49        62.98814
828.90        62.71698
829.31        62.41636
829.72        62.21777
830.12        62.19396
830.53        62.27804
830.94        62.45844
831.35        62.70065
831.75         63.0185
832.16        63.35943
832.57         63.7058
832.97        63.97507
833.38        64.08937
833.79        64.06122
834.20        63.94466
834.60        63.82556
835.01        63.75608
835.42         63.7141
835.82        63.65639
836.23        63.44041
836.64        63.08551
837.04        62.66113
837.45        62.28544
837.86        62.15065
838.26        62.29578
838.67        62.62041
839.08        63.02808
839.48        63.33617
839.89        63.44662
840.29        63.42474
840.70        63.25421
841.11        62.90274
841.51        62.41179
841.92        61.78761
842.33        61.21038
842.73         60.9841
843.14         61.1433
843.54        61.63583
843.95        62.23026
844.35        62.58326
844.76        62.57353
845.17        62.30315
845.57        61.91672
845.98        61.64554
846.38        61.55983
846.79        61.56954
847.19        61.62772
847.60         61.5952
848.00        61.47171
848.41        61.29403
848.81        61.14762
849.22        61.06746
849.62        61.11038
850.03        61.26738
850.43        61.52218
850.84        61.80405
851.24        62.09696
851.65        62.24947
852.05        62.42152
852.46        62.72695
852.86        63.18169
853.27        63.78857
853.67        64.07671
854.07        63.43257
854.48        61.89378
854.88        59.69781
855.29        57.65519
855.69        56.94559
856.10        57.79871
856.50         60.0486
856.90        62.94555
857.31        64.71809
857.71        64.76529
858.12        63.52623
858.52        61.82749
858.92        60.75378
859.33        60.56321
859.73        60.93744
860.13        61.69745
860.54         62.4727
860.94        63.10978
861.34        63.72239
861.75        64.22216
862.15        64.53361
862.55        64.61915
862.96        64.46713
863.36        64.19473
863.76        64.02753
864.17        64.03638
864.57        64.21192
864.97        64.52835
865.38        64.92622
865.78        65.40663
866.18        65.89767
866.58          66.327
866.99        66.56671
867.39        66.61694
867.79        66.53086
868.19        66.21683
868.60        65.53147
869.00        64.50708
869.40        63.24527
869.80        62.28576
870.21         62.4237
870.61        63.86963
871.01         66.3866
871.41        69.18787
871.81        70.91068
872.22        71.20076
872.62         70.3987
873.02        69.20409
873.42        69.06908
873.82        69.97669
874.22        70.81443
874.63        71.43178
875.03        71.60704
875.43        71.13486
875.83        71.75498
876.23        69.80881
876.63         68.3913
877.03        66.91946
877.44        65.41313
877.84        110.7703
878.24        71.52508
878.64        73.49081
879.04        77.34067
879.44        70.83044
879.84         67.7429
880.24         75.8839
880.64        78.70528
881.04        78.00923
881.44        77.04405
881.84        75.91289
882.24        74.45196
882.65        73.38179
883.05          72.994
883.45         73.3279
883.85        74.79382
884.25        76.86118
884.65        78.05959
885.05        77.97562
885.45        77.05611
885.85        75.89832
886.25        75.35012
886.65        75.60195
887.05        76.34591
887.45        77.29428
887.85        77.95488
888.25        78.12891
888.65        78.01081
889.04        77.68547
889.44        77.30472
889.84        76.92953
890.24        76.48293
890.64        76.06812
891.04        75.86481
891.44        75.88203
891.84        76.09987
892.24        76.31853
892.64        76.15649
893.04        75.58868
893.44        74.82153
893.83        74.11844
894.23        73.84282
894.63        74.05029
895.03        74.53771
895.43        75.28484
895.83        76.23647
896.23        77.25943
896.63        78.37516
897.02        79.09651
897.42        78.65649
897.82        77.04108
898.22        74.60117
898.62        72.24522
899.01        71.30553
899.41        72.03328
899.81        73.94281
900.21        76.35268
900.61        78.14568
901.00        78.91999
901.40        78.96857
901.80        78.51446
902.20        77.91167
902.59        77.32148
902.99        76.64082
903.39        75.88307
903.79        75.12115
904.18        74.43652
904.58        73.95934
904.98        73.83637
905.38        74.22922
905.77        75.08963
906.17        76.26105
906.57        77.47474
906.96        78.40162
907.36        78.85922
907.76        78.91545
908.15        78.62756
908.55        78.00829
908.95        77.18572
909.34        76.19224
909.74        75.19981
910.14        74.28053
910.53        73.50468
910.93        72.91359
911.33        72.71777
911.72        73.27228
912.12        74.44471
912.52        75.96226
912.91        77.36633
913.31        78.07675
913.70        78.05506
914.10        77.41261
914.49        76.24007
914.89         74.9945
915.29        74.04996
915.68        73.32903
916.08        73.05866
916.47        73.31854
916.87        74.04081
917.26        75.22605
917.66         76.4208
918.05         76.8959
918.45        76.47688
918.84        75.40437
919.24        74.21229
919.64        73.68884
920.03        74.04073
920.42        75.01533
920.82        76.27504
921.21        77.34563
921.61        77.86517
922.00        78.01475
922.40        77.72819
922.79        77.00007
923.19        76.01143
923.58        74.45367
923.98        72.43103
924.37        71.44815
924.77        72.19116
925.16        68.81957
925.55        71.59064
925.95        72.19424
926.34        73.61101
926.74        75.32804
927.13        77.04828
927.52        77.85632
927.92        77.60166
928.31        76.62354
928.70        75.19861
929.10        73.86761
929.49        72.78732
929.89        71.84004
930.28        71.34334
930.67        71.83437
931.07        73.21882
931.46        75.41482
931.85        77.46061
932.24        77.90266
932.64         76.4798
933.03        73.39151
933.42        69.57324
933.82        67.08519
934.21        66.56817
934.60        67.51607
934.99        68.73877
935.39        69.17767
935.78        68.68556
936.17        66.51472
936.56        62.60657
936.96        65.45203
937.35        64.50704
937.74        67.54593
938.13        70.08356
938.53        71.69495
938.92        72.50665
939.31        72.88676
939.70        72.89492
940.09        72.37583
940.49         71.4954
940.88        70.39304
941.27        69.45087
941.66        69.11821
942.05        69.39765
942.44        70.13387
942.84        71.10694
943.23        71.94429
943.62        72.40597
944.01        72.58325
944.40        72.35927
944.79        71.54982
945.18        70.13141
945.57        68.06269
945.97        65.81572
946.36        64.49087
946.75        64.60399
947.14        65.72243
947.53        67.11763
947.92        68.04467
948.31        68.42777
948.70        68.51077
949.09        68.38039
949.48        68.22066
949.87        68.12048
950.26        67.92886
950.65        67.76889
951.04        67.86749
951.43        68.24428
951.82        68.90203
952.21        69.47531
952.60        69.34895
952.99        68.41806
953.38        66.84958
953.77        65.23894
954.16        64.45967
954.55         64.6753
954.94        65.70882
955.33        66.84569
955.72        66.87202
956.11        65.52361
956.50        63.12535
956.89        60.71401
957.28        60.19486
957.66        62.13515
958.05        65.66982
958.44        69.51573
958.83        71.77798
959.22        71.97247
959.61        70.64272
960.00         68.5008
960.39        66.71413
960.78        65.71579
961.16        65.20021
961.55        64.92626
961.94        64.49046
962.33        63.80248
962.72        63.11495
963.11        62.64179
963.49        62.59522
963.88        62.97311
964.27        63.68491
964.66        64.46484
965.04         64.8036
965.43        64.46657
965.82        63.69168
966.21        62.85387
966.60        62.43048
966.98        62.53371
967.37        62.98221
967.76        63.64762
968.15        64.23874
968.53        64.59679
968.92        64.72412
969.31         64.6759
969.69        64.50098
970.08        64.22537
970.47        63.85652
970.86        63.31034
971.24        62.45982
971.63        61.34415
972.02        60.01816
972.40        58.82492
972.79        58.37985
973.17        58.91333
973.56        60.22607
973.95        61.85692
974.33        62.86542
974.72        62.81956
975.11         61.9389
975.49        60.76617
975.88        60.09035
976.26        60.03217
976.65        60.45189
977.04        60.79268
977.42        59.85662
977.81        57.48453
978.19        54.29663
978.58        51.82102
978.96         51.5307
979.35        53.61015
979.74        57.78704
980.12        63.19327
980.51        66.75204
980.89        67.38696
981.28         65.8207
981.66        63.38395
982.05        61.77911
982.43        61.37544
982.82        61.55107
983.20         62.1815
983.59        63.13108
983.97        64.36363
984.35        66.06683
984.74        67.71314
985.12        68.21996
985.51         66.9768
985.89         64.0269
986.28        60.35444
986.66         57.4764
987.04        56.12174
987.43        56.00492
987.81        56.20898
988.20        55.40459
988.58        53.06473
988.96        48.69615
989.35        43.06824
989.73        40.45277
990.12        44.10884
990.50        52.20482
990.88        59.34045
991.27        61.19743
991.65        58.43612
992.03        52.33483
992.42        45.84109
992.80        44.15143
993.18        48.41039
993.56        55.57733
993.95        62.77575
994.33        67.50634
994.71         69.2763
995.10        69.37463
995.48        68.15599
995.86        65.84624
996.24         62.6479
996.63        58.08082
997.01        53.04851
997.39        50.75583
997.77        52.56406
998.15        57.94048
998.54        63.80593
998.92        65.79815
999.30        62.65469
999.68        55.52591
1000.06        46.36996
1000.45        40.02629
1000.83        38.46135
1001.21        40.00006
1001.59        43.35862
1001.97        47.39185
1002.35        51.80442
1002.73        57.60618
1003.12        63.48202
1003.50        64.64244
1003.88        59.23563
1004.26        49.66948
1004.64         40.3575
1005.02        34.85333
1005.40        33.14323
1005.78        34.38601
1006.16        39.57757
1006.54        47.62609
1006.92         53.8293
1007.30        57.05464
1007.69        57.56529
1008.07        56.12679
1008.45        52.30299
1008.83        43.41792
1009.21        20.74251
1009.59       -38.04605
1009.97       -160.1475
1010.35       -274.7689
1010.73       -193.4873
1011.11       -83.78457
1011.49       -18.15872
1011.86        23.01617
1012.24        44.65609
1012.62        52.88417
1013.00        52.92015
1013.38        46.47567
1013.76        35.33876
1014.14        28.02348
1014.52        32.19603
1014.90        49.70315
1015.28        74.43758
1015.66        84.36631
1016.04        67.50141
1016.41        32.53135
1016.79      -0.8258117
1017.17       -14.65362
1017.55       -12.33714
1017.93       -5.242319
1018.31        2.651287
1018.69        10.66478
1019.06        19.36357
1019.44        30.46843
1019.82         45.0302
1020.20        57.57548
1020.58        57.35685
1020.95        26.74179
1021.33       -95.05052
1021.71        1846.032
1022.09        281.9884
1022.46        199.3474
1022.84        177.4656
1023.22        182.6973
1023.60        225.5697
1023.97        701.1371
1024.35       -111.6417
1024.73       -20.57353
