SpectraSmart Spectrum 2.9.0.0
--------- Device Information -----------
Spectrum Name :  反射率_0
Saving Time :  2024/04/26 00:06:22
Spectro-Module Model Name : SE2030-DUVN
Spectro-Module Serial Number : OS361AC55029948
Wavelength Start : 200
Wavelength End : 1025
Wavelength Unit : Wavelength(nm)
Spectrum Unit : Reflectance(%)
-----------Spectrum Setting ------------
Integration Time : 20ms
Average : 10
Boxcar : 0
Background removal :  enabled
linearity correction :  enabled
SC :  disabled
Intensity correction :  disabled
DWT denoise :  enabled
savitzky-golay :  disabled
FFT :  disabled
Running average :  disabled
Kalman :  disabled
High pass :  disabled
---------------BEGIN--------------------
Wavelength(nm)             Reflectance(%)
200.29               0
200.75         80.6276
201.21        76.92721
201.67        72.19977
202.13        69.60078
202.58        69.54258
203.04        71.55205
203.50        73.91422
203.96        73.83094
204.42        71.14169
204.88        67.27314
205.34        64.08878
205.80        63.44105
206.26        66.03648
206.72        73.55697
207.18        89.50255
207.64        105.3907
208.10        99.20052
208.55        81.94109
209.01        70.01753
209.47        65.00246
209.93        63.82977
210.39         64.8271
210.85        66.16176
211.31        64.55611
211.77        59.42138
212.23        52.24263
212.69        46.23753
213.14        46.35288
213.60        53.00668
214.06        64.53635
214.52        77.00982
214.98        84.46045
215.44        85.30632
215.90        81.49304
216.36        75.34209
216.81        70.08647
217.27        67.11671
217.73         65.5084
218.19        64.19048
218.65        61.64529
219.11        57.06699
219.57        49.86693
220.02        40.93269
220.48        36.06811
220.94        38.21866
221.40        46.10011
221.86        53.15112
222.32        52.63498
222.77        45.64983
223.23        36.07177
223.69        28.49972
224.15        27.70295
224.61        32.95996
225.06        41.81303
225.52        50.40723
225.98        53.74577
226.44         51.0356
226.90        44.46355
227.36        36.98566
227.81        32.61124
228.27        32.50255
228.73        35.08509
229.19        38.83054
229.65        41.49373
230.10        42.45156
230.56        42.54263
231.02        42.38028
231.48        42.58486
231.93         43.2478
232.39        44.08245
232.85        44.82207
233.31          45.178
233.77        45.06243
234.22        44.56265
234.68        43.92347
235.14        43.53188
235.60         43.5268
236.05         43.8348
236.51        44.14997
236.97        43.95333
237.43        43.15436
237.88        41.92703
238.34         40.6427
238.80        40.48017
239.26        42.02224
239.71        44.98797
240.17        48.72476
240.63        52.46318
241.08        55.76039
241.54        58.56693
242.00        60.62373
242.46         61.7333
242.91        62.06157
243.37        60.82895
243.83        57.59761
244.28         60.1899
244.74        87.71815
245.20        102.9387
245.66        102.3424
246.11        101.9636
246.57        103.4334
247.03         107.939
247.48        112.7412
247.94        80.89658
248.40        68.74847
248.85         68.3498
249.31        69.76648
249.77        71.94373
250.22        75.17065
250.68         80.3654
251.14        87.74061
251.59        93.09335
252.05        92.01926
252.51        86.19765
252.96        79.05653
253.42        74.53713
253.88        72.33708
254.33        70.98555
254.79         71.2379
255.25         73.5389
255.70        77.03897
256.16        81.29777
256.62        83.96468
257.07        82.63088
257.53        78.28189
257.99        71.95168
258.44        66.01758
258.90        64.04417
259.35        64.95007
259.81        67.07873
260.27        68.09055
260.72        65.78983
261.18        61.02592
261.63        54.90066
262.09        49.23314
262.55        45.44269
263.00        43.51193
263.46        42.80954
263.91         42.3813
264.37        41.47701
264.83        39.90924
265.28        37.86808
265.74         35.9311
266.19        34.71329
266.65        34.39748
267.11        34.60426
267.56        34.78901
268.02        34.30773
268.47         33.0597
268.93        31.28322
269.38        29.35396
269.84        28.14399
270.30        27.88028
270.75        28.30578
271.21        28.95178
271.66        29.12054
272.12        28.62455
272.57        27.68825
273.03        26.65112
273.48        25.94057
273.94        25.69068
274.39        25.71048
274.85        25.78862
275.31        25.62244
275.76          25.135
276.22        24.46149
276.67        23.75533
277.13        23.31203
277.58          23.134
278.04        23.14453
278.49        23.12358
278.95         22.8201
279.40        22.17899
279.86        21.35234
280.31        20.50455
280.77        19.98039
281.22        19.80411
281.68        19.88158
282.13        20.03963
282.59        20.05966
283.04        19.89247
283.50         19.6454
283.95        19.38376
284.41        19.21885
284.86        19.17253
285.32        19.19701
285.77        19.29169
286.22        19.52043
286.68        19.84462
287.13        20.21827
287.59        20.50536
288.04        20.49764
288.50        20.19517
288.95        19.66411
289.41        19.07726
289.86        18.59813
290.32        18.33112
290.77        18.21647
291.22         18.2585
291.68        18.41969
292.13        18.68279
292.59        19.06143
293.04        19.52349
293.50        20.01398
293.95        20.50167
294.40        20.96386
294.86         21.4074
295.31        21.86335
295.77        22.34337
296.22        22.84459
296.68        23.33368
297.13        23.72774
297.58        24.03517
298.04        24.30085
298.49        24.62321
298.95        25.18887
299.40        26.01518
299.85        27.03386
300.31        28.09962
300.76        28.99206
301.21        29.63096
301.67        30.09928
302.12        30.43842
302.58        30.77267
303.03        31.12097
303.48        31.45613
303.94        31.82659
304.39        32.27178
304.84         32.7958
305.30        33.38556
305.75        33.92529
306.20        34.24474
306.66        34.33968
307.11        34.25254
307.57        34.12893
308.02        34.10974
308.47        34.26086
308.93        34.52976
309.38        34.85749
309.83          35.184
310.29        35.46511
310.74        35.70319
311.19        35.87296
311.65        35.93328
312.10         35.8798
312.55        35.72958
313.00        35.49949
313.46        35.23393
313.91        34.95265
314.36        34.66978
314.82        34.44841
315.27        34.35926
315.72        34.41581
316.18        34.59288
316.63        34.80549
317.08        34.88823
317.53        34.79621
317.99        34.56134
318.44        34.28521
318.89        34.13633
319.35        34.14499
319.80        34.26931
320.25        34.38784
320.70        34.30323
321.16        33.97657
321.61        33.47736
322.06        32.94339
322.51        32.58223
322.97        32.42913
323.42        32.42792
323.87        32.46058
324.32        32.33167
324.78        31.98987
325.23        31.51489
325.68        30.99464
326.13        30.57383
326.59        30.29398
327.04        30.12669
327.49        30.04088
327.94        29.99124
328.39        29.95414
328.85        29.93616
329.30        29.94527
329.75         29.9437
330.20        29.92459
330.66        29.87253
331.11        29.82253
331.56        29.78918
332.01        29.77509
332.46        29.76204
332.92         29.7409
333.37        29.73579
333.82        29.73156
334.27        29.73703
334.72        29.70566
335.17         29.5603
335.63        29.29306
336.08        28.93682
336.53        28.59411
336.98        28.43498
337.43        28.49395
337.88        28.72818
338.34        28.99334
338.79        29.09831
339.24         28.9685
339.69        28.65887
340.14        28.31102
340.59        28.17254
341.05        28.29346
341.50         28.5888
341.95        28.90973
342.40        29.04345
342.85        28.94127
343.30        28.67833
343.75        28.33584
344.20        28.05774
344.66        27.89689
345.11        27.78014
345.56        27.69756
346.01        27.63021
346.46        27.55822
346.91        27.50813
347.36        27.40604
347.81        27.12595
348.26        26.67387
348.72        26.12565
349.17        25.60695
349.62        25.40379
350.07        25.57676
350.52        26.02514
350.97          26.596
351.42        27.05494
351.87        27.31913
352.32        27.43823
352.77        27.43197
353.22         27.3396
353.67        27.18645
354.13        26.96671
354.58        26.69527
355.03        26.43985
355.48        26.22406
355.93        26.05252
356.38         25.9171
356.83         25.7908
357.28         25.6603
357.73        25.52625
358.18        25.38965
358.63        25.24994
359.08        25.10777
359.53        24.97005
359.98        24.81302
360.43        24.60209
360.88        24.33975
361.33        24.03496
361.78         23.7613
362.23        23.63823
362.68        23.67637
363.13        23.82574
363.58        23.97348
364.03        23.94277
364.48        23.69664
364.93        23.29918
365.38         22.8347
365.83        22.44054
366.28        22.16755
366.73        21.97644
367.18        21.86445
367.63        21.82562
368.08        21.83979
368.53        21.90726
368.98        21.97436
369.43        21.95031
369.88        21.81997
370.33        21.61049
370.78        21.36614
371.23        21.17095
371.68        21.05416
372.13        20.98513
372.58        20.97264
373.03        21.02836
373.48        21.13462
373.93        21.28405
374.38        21.39915
374.83        21.35803
375.28         21.1452
375.72        20.79141
376.17        20.41248
376.62        20.16083
377.07        20.08138
377.52        20.12275
377.97        20.23376
378.42        20.32743
378.87        20.36583
379.32        20.37561
379.77         20.3404
380.22        20.23339
380.67        20.05828
381.11        19.81944
381.56         19.5624
382.01        19.37672
382.46        19.28594
382.91        19.27032
383.36        19.28433
383.81        19.24756
384.26        19.14274
384.71        19.00207
385.15          18.851
385.60        18.73936
386.05        18.66811
386.50        18.60586
386.95        18.55384
387.40        18.51891
387.85        18.49774
388.29         18.4937
388.74         18.4683
389.19        18.33497
389.64        18.09063
390.09        17.75285
390.54         17.4302
390.98        17.30836
391.43        17.43004
391.88        17.72089
392.33        18.02682
392.78         18.1194
393.23        17.96595
393.67        17.64244
394.12        17.30305
394.57        17.10138
395.02        17.07252
395.47        17.15737
395.91        17.29607
396.36        17.36194
396.81        17.31832
397.26        17.19628
397.71        17.03881
398.15        16.88826
398.60        16.78526
399.05        16.72003
399.50        16.65421
399.95        16.48729
400.39        16.28518
400.84        16.01694
401.29        15.78333
401.74        15.73327
402.18        15.90653
402.63         16.2309
403.08        16.58881
403.53        16.79123
403.97        16.78796
404.42        16.63295
404.87        16.39912
405.32        16.21744
405.76        16.13295
406.21        16.11064
406.66         16.1249
407.11        16.14542
407.55        16.16319
408.00        16.18706
408.45        16.20834
408.90        16.19577
409.34        16.14272
409.79        16.05659
410.24        15.96546
410.68        15.91018
411.13        15.90296
411.58        15.93573
412.03        15.98623
412.47        16.01802
412.92        16.00888
413.37        15.96867
413.81        15.92523
414.26        15.93753
414.71        16.00418
415.15        16.10798
415.60        16.18371
416.05        16.14703
416.49        15.98323
416.94        15.73567
417.39        15.46472
417.83        15.27447
418.28         15.2051
418.73        15.21502
419.17        15.28534
419.62        15.37799
420.07        15.47357
420.51        15.58467
420.96        15.66228
421.41        15.62125
421.85         15.4516
422.30        15.20302
422.74        14.95533
423.19         14.8583
423.64         14.9224
424.08        15.11322
424.53        15.34307
424.98        15.48357
425.42        15.49573
425.87        15.40742
426.31        15.26231
426.76        15.17492
427.21        15.14822
427.65        15.05001
428.10        14.94334
428.54        15.02181
428.99        15.29108
429.44        15.66732
429.88        15.99056
430.33        16.05814
430.77        15.83779
431.22        15.39405
431.66        14.91716
432.11        14.75969
432.56         14.9505
433.00        15.30541
433.45        15.64669
433.89        15.86992
434.34        15.87243
434.78        15.55364
435.23        15.14938
435.67        15.14009
436.12        15.47493
436.57        15.61647
437.01        15.50361
437.46         15.4251
437.90        15.40997
438.35        15.37691
438.79        15.31992
439.24         15.2748
439.68        15.25373
440.13         15.1837
440.57         15.1087
441.02        15.30181
441.46        15.64516
441.91        15.57917
442.35        15.16573
442.80        14.96026
443.24         14.9401
443.69        14.89333
444.13        14.78474
444.58        14.56413
445.02        14.30547
445.47        14.31314
445.91        14.52779
446.36        14.59073
446.80        14.47011
447.24        14.36623
447.69        14.31768
448.13         14.2863
448.58        14.28666
449.02        14.32537
449.47        14.36987
449.91        14.36722
450.36        14.31166
450.80        14.21479
451.25         14.1293
451.69        14.12526
452.13        14.21584
452.58        14.36327
453.02        14.51421
453.47          14.583
453.91        14.55114
454.36        14.45026
454.80        14.30919
455.24        14.16827
455.69        14.05719
456.13        13.98482
456.58        13.97353
457.02        13.97493
457.46        14.02007
457.91        14.22576
458.35        14.51715
458.79        14.65433
459.24        14.61736
459.68        14.49782
460.13        14.36987
460.57         14.2802
461.01         14.2679
461.46         14.3118
461.90        14.37958
462.34        14.40968
462.79        14.38369
463.23        14.31317
463.68        14.24768
464.12        14.26815
464.56        14.38984
465.01          14.592
465.45        14.76432
465.89        14.79993
466.34        14.69517
466.78        14.40589
467.22        14.08187
467.67        14.10538
468.11        14.44445
468.55        14.65577
468.99        14.66083
469.44        14.63101
469.88        14.60605
470.32        14.65255
470.77        14.74405
471.21        14.73302
471.65        14.61318
472.10        14.51917
472.54        14.48007
472.98        14.49721
473.42        14.57855
473.87        14.72801
474.31        14.89462
474.75        14.99116
475.20        15.00282
475.64        14.94366
476.08         14.8672
476.52        14.85743
476.97        14.93419
477.41         15.0773
477.85        15.22729
478.29        15.31754
478.74        15.33208
479.18        15.21512
479.62        15.03942
480.06        15.16947
480.50        15.30839
480.95        15.47852
481.39        15.51566
481.83        15.48538
482.27        15.38036
482.72        15.10263
483.16        14.77902
483.60        14.78569
484.04        15.14058
484.48        15.43223
484.93        15.79191
485.37        16.21007
485.81        16.64503
486.25        16.95339
486.69         22.5907
487.14        18.05639
487.58         11.6508
488.02        14.24642
488.46        16.10184
488.90        16.25727
489.34        16.33926
489.79        16.24307
490.23        17.06353
490.67        17.54767
491.11        17.47945
491.55        17.35569
491.99        17.15234
492.43         16.9424
492.88        16.80597
493.32        16.81328
493.76        16.85962
494.20        17.06285
494.64         17.3674
495.08        17.74088
495.52         18.1291
495.96         18.4688
496.41        18.68958
496.85        18.78467
497.29        18.78196
497.73        18.54786
498.17        18.31962
498.61        18.53833
499.05        19.19539
499.49        19.37244
499.93        19.52044
500.37         19.6736
500.82        19.76938
501.26        19.99176
501.70        20.23926
502.14        20.34784
502.58        20.30987
503.02        20.30931
503.46        20.35975
503.90        20.35369
504.34         20.3089
504.78        20.30348
505.22        20.34762
505.66        20.42716
506.10        20.52052
506.54        20.58833
506.98        20.62146
507.42        20.63228
507.86        20.65253
508.30        20.73173
508.74        20.87465
509.18        21.05731
509.62        21.23977
510.06        21.35741
510.50         21.3957
510.94        21.38394
511.38        21.34237
511.82        21.30235
512.26        21.27911
512.70        21.25751
513.14          21.265
513.58        21.34664
514.02        21.49237
514.46         21.6818
514.90        21.84409
515.34        21.83135
515.78        21.59508
516.22        21.33701
516.66         21.1542
517.10         20.7569
517.54        20.17686
517.98        20.99908
518.42        20.84704
518.86        21.20997
519.30        21.35741
519.74        21.52626
520.18        21.66979
520.62        21.68278
521.06        21.58426
521.50        21.38099
521.93         21.1492
522.37        21.02778
522.81          21.047
523.25        21.16633
523.69         21.3257
524.13        21.42869
524.57        21.44571
525.01         21.4066
525.45         21.3287
525.89         21.2404
526.32         21.1538
526.76        21.05854
527.20        20.96197
527.64        20.88665
528.08        20.83826
528.52        20.79355
528.96        20.73351
529.40        20.68177
529.83        20.64618
530.27        20.41486
530.71        20.39464
531.15        20.26439
531.59        20.15218
532.03        20.04352
532.46        19.97856
532.90        20.02206
533.34         20.1667
533.78        20.38385
534.22        20.59049
534.66        20.66483
535.09        20.57895
535.53        20.37853
535.97         20.1272
536.41        19.93339
536.85        19.83415
537.28        19.80438
537.72        19.81839
538.16         19.8334
538.60        19.83585
539.04        19.82733
539.47        19.82573
539.91        19.90425
540.35        20.04516
540.79        20.15413
541.22        20.21736
541.66        20.29639
542.10        20.38727
542.54        20.44038
542.97        20.48481
543.41        20.60154
543.85        20.79548
544.29        21.05453
544.72        21.30744
545.16         21.4513
545.60        21.46889
546.04        21.38847
546.47        21.31921
546.91         21.4445
547.35        21.78369
547.79        22.27676
548.22        22.77282
548.66        23.01599
549.10        22.96965
549.53         22.7545
549.97        22.51384
550.41        22.40914
550.84        22.49824
551.28        22.74276
551.72        23.08904
552.15        23.43564
552.59        23.73164
553.03        23.99854
553.46        24.22094
553.90        24.39589
554.34        24.53242
554.77        24.60164
555.21        24.61556
555.65        24.67384
556.08        24.80243
556.52        24.67875
556.96        24.88824
557.39        24.97478
557.83        25.11519
558.27        25.28147
558.70        25.46446
559.14        25.63198
559.57        25.76177
560.01        25.87178
560.45        25.94277
560.88        25.94571
561.32        25.90567
561.75        25.82273
562.19        25.75404
562.63        25.75116
563.06         25.8214
563.50        25.95194
563.93        26.11611
564.37         26.2822
564.80        26.42599
565.24        26.56584
565.68        26.68167
566.11         26.7462
566.55        26.78036
566.98        26.78559
567.42        26.81741
567.85          26.955
568.29        27.22908
568.72        27.53643
569.16        27.85653
569.60        28.26627
570.03        28.62626
570.47        28.62351
570.90        28.41939
571.34        28.14678
571.77        28.54588
572.21        28.76386
572.64        29.01917
573.08        28.56331
573.51        27.60067
573.95        28.82708
574.38        30.79338
574.82        30.18232
575.25        29.80722
575.69        28.73611
576.12        28.28001
576.56        28.22026
576.99        28.89938
577.42        30.11553
577.86        30.15647
578.29        30.01462
578.73        31.41511
579.16        28.86496
579.60        26.37928
580.03        27.54592
580.47        29.36394
580.90        29.78501
581.33        29.26081
581.77        28.86534
582.20         31.5228
582.64        31.01035
583.07         26.5033
583.51        25.87331
583.94        25.27719
584.37        26.17789
584.81        27.23026
585.24        28.65611
585.68        29.54581
586.11        28.76621
586.54        26.75105
586.98        25.79469
587.41        26.07931
587.85        27.18939
588.28        28.08055
588.71         26.9271
589.15        25.80429
589.58         26.3232
590.01        26.42274
590.45        26.93702
590.88        26.91062
591.31        26.61469
591.75        26.56214
592.18        26.63033
592.61        27.15855
593.05        27.57028
593.48        28.97415
593.91        29.07724
594.35        26.92981
594.78        26.44201
595.21        26.40766
595.65        27.68772
596.08        28.82507
596.51        27.78728
596.94        27.03075
597.38         27.4582
597.81         28.8898
598.24        29.47545
598.68        29.10279
599.11        29.26836
599.54        30.86536
599.97        31.83427
600.41        30.00669
600.84        30.36218
601.27        31.31343
601.70        31.12824
602.14        31.32514
602.57        31.23223
603.00          31.974
603.43        33.22458
603.87        34.47665
604.30        34.67322
604.73        33.97943
605.16        33.91093
605.60        34.58238
606.03        35.67125
606.46         36.7714
606.89         36.9298
607.32        36.14169
607.76         36.5822
608.19        38.00797
608.62        37.88913
609.05        37.58945
609.48        38.11562
609.92        38.20527
610.35        38.47403
610.78        39.85462
611.21        40.68694
611.64        39.03252
612.07         39.7824
612.50        40.43246
612.94        41.02757
613.37         40.9259
613.80        41.41935
614.23        41.94888
614.66        42.09924
615.09        42.34278
615.52        42.59987
615.96        42.92508
616.39        43.24203
616.82        42.81332
617.25        42.87209
617.68        43.54926
618.11         44.1454
618.54        44.56627
618.97        44.50694
619.40        44.22861
619.84        44.23809
620.27        45.14054
620.70         45.7355
621.13         46.0433
621.56         45.6386
621.99        44.83344
622.42        45.43964
622.85          47.067
623.28        47.09169
623.71        46.54869
624.14        46.36273
624.57         46.3175
625.00        46.06721
625.43        46.15147
625.86        45.69856
626.29        45.58594
626.72        45.97206
627.15        45.53428
627.58        45.49773
628.01         45.3887
628.44        45.31977
628.87        45.10506
629.30        44.97087
629.73        44.83084
630.16        44.60961
630.59        44.16991
631.02        43.70083
631.45        43.21456
631.88         42.7551
632.31        42.33907
632.74        41.96759
633.17        41.62563
633.60        41.23185
634.03        40.86047
634.46        40.45841
634.89        40.05716
635.32        39.66482
635.75        39.28497
636.18        38.90976
636.61        38.53386
637.04        38.15058
637.47        37.75268
637.89        37.34548
638.32        36.92156
638.75        36.49117
639.18        36.06839
639.61        35.68019
640.04        35.30865
640.47        34.97139
640.90         34.6648
641.33        34.38713
641.76        34.14904
642.18        34.01827
642.61        33.99555
643.04        33.97813
643.47        33.90422
643.90        34.11655
644.33        33.89676
644.76         33.8366
645.18        33.75137
645.61        33.70166
646.04        33.69707
646.47        33.72049
646.90        33.81641
647.33        34.02839
647.75        34.37256
648.18        34.86204
648.61        35.37187
649.04        35.71972
649.47         35.8847
649.89         35.7907
650.32        35.69068
650.75        36.22403
651.18        37.32256
651.61        38.22066
652.03        38.72051
652.46        39.19262
652.89        39.84038
653.32        40.03336
653.74        39.98109
654.17        41.65579
654.60        42.50441
655.03        41.66292
655.46        42.64631
655.88        46.11988
656.31        50.15005
656.74        115.6599
657.16        75.58068
657.59        26.43759
658.02        19.93501
658.45        34.86992
658.87        44.62483
659.30        47.22541
659.73        47.12442
660.15        45.99564
660.58        48.01587
661.01        49.64435
661.44        48.51655
661.86        48.24804
662.29         48.3706
662.72         49.2616
663.14         50.7024
663.57        50.89228
664.00        50.03694
664.42        49.96139
664.85        50.74765
665.27        51.25819
665.70         51.3373
666.13        51.37579
666.55        51.36258
666.98         51.1861
667.41        50.97818
667.83        50.99076
668.26        51.27354
668.69        51.73167
669.11        52.17765
669.54        52.55007
669.96        52.30143
670.39        51.95136
670.82        51.55601
671.24        51.40501
671.67        51.62413
672.09        52.21003
672.52        52.88532
672.94         53.4957
673.37        53.08479
673.80        52.96562
674.22        52.96788
674.65        52.97202
675.07        52.99338
675.50        53.01793
675.92        53.05767
676.35         53.1642
676.77        53.33723
677.20         53.5058
677.62        53.66594
678.05         53.8154
678.47        53.93694
678.90        54.03666
679.32         54.1184
679.75        54.09235
680.17        54.17884
680.60        54.21304
681.02        54.23487
681.45        54.18679
681.87        54.08134
682.30        53.92788
682.72        53.81507
683.15        53.91598
683.57        54.26203
684.00        54.66572
684.42        55.21371
684.85        55.49772
685.27        55.52362
685.70        55.36637
686.12        55.12056
686.54        54.98392
686.97        55.00055
687.39        55.09239
687.82        55.21371
688.24        55.40974
688.66        55.60439
689.09        55.64285
689.51        55.56501
689.94        55.57137
690.36         55.6865
690.78        55.78743
691.21        55.86349
691.63        55.95552
692.06        56.06398
692.48        56.18893
692.90        56.32457
693.33        56.44783
693.75        56.55079
694.17        56.63707
694.60        56.72598
695.02         56.8099
695.44        56.85579
695.87        57.07743
696.29        57.41483
696.71        57.14465
697.14        56.49737
697.56        56.89203
697.98        58.08986
698.41        58.06943
698.83        57.41588
699.25        57.06351
699.68        57.24536
700.10        57.28517
700.52        57.19412
700.94        57.31082
701.37        57.60326
701.79        57.93851
702.21        58.25003
702.64        58.57049
703.06         58.8074
703.48        58.81075
703.90        58.57808
704.33        58.16251
704.75        57.70258
705.17        57.49753
705.59        57.62713
706.01        57.91714
706.44        58.23931
706.86        58.88438
707.28        58.99923
707.70        59.22829
708.12        59.34293
708.55        59.36309
708.97        59.28496
709.39        59.10798
709.81        58.90655
710.23        58.80439
710.66        58.83818
711.08        59.00975
711.50        59.21122
711.92        59.27508
712.34        59.16648
712.76        58.92577
713.19        58.68369
713.61        58.67547
714.03         58.9342
714.45        59.38168
714.87        59.83429
715.29        60.00337
715.71        59.82961
716.13        59.41219
716.56        58.92617
716.98         58.6787
717.40        58.74707
717.82        59.03767
718.24        59.42796
718.66        59.70475
719.08         59.7979
719.50        59.78409
719.92        59.70617
720.34        59.62682
720.76        59.59091
721.19        59.51496
721.61        59.59126
722.03        59.67707
722.45        59.81886
722.87        60.03584
723.29        60.27811
723.71        60.43733
724.13        60.48651
724.55        60.45117
724.97        60.37846
725.39        60.35238
725.81        60.39502
726.23        60.47857
726.65         60.5713
727.07        60.62215
727.49        60.62094
727.91        60.59565
728.33        60.56131
728.75        60.53996
729.17         60.5403
729.59          60.547
730.01        60.58222
730.43        60.67532
730.85        60.83075
731.27        61.06102
731.69        61.28345
732.10        61.37912
732.52        61.32985
732.94        61.13778
733.36        60.91078
733.78        61.09869
734.20        61.19439
734.62        61.76623
735.04        62.41508
735.46        62.63339
735.88        61.84309
736.30        62.08075
736.72        63.09027
737.13        63.47682
737.55        63.03782
737.97        62.98942
738.39        63.33189
738.81        62.68765
739.23        61.47324
739.65        62.09872
740.06        64.13475
740.48        64.38541
740.90        62.92176
741.32        62.30507
741.74        62.75949
742.16        63.02689
742.57        63.13803
742.99        63.77348
743.41        64.73047
743.83        65.29642
744.25        65.34795
744.67        65.06525
745.08        64.66055
745.50        64.48514
745.92        64.64721
746.34        65.02399
746.75        65.46931
747.17        65.72383
747.59        65.73766
748.01        65.63047
748.42        65.53875
748.84        65.60167
749.26        65.90734
749.68        66.47557
750.09        67.15704
750.51        67.67567
750.93        67.90787
751.35        67.70763
751.76        67.21748
752.18        67.00494
752.60        67.07121
753.01        66.91249
753.43        66.59632
753.85        66.63645
754.27        67.07836
754.68        67.71026
755.10        68.37017
755.52        68.93556
755.93        69.31827
756.35        69.45187
756.77        69.44893
757.18        69.52827
757.60        69.75012
758.02        70.01276
758.43        70.45288
758.85        70.17695
759.26        68.35078
759.68        68.07651
760.10        68.92149
760.51        69.46497
760.93          69.328
761.34        68.81746
761.76        68.17905
762.18        67.68398
762.59        67.56989
763.01        67.99059
763.42        68.83263
763.84        69.41928
764.26        69.63947
764.67        69.51327
765.09        69.20901
765.50        69.39112
765.92         69.8201
766.33        69.13542
766.75        67.66367
767.16        66.94718
767.58         67.2725
768.00        68.38242
768.41        70.00207
768.83        71.32043
769.24        71.74913
769.66        71.08614
770.07        69.79218
770.49        68.32821
770.90        67.18596
771.32        68.09417
771.73        70.37832
772.15        70.06931
772.56        67.53197
772.97        66.86176
773.39         68.0729
773.80        68.52041
774.22        68.04228
774.63        68.15978
775.05        68.78674
775.46        69.17834
775.88        69.21762
776.29        69.08186
776.70        68.84759
777.12        68.70736
777.53        68.71722
777.95        68.74946
778.36        68.75336
778.77        68.63577
779.19        68.42013
779.60        68.19843
780.02        68.01307
780.43        67.96172
780.84        68.16389
781.26         68.2291
781.67         68.2704
782.09        69.42754
782.50        71.12674
782.91        70.59794
783.33        68.40271
783.74        67.75748
784.15        68.79506
784.57        69.40328
784.98        69.31774
785.39        69.21463
785.81        69.05869
786.22        68.54166
786.63        67.97663
787.04        67.96112
787.46        68.54332
787.87        69.52425
788.28        70.58905
788.70        71.14993
789.11        71.05314
789.52        70.61652
789.93        70.03492
790.35        69.31599
790.76        68.69284
791.17        68.69031
791.58        69.20084
792.00        69.49609
792.41        69.43238
792.82        69.36292
793.23        69.40513
793.65        69.21641
794.06        69.02958
794.47        69.95795
794.88        71.35499
795.29        71.19163
795.71        68.99075
796.12        67.35303
796.53        66.56993
796.94        66.11108
797.35        66.15459
797.76         67.3161
798.18         69.0453
798.59          70.035
799.00        69.94036
799.41         69.0927
799.82          67.931
800.23        67.31425
800.64        67.47849
801.06         67.4331
801.47        68.24269
801.88        68.58171
802.29        68.68513
802.70        68.66017
803.11        68.57439
803.52        68.48546
803.93        68.42468
804.34        68.34431
804.75        68.29102
805.17        68.40259
805.58        68.72007
805.99        69.05669
806.40        69.28654
806.81        69.56223
807.22        69.65644
807.63        68.80543
808.04        67.40154
808.45        66.76774
808.86        67.04733
809.27        67.62464
809.68        68.22401
810.09        68.57983
810.50        68.54375
810.91        68.21275
811.32        67.76289
811.73        67.47878
812.14        67.43892
812.55        67.51823
812.96        67.68344
813.37        67.87532
813.78        68.04936
814.19         68.2737
814.60        68.39448
815.01        68.16194
815.42        67.55953
815.83        66.62503
816.24        65.71796
816.65        65.47221
817.05        66.06616
817.46        67.29029
817.87        68.63277
818.28        69.17086
818.69        68.66333
819.10        67.34405
819.51        65.82395
819.92        65.14151
820.33        65.56538
820.74        66.77968
821.14        68.20868
821.55        68.81821
821.96        68.38184
822.37        67.26218
822.78        65.96084
823.19        65.21456
823.60          65.227
824.00        65.79536
824.41        66.61174
824.82        67.24586
825.23        67.49158
825.64         67.5033
826.04        67.36846
826.45        67.19942
826.86        67.04421
827.27        66.82127
827.68        66.57381
828.08         66.4268
828.49        66.36401
828.90        66.44493
829.31        66.56124
829.72        66.49121
830.12        66.22023
830.53        65.78931
830.94        65.45213
831.35        65.55884
831.75        66.19804
832.16        67.20805
832.57        68.32036
832.97        68.97902
833.38        68.95347
833.79        68.41167
834.20        67.68302
834.60        67.26765
835.01        67.31709
835.42        67.67077
835.82        68.11085
836.23         68.1948
836.64        67.84653
837.04        67.24763
837.45        66.60976
837.86        66.26122
838.26        66.29391
838.67        66.54948
839.08        66.94074
839.48        67.30912
839.89        67.54559
840.29        67.72157
840.70        67.75111
841.11        67.48532
841.51         66.9443
841.92        66.15388
842.33        65.38092
842.73         65.0814
843.14        65.32133
843.54        66.00552
843.95        66.79711
844.35        67.17863
844.76        66.99318
845.17        66.41328
845.57        65.69113
845.98        65.21697
846.38        65.09958
846.79        65.19324
847.19         65.3989
847.60        65.47943
848.00        65.39344
848.41        65.20755
848.81        65.00857
849.22        64.83041
849.62        64.73964
850.03        64.72267
850.43        64.80035
850.84        64.96481
851.24        65.23479
851.65        65.45576
852.05        65.76538
852.46        66.22714
852.86        66.82525
853.27        67.54465
853.67        67.93002
854.07        67.39957
854.48         65.9885
854.88        63.92761
855.29        61.94518
855.69        61.09088
856.10        61.57253
856.50        63.24824
856.90        65.53495
857.31        67.04315
857.71        67.30104
858.12        66.61479
858.52        65.53478
858.92        64.78515
859.33         64.5489
859.73        64.61012
860.13        64.90016
860.54        65.29218
860.94        65.76943
861.34        66.38412
861.75         67.0122
862.15        67.52245
862.55        67.83909
862.96        67.95935
863.36        67.99445
863.76        68.13239
864.17        68.41281
864.57        68.81842
864.97        69.24627
865.38        69.53621
865.78        69.69382
866.18        69.68386
866.58        69.60262
866.99        69.60747
867.39        69.77464
867.79        70.09097
868.19        70.28224
868.60        69.84392
869.00        68.70001
869.40         67.0668
869.80          65.632
870.21        65.43389
870.61        66.77036
871.01        69.31358
871.41        72.27119
871.81        74.27719
872.22        74.91864
872.62        74.51736
873.02        73.65257
873.42        73.54981
873.82        74.20695
874.22        74.66968
874.63        74.79239
875.03        74.46566
875.43        73.62682
875.83         73.9361
876.23         72.0451
876.63        70.80532
877.03        69.70052
877.44        68.81842
877.84        109.4422
878.24        75.91059
878.64        78.18616
879.04        81.60569
879.44        76.34718
879.84         73.6972
880.24        80.13074
880.64        82.12937
881.04        81.10982
881.44        80.01163
881.84         79.1104
882.24        78.21767
882.65        77.69941
883.05        77.47108
883.45         77.5108
883.85        78.23233
884.25        79.37779
884.65        80.06925
885.05        80.07259
885.45        79.63929
885.85        79.07274
886.25        78.81892
886.65         78.9865
887.05        79.40921
887.45        79.96759
887.85        80.45882
888.25        80.77641
888.65        80.99293
889.04        81.07949
889.44        81.02945
889.84        80.83971
890.24        80.48297
890.64        80.07355
891.04         79.7989
891.44        79.69067
891.84         79.7362
892.24        79.77109
892.64        79.48675
893.04        78.89026
893.44        78.17647
893.83        77.61929
894.23        77.59608
894.63        78.15678
895.03        79.10515
895.43        80.34556
895.83        81.67348
896.23         82.9036
896.63        84.06673
897.02        84.77286
897.42        84.44254
897.82         83.0753
898.22        80.90916
898.62        78.73122
899.01         77.6949
899.41        78.03246
899.81        79.37994
900.21        81.07874
900.61        82.03765
901.00        81.94427
901.40        81.12814
901.80        80.03639
902.20        79.36328
902.59        79.30434
902.99        79.63533
903.39        80.06363
903.79        80.11104
904.18        79.67011
904.58         79.0052
904.98        78.42142
905.38        78.36568
905.77         78.9013
906.17        79.78341
906.57        80.79165
906.96        81.67403
907.36        82.24512
907.76        82.58701
908.15        82.61271
908.55         82.0691
908.95        81.02898
909.34        79.58432
909.74        78.11099
910.14        77.01821
910.53        76.45857
910.93        76.38512
911.33        76.78437
911.72        77.60294
912.12        78.60201
912.52        79.64989
912.91        80.54668
913.31        81.03559
913.70        81.13904
914.10        80.90971
914.49        80.24621
914.89        79.12205
915.29         77.7512
915.68        76.23753
916.08        75.21728
916.47        75.21107
916.87        76.17284
917.26        77.95884
917.66        79.77501
918.05        80.31366
918.45        79.27673
918.84        77.11764
919.24        74.79038
919.64        73.71308
920.03         74.2552
920.42        76.00515
920.82        78.30048
921.21        80.04719
921.61        80.66972
922.00         80.5331
922.40        79.87272
922.79         79.0925
923.19        78.45518
923.58        77.55276
923.98        76.29558
924.37        75.62062
924.77        76.01218
925.16        72.50949
925.55        74.36134
925.95        74.63886
926.34        76.08208
926.74        78.09095
927.13         80.1252
927.52        80.91199
927.92        80.25113
928.31        78.61879
928.70        76.54193
929.10        74.95212
929.49        74.10108
929.89        73.72634
930.28        73.95504
930.67        75.00764
931.07         76.6716
931.46        78.95472
931.85        80.95986
932.24        81.33539
932.64        79.87646
933.03        76.76442
933.42        72.95779
933.82        70.57684
934.21        70.25271
934.60        71.42638
934.99        72.93388
935.39        73.70799
935.78        73.59768
936.17        72.07533
936.56         69.0052
936.96        71.18159
937.35        69.84952
937.74        71.67336
938.13        73.25381
938.53        74.53401
938.92        75.60152
939.31        76.71716
939.70        77.71093
940.09        77.81274
940.49        76.90823
940.88        75.36636
941.27        73.86888
941.66        73.23446
942.05          73.535
942.44        74.46194
942.84         75.7564
943.23        76.99544
943.62        77.86649
944.01        78.48262
944.40        78.60012
944.79        77.82681
945.18        76.08715
945.57        73.33107
945.97        70.18757
946.36         68.2561
946.75        68.25867
947.14        69.62006
947.53        71.34943
947.92        72.40643
948.31        72.67817
948.70        72.49854
949.09        72.04337
949.48        71.69949
949.87        71.65168
950.26        71.66765
950.65         71.7897
951.04        72.14146
951.43        72.69703
951.82        73.47865
952.21        74.11891
952.60        73.99575
952.99        73.01091
953.38         71.3409
953.77        69.57678
954.16        68.58954
954.55        68.55426
954.94        69.29992
955.33        70.18311
955.72         70.1006
956.11         68.8131
956.50        66.63175
956.89        64.47775
957.28        64.03468
957.66        65.81339
958.05        69.01183
958.44        72.50466
958.83        74.64258
959.22        74.97649
959.61        73.94448
960.00        72.13102
960.39        70.49171
960.78        69.40421
961.16        68.67359
961.55         68.0751
961.94        67.24716
962.33        66.17599
962.72        65.11057
963.11        64.44234
963.49          64.645
963.88        65.73514
964.27        67.56479
964.66        69.57124
965.04        70.54793
965.43        69.98852
965.82        68.37238
966.21        66.44448
966.60        65.15046
966.98         64.7076
967.37        64.79037
967.76        65.27546
968.15         65.8856
968.53        66.43109
968.92        66.93681
969.31        67.29102
969.69        67.28771
970.08        66.92364
970.47        66.25203
970.86        65.36918
971.24        64.49863
971.63        63.77836
972.02        63.16896
972.40        62.82393
972.79        62.99258
973.17        63.77293
973.56        65.04709
973.95        66.45998
974.33        67.27166
974.72        67.15893
975.11        66.29622
975.49        65.21248
975.88        64.71192
976.26        64.90601
976.65        65.63199
977.04        66.34951
977.42        65.81615
977.81        63.75478
978.19        60.76897
978.58        58.23935
978.96        57.42165
979.35        58.48217
979.74        61.18385
980.12        64.98027
980.51        67.63263
980.89        68.41795
981.28        67.72018
981.66        66.45512
982.05        65.80985
982.43        65.99433
982.82        66.56191
983.20        67.28513
983.59        67.85453
983.97        68.23009
984.35        68.55927
984.74        68.63722
985.12        68.29845
985.51        67.36555
985.89        65.71196
986.28        63.82579
986.66        62.25121
987.04         61.3588
987.43        61.14346
987.81        60.88253
988.20        59.45167
988.58        56.34895
988.96        50.86177
989.35        43.69764
989.73        39.80095
990.12        43.18683
990.50        51.95458
990.88        60.20152
991.27        63.10819
991.65         61.2878
992.03        56.19661
992.42        50.45612
992.80        48.64736
993.18         51.9229
993.56        57.58136
993.95        63.43315
994.33        67.76865
994.71        70.10149
995.10        71.43364
995.48        71.60935
995.86        70.03878
996.24        66.69754
996.63        61.28586
997.01        55.04703
997.39        52.04659
997.77        54.11419
998.15        60.47633
998.54        67.67918
998.92        70.85084
999.30        68.56346
999.68        62.09849
1000.06        53.36369
1000.45         47.0854
1000.83        45.18817
1001.21        45.97684
1001.59        48.33296
1001.97        51.20392
1002.35        54.22719
1002.73        58.37135
1003.12        62.16128
1003.50        60.98178
1003.88         53.6515
1004.26        42.93969
1004.64        33.41874
1005.02        28.64162
1005.40        28.63308
1005.78        32.94387
1006.16        42.71672
1006.54          54.412
1006.92         60.9664
1007.30        62.45848
1007.69         60.9797
1008.07        58.30764
1008.45        53.85998
1008.83        44.34365
1009.21        20.65159
1009.59       -40.31756
1009.97       -167.0926
1010.35       -285.0767
1010.73       -203.1444
1011.11       -95.75268
1011.49       -33.09955
1011.86        6.551794
1012.24        27.32698
1012.62        35.24079
1013.00        35.26836
1013.38        28.55552
1013.76        17.28693
1014.14        11.33713
1014.52        19.55884
1014.90        45.27505
1015.28        79.45793
1015.66        91.74655
1016.04        66.24925
1016.41        13.61095
1016.79        -33.5563
1017.17       -44.97253
1017.55       -30.65693
1017.93       -10.17445
1018.31        7.582923
1018.69        18.86018
1019.06        24.98509
1019.44        28.10637
1019.82        29.16979
1020.20        28.80896
1020.58        26.18083
1020.95        16.70039
1021.33       -32.62813
1021.71        1077.229
1022.09        209.2958
1022.46        171.3091
1022.84        165.4211
1023.22        175.1912
1023.60        213.2935
1023.97          614.89
1024.35        -69.3334
1024.73        6.292446
