SpectraSmart Spectrum 2.9.0.0
--------- Device Information -----------
Spectrum Name :  反射率_0
Saving Time :  2024/04/26 00:14:31
Spectro-Module Model Name : SE2030-DUVN
Spectro-Module Serial Number : OS361AC55029948
Wavelength Start : 200
Wavelength End : 1025
Wavelength Unit : Wavelength(nm)
Spectrum Unit : Reflectance(%)
-----------Spectrum Setting ------------
Integration Time : 20ms
Average : 10
Boxcar : 0
Background removal :  enabled
linearity correction :  enabled
SC :  disabled
Intensity correction :  disabled
DWT denoise :  enabled
savitzky-golay :  disabled
FFT :  disabled
Running average :  disabled
Kalman :  disabled
High pass :  disabled
---------------BEGIN--------------------
Wavelength(nm)             Reflectance(%)
200.29               0
200.75        84.18516
201.21        82.93017
201.67        80.87222
202.13        79.08251
202.58        77.82415
203.04        77.37247
203.50        77.30261
203.96        77.00894
204.42        76.47369
204.88        75.81124
205.34        75.81081
205.80        77.63538
206.26        82.25536
206.72        92.35719
207.18        111.8808
207.64        129.0943
208.10        118.1579
208.55         94.7712
209.01        79.77505
209.47        74.45436
209.93        74.65413
210.39        78.39105
210.85        82.91257
211.31         82.6431
211.77        76.13108
212.23        65.62175
212.69        55.80569
213.14        53.86752
213.60        60.76442
214.06        74.20016
214.52        89.04301
214.98        97.43447
215.44        97.42467
215.90        91.74256
216.36        83.68341
216.81        77.80309
217.27        75.67524
217.73        75.74488
218.19        76.32883
218.65        75.27118
219.11         71.7381
219.57        65.48472
220.02         57.6869
220.48        54.36152
220.94        58.17176
221.40        66.99871
221.86        74.23787
222.32        73.41653
222.77        65.79832
223.23         55.7256
223.69        47.30219
224.15        44.72802
224.61        47.49136
225.06        53.37002
225.52        59.65604
225.98         63.0323
226.44        62.79917
226.90        60.42767
227.36        57.23836
227.81         54.9232
228.27        54.26682
228.73        54.41546
229.19        55.28574
229.65        56.78736
230.10        58.56456
230.56        60.60284
231.02        62.32931
231.48        63.05957
231.93         62.8146
232.39        61.88041
232.85        60.80781
233.31        60.54356
233.77        61.26831
234.22        62.71049
234.68        64.28442
235.14        64.81541
235.60        63.96859
236.05         62.2178
236.51        60.17889
236.97        58.60583
237.43        57.71757
237.88        57.38746
238.34        57.57993
238.80        58.44769
239.26        59.91394
239.71        62.07845
240.17        64.34944
240.63        66.20023
241.08        67.51698
241.54        68.25469
242.00        68.63818
242.46        69.11404
242.91        70.18066
243.37        72.03596
243.83        78.59723
244.28        107.8727
244.74        155.4012
245.20        147.5237
245.66        130.9518
246.11        124.7609
246.57        124.3112
247.03        127.7632
247.48        131.3943
247.94        96.96117
248.40         84.8404
248.85        84.91975
249.31        86.63275
249.77        88.44002
250.22         90.7101
250.68        94.24661
251.14        98.94652
251.59        101.4298
252.05        98.73423
252.51        92.50595
252.96        86.04736
253.42          82.938
253.88        82.65332
254.33        83.97276
254.79        86.51819
255.25        89.10278
255.70        91.08379
256.16        92.91249
256.62        93.85237
257.07         93.1272
257.53        91.28006
257.99         88.2066
258.44        84.72965
258.90        82.83738
259.35        81.74696
259.81        81.15089
260.27        79.68336
260.72        75.98623
261.18        70.89283
261.63        64.96137
262.09        59.76812
262.55        56.41947
263.00        54.76804
263.46        54.30091
263.91        54.01665
264.37        53.20372
264.83        51.65962
265.28         49.5658
265.74        47.49928
266.19        46.04436
266.65        45.45039
267.11        45.35881
267.56        45.27911
268.02        44.66456
268.47        43.38311
268.93        41.65148
269.38         39.7794
269.84         38.5204
270.30         38.0793
270.75        38.24539
271.21        38.60886
271.66        38.55259
272.12        37.91855
272.57        36.89523
273.03        35.82515
273.48        35.12704
273.94        34.92366
274.39        35.01112
274.85        35.13677
275.31        34.91877
275.76        34.27132
276.22        33.36954
276.67        32.41361
277.13        31.79495
277.58        31.52274
278.04        31.49692
278.49         31.4616
278.95        31.14078
279.40         30.4548
279.86        29.58031
280.31        28.65339
280.77        27.99779
281.22        27.63276
281.68        27.48014
282.13         27.4087
282.59        27.28134
283.04        27.04715
283.50        26.79756
283.95        26.52485
284.41        26.24296
284.86        25.95304
285.32        25.64584
285.77        25.39686
286.22        25.39145
286.68        25.61651
287.13        25.98708
287.59        26.28982
288.04        26.18986
288.50        25.67234
288.95        24.84144
289.41        23.96313
289.86        23.32599
290.32        23.05678
290.77        23.04285
291.22        23.19477
291.68        23.33519
292.13        23.41476
292.59        23.49226
293.04        23.61907
293.50        23.87708
293.95        24.26358
294.40        24.70748
294.86        25.13873
295.31        25.46775
295.77        25.68018
296.22        25.82031
296.68         25.9136
297.13         25.9702
297.58        26.03211
298.04        26.11703
298.49        26.30074
298.95         26.7357
299.40        27.41968
299.85        28.29004
300.31        29.19826
300.76         29.9183
301.21         30.3696
301.67        30.63593
302.12        30.75191
302.58        30.83364
303.03        30.90529
303.48        30.95089
303.94         31.0449
304.39        31.26547
304.84        31.62391
305.30        32.09256
305.75        32.53701
306.20        32.75784
306.66        32.73763
307.11        32.52434
307.57        32.26319
308.02        32.09571
308.47         32.0918
308.93        32.20668
309.38        32.38427
309.83        32.56891
310.29        32.72514
310.74        32.85843
311.19         32.9702
311.65        33.05904
312.10        33.12008
312.55        33.15112
313.00        33.11792
313.46        32.97887
313.91        32.73225
314.36        32.41964
314.82        32.14321
315.27        32.03918
315.72        32.14127
316.18        32.40371
316.63        32.73793
317.08        32.97126
317.53         33.0479
317.99        33.00227
318.44        32.90925
318.89        32.89467
319.35        32.98135
319.80        33.13348
320.25        33.26093
320.70        33.22345
321.16        32.99479
321.61         32.6264
322.06        32.22638
322.51        31.95535
322.97        31.84184
323.42        31.85354
323.87        31.89422
324.32        31.80219
324.78        31.53956
325.23         31.1723
325.68        30.79492
326.13        30.56341
326.59        30.51457
327.04         30.6169
327.49        30.80003
327.94        30.95273
328.39        31.03648
328.85        31.07162
329.30        31.11371
329.75        31.20935
330.20        31.37173
330.66        31.55437
331.11        31.75083
331.56        31.91084
332.01        32.01777
332.46        32.07577
332.92        32.08648
333.37        32.09609
333.82        32.10363
334.27        32.11732
334.72        32.10589
335.17        32.01882
335.63        31.85355
336.08        31.63523
336.53         31.4585
336.98        31.47922
337.43        31.72059
337.88         32.1387
338.34        32.56173
338.79        32.75933
339.24        32.64918
339.69        32.29523
340.14        31.87807
340.59        31.71601
341.05        31.88099
341.50        32.27084
341.95        32.70322
342.40        32.91407
342.85        32.84546
343.30        32.59177
343.75        32.25821
344.20        32.02677
344.66        31.95895
345.11        31.96253
345.56        32.00796
346.01        32.04958
346.46        32.06179
346.91        32.08337
347.36        32.04441
347.81         31.8256
348.26        31.43526
348.72        30.93872
349.17        30.47399
349.62        30.34808
350.07        30.61607
350.52        31.16602
350.97        31.80521
351.42        32.23743
351.87        32.37719
352.32        32.30708
352.77        32.09503
353.22        31.85638
353.67        31.64088
354.13        31.41864
354.58        31.19731
355.03        31.03182
355.48        30.92841
355.93        30.89145
356.38        30.86984
356.83         30.7681
357.28        30.56422
357.73        30.28044
358.18        29.97284
358.63        29.73264
359.08        29.58421
359.53        29.50671
359.98        29.44424
360.43        29.30957
360.88        29.08592
361.33        28.79851
361.78        28.52179
362.23        28.37515
362.68         28.3746
363.13        28.46937
363.58        28.55907
364.03        28.49013
364.48        28.23005
364.93        27.83542
365.38        27.38496
365.83        27.00462
366.28        26.73841
366.73         26.5501
367.18        26.42404
367.63        26.33408
368.08        26.26095
368.53        26.21377
368.98        26.16506
369.43        26.06467
369.88        25.90501
370.33        25.69973
370.78        25.47308
371.23        25.27437
371.68        25.12133
372.13        24.99539
372.58        24.91064
373.03        24.88791
373.48        24.91961
373.93        24.99961
374.38        25.06318
374.83        25.00788
375.28         24.8189
375.72        24.51722
376.17        24.20471
376.62        24.01136
377.07        23.96926
377.52        24.02763
377.97        24.12669
378.42        24.16829
378.87        24.12059
379.32        24.02356
379.77        23.87918
380.22         23.6855
380.67        23.45393
381.11         23.1817
381.56        22.91995
382.01        22.76594
382.46        22.73592
382.91        22.80113
383.36        22.88369
383.81         22.8532
384.26        22.68257
384.71        22.42084
385.15        22.12363
385.60        21.88794
386.05        21.72891
386.50        21.60918
386.95        21.52663
387.40        21.48017
387.85        21.46463
388.29        21.48337
388.74        21.50302
389.19        21.43668
389.64        21.27535
390.09        21.02341
390.54        20.77831
390.98        20.70645
391.43        20.84476
391.88        21.13326
392.33        21.40742
392.78        21.42407
393.23        21.16341
393.67        20.71194
394.12        20.28285
394.57         20.1027
395.02        20.21417
395.47         20.5363
395.91        20.94081
396.36        21.16746
396.81        21.13818
397.26        20.91856
397.71        20.61971
398.15        20.38818
398.60        20.29359
399.05        20.29071
399.50        20.30058
399.95        20.15747
400.39        19.93333
400.84        19.60931
401.29        19.31761
401.74        19.25039
402.18        19.46194
402.63        19.86012
403.08         20.3071
403.53        20.58584
403.97        20.63508
404.42        20.51315
404.87        20.29406
405.32        20.11009
405.76        20.00777
406.21        19.95479
406.66        19.92831
407.11        19.90273
407.55        19.87323
408.00        19.84956
408.45        19.83059
408.90        19.79717
409.34        19.74549
409.79        19.67706
410.24        19.61393
410.68        19.58785
411.13        19.60823
411.58        19.66956
412.03         19.7399
412.47        19.76745
412.92        19.72798
413.37        19.63955
413.81        19.55413
414.26        19.56984
414.71        19.69099
415.15        19.88654
415.60        20.06835
416.05         20.1142
416.49        19.99782
416.94        19.77283
417.39        19.50586
417.83        19.31146
418.28        19.23668
418.73         19.2367
419.17        19.30199
419.62         19.4132
420.07        19.55178
420.51        19.72673
420.96        19.87364
421.41        19.87933
421.85        19.72389
422.30        19.46794
422.74        19.20034
423.19        19.09297
423.64        19.15907
424.08        19.36003
424.53        19.60173
424.98         19.7514
425.42        19.77024
425.87         19.6852
426.31        19.54197
426.76        19.46686
427.21        19.45764
427.65        19.35072
428.10        19.22336
428.54        19.32167
428.99        19.65485
429.44         20.1163
429.88         20.5073
430.33        20.58304
430.77         20.3036
431.22         19.7485
431.66        19.15807
432.11         18.9785
432.56        19.24627
433.00          19.727
433.45        20.19122
433.89        20.49811
434.34        20.51415
434.78        20.10837
435.23        19.59043
435.67         19.5938
436.12        20.05462
436.57         20.2763
437.01        20.16959
437.46        20.09262
437.90        20.07953
438.35        20.02736
438.79        19.94164
439.24         19.8869
439.68        19.88452
440.13        19.83803
440.57        19.78828
441.02        20.06932
441.46        20.52311
441.91        20.42025
442.35         19.8713
442.80        19.64007
443.24        19.70308
443.69        19.76519
444.13        19.74369
444.58        19.50506
445.02        19.13471
445.47        19.06172
445.91        19.24129
446.36        19.25289
446.80        19.07623
447.24        18.96459
447.69        18.94701
448.13          18.942
448.58         18.9577
449.02         19.0091
449.47        19.07583
449.91        19.12366
450.36        19.14508
450.80        19.13839
451.25        19.12396
451.69        19.12311
452.13        19.14383
452.58        19.16857
453.02        19.18422
453.47        19.17036
453.91        19.12556
454.36         19.0651
454.80        18.99129
455.24        18.90401
455.69        18.82088
456.13        18.73692
456.58        18.69689
457.02        18.73709
457.46        18.86656
457.91        19.06039
458.35         19.2634
458.79        19.38504
459.24         19.4129
459.68        19.35579
460.13        19.27357
460.57        19.21603
461.01        19.21893
461.46        19.26252
461.90        19.32231
462.34        19.35419
462.79        19.34159
463.23        19.29054
463.68        19.24782
464.12         19.2945
464.56        19.44128
465.01        19.67402
465.45        19.86305
465.89        19.89211
466.34         19.7611
466.78        19.40211
467.22        18.99816
467.67        19.03526
468.11        19.46367
468.55        19.69308
468.99        19.64253
469.44        19.58124
469.88        19.56778
470.32        19.67722
470.77        19.85003
471.21        19.84447
471.65        19.64437
472.10        19.44658
472.54        19.31064
472.98          19.265
473.42        19.33052
473.87        19.50369
474.31        19.71793
474.75        19.86304
475.20        19.91573
475.64        19.89485
476.08        19.84812
476.52        19.85035
476.97        19.92103
477.41        20.03713
477.85        20.15488
478.29        20.24497
478.74        20.29938
479.18        20.23202
479.62         20.0876
480.06        20.27304
480.50        20.37955
480.95        20.46195
481.39        20.37462
481.83        20.31339
482.27        20.28489
482.72        20.11375
483.16        19.87996
483.60         19.9803
484.04        20.43893
484.48        20.62343
484.93         20.7543
485.37        21.23046
485.81        22.06853
486.25        21.73848
486.69        29.32752
487.14        23.41614
487.58        15.15737
488.02        18.29805
488.46        21.05289
488.90        20.98294
489.34        20.90176
489.79         20.6167
490.23        21.68974
490.67        22.35432
491.11        22.30151
491.55         22.1838
491.99        21.96086
492.43        21.75274
492.88        21.64792
493.32        21.69569
493.76        21.73909
494.20        21.92821
494.64        22.19477
495.08         22.5027
495.52        22.82252
495.96        23.13708
496.41        23.37247
496.85         23.5014
497.29        23.53906
497.73        23.28035
498.17        23.00656
498.61        23.28291
499.05         24.0857
499.49        24.24145
499.93        24.31972
500.37        24.37058
500.82        24.35387
501.26        24.55129
501.70        24.84895
502.14        25.03121
502.58        25.05491
503.02        25.08959
503.46        25.13624
503.90        25.07806
504.34         24.9586
504.78          24.909
505.22         24.9509
505.66         25.0528
506.10        25.17575
506.54        25.25272
506.98        25.26667
507.42        25.24223
507.86        25.22336
508.30        25.27607
508.74         25.4101
509.18         25.5947
509.62        25.78517
510.06        25.91075
510.50        25.95313
510.94        25.94302
511.38        25.90033
511.82        25.85427
512.26        25.82203
512.70        25.79309
513.14        25.79448
513.58        25.87131
514.02        26.01538
514.46         26.2032
514.90        26.37873
515.34        26.41961
515.78        26.27835
516.22        26.13784
516.66        26.05565
517.10        25.70598
517.54           25.11
517.98        25.77521
518.42        25.51471
518.86        25.79666
519.30        25.95135
519.74        26.18092
520.18        26.41303
520.62        26.50203
521.06         26.4495
521.50        26.27521
521.93        26.05845
522.37        25.94129
522.81        25.95792
523.25        26.06442
523.69        26.20486
524.13        26.29249
524.57        26.30003
525.01        26.25545
525.45         26.1769
525.89        26.09196
526.32        26.01117
526.76        25.92623
527.20        25.83566
527.64        25.74866
528.08        25.67209
528.52        25.58387
528.96        25.48106
529.40        25.42632
529.83        25.43388
530.27        25.22845
530.71        25.29386
531.15        25.20574
531.59        25.11327
532.03        25.00739
532.46        24.93698
532.90        24.97842
533.34        25.12882
533.78        25.35545
534.22        25.57374
534.66         25.6615
535.09        25.58796
535.53        25.39967
535.97        25.15848
536.41        24.96978
536.85        24.87175
537.28        24.84521
537.72        24.85966
538.16        24.86599
538.60        24.85279
539.04        24.81839
539.47        24.80297
539.91        24.92825
540.35        25.17067
540.79        25.39732
541.22        25.55651
541.66        25.67269
542.10        25.73009
542.54        25.68844
542.97        25.60711
543.41        25.62319
543.85        25.75901
544.29        25.98894
544.72        26.23701
545.16        26.39411
545.60         26.4352
546.04        26.39023
546.47        26.35766
546.91        26.50271
547.35        26.84004
547.79        27.31589
548.22        27.78328
548.66        27.99368
549.10        27.91744
549.53        27.67999
549.97        27.43337
550.41         27.3425
550.84        27.46457
551.28        27.76062
551.72        28.16155
552.15        28.53542
552.59        28.82556
553.03          29.064
553.46        29.24559
553.90        29.39009
554.34        29.51175
554.77        29.56783
555.21        29.57245
555.65         29.6455
556.08        29.81219
556.52        29.68114
556.96        29.93531
557.39        29.99288
557.83        30.06465
558.27        30.13202
558.70        30.21249
559.14        30.31561
559.57        30.42983
560.01        30.56358
560.45        30.68286
560.88        30.73449
561.32        30.73509
561.75        30.68539
562.19        30.64482
562.63        30.66287
563.06          30.746
563.50        30.88203
563.93        31.04006
564.37        31.18764
564.80        31.30107
565.24        31.40273
565.68        31.48418
566.11        31.53549
566.55        31.58247
566.98        31.62011
567.42        31.68758
567.85        31.83749
568.29        32.09644
568.72        32.35856
569.16        32.63997
569.60        33.03532
570.03         33.3792
570.47        33.39685
570.90        33.27217
571.34        32.69183
571.77        33.29362
572.21        33.48551
572.64        33.59282
573.08        33.19818
573.51        31.98956
573.95        33.33495
574.38         35.5061
574.82        34.58899
575.25        34.59086
575.69        33.39807
576.12        32.79237
576.56        32.62151
576.99        33.48239
577.42        35.11031
577.86        34.71709
578.29        34.77938
578.73        36.44546
579.16        33.55539
579.60        30.62272
580.03        31.94724
580.47        34.03058
580.90         34.5434
581.33         34.1003
581.77        33.31436
582.20        36.73788
582.64        36.40738
583.07        30.92459
583.51        30.18671
583.94        29.51067
584.37        30.69768
584.81        32.12178
585.24        33.79958
585.68        34.68453
586.11        33.83144
586.54         31.4548
586.98        30.56833
587.41        30.80562
587.85        32.23832
588.28        33.12839
588.71        31.54737
589.15        30.50695
589.58        31.04696
590.01        31.36633
590.45        31.88312
590.88         32.1067
591.31        31.73126
591.75         31.5558
592.18        31.58189
592.61        32.19753
593.05        32.89535
593.48        34.20427
593.91        34.58115
594.35        31.85312
594.78        31.35728
595.21        31.39141
595.65         32.8454
596.08        34.03379
596.51        32.69436
596.94        32.03365
597.38        32.56494
597.81        34.12812
598.24         34.9522
598.68        34.71138
599.11         34.4463
599.54        36.08228
599.97        36.88752
600.41        35.10217
600.84        35.51539
601.27        36.42697
601.70         36.2482
602.14        36.47191
602.57        36.35867
603.00        37.14192
603.43        38.53792
603.87        39.83023
604.30         39.9856
604.73        39.25012
605.16         38.5807
605.60        39.64297
606.03        40.77094
606.46        42.00253
606.89         41.9467
607.32        41.23208
607.76        41.69466
608.19        43.29737
608.62        43.05357
609.05        42.56722
609.48        43.28502
609.92         43.7803
610.35        43.69584
610.78        45.66512
611.21        46.33442
611.64        44.68491
612.07        45.44786
612.50        46.01006
612.94        46.60068
613.37        46.43018
613.80        47.06629
614.23        47.54976
614.66        47.83996
615.09        48.30427
615.52        48.54967
615.96        48.70468
616.39        48.98792
616.82        48.56855
617.25        48.95606
617.68        49.76503
618.11        50.38512
618.54        50.64036
618.97        50.48842
619.40        50.18835
619.84         50.4505
620.27        51.20652
620.70        51.76295
621.13        52.02644
621.56        51.68055
621.99        51.26759
622.42        52.01848
622.85        53.62823
623.28        53.34554
623.71         53.0943
624.14        52.84206
624.57        52.77834
625.00        52.45515
625.43        52.56868
625.86        52.05727
626.29        52.11324
626.72        52.31433
627.15        52.05424
627.58         51.9357
628.01         51.6501
628.44        51.89727
628.87        51.75395
629.30         51.4912
629.73        51.63429
630.16        51.54305
630.59        50.93431
631.02        50.33152
631.45        49.69214
631.88        49.12941
632.31        48.67031
632.74        48.30433
633.17        47.99703
633.60        47.62643
634.03        47.16106
634.46         46.7296
634.89        46.37984
635.32        45.69584
635.75        45.46537
636.18        45.04814
636.61        44.66658
637.04        44.29029
637.47        43.91346
637.89        43.53469
638.32        43.12976
638.75        42.71104
639.18        42.28867
639.61        41.87633
640.04        41.48375
640.47        41.11882
640.90        40.78777
641.33        40.48609
641.76        40.22135
642.18        40.06442
642.61        40.01557
643.04        39.95993
643.47        39.83593
643.90        40.06153
644.33        39.79781
644.76         39.7374
645.18        39.65527
645.61        39.60491
646.04        39.59363
646.47        39.60485
646.90        39.69817
647.33        39.93549
647.75        40.33392
648.18        40.90403
648.61        41.48622
649.04        41.82861
649.47        41.89643
649.89        41.66613
650.32        41.44481
650.75        41.84245
651.18         42.8287
651.61        43.88095
652.03        44.71591
652.46        45.11124
652.89        45.34345
653.32        45.51538
653.74        45.84832
654.17        47.25782
654.60        48.10032
655.03        46.71561
655.46        48.23824
655.88        51.46191
656.31        55.47831
656.74        128.2359
657.16        83.97123
657.59        29.49528
658.02         22.3424
658.45        38.96091
658.87        50.56847
659.30        53.67717
659.73        53.06594
660.15        51.49146
660.58        53.72882
661.01        55.59752
661.44        54.45268
661.86        54.28132
662.29        54.50721
662.72        55.52203
663.14        57.08015
663.57         57.2035
664.00        56.17099
664.42        56.09645
664.85        57.08609
665.27        57.87756
665.70        58.21654
666.13        58.38847
666.55        58.35421
666.98        58.04206
667.41        57.67595
667.83        57.65601
668.26        58.06978
668.69         58.7706
669.11        59.49479
669.54        60.09826
669.96        59.92693
670.39         59.5871
670.82         59.1593
671.24        59.01873
671.67        59.30833
672.09        59.97462
672.52        60.71008
672.94        61.38481
673.37        60.91474
673.80        60.80628
674.22        60.85622
674.65        60.90394
675.07         60.9614
675.50        61.02094
675.92        61.11146
676.35        61.31018
676.77        61.61762
677.20         61.9512
677.62        62.27227
678.05         62.4942
678.47        62.63118
678.90        62.68056
679.32        62.70916
679.75        62.69096
680.17         62.8937
680.60        63.09125
681.02        63.29508
681.45        63.37463
681.87        63.31986
682.30        63.19422
682.72        63.08133
683.15        63.07926
683.57        63.25491
684.00        63.57587
684.42        64.12065
684.85         64.4188
685.27        64.45792
685.70        64.45316
686.12        64.43286
686.54        64.28469
686.97        64.12408
687.39        64.33685
687.82        64.80755
688.24        65.13465
688.66         65.0778
689.09        65.03639
689.51        65.04691
689.94        65.16014
690.36        65.38472
690.78        65.59276
691.21        65.74847
691.63        65.91563
692.06        66.07426
692.48        66.13975
692.90        66.15849
693.33        66.25764
693.75        66.45449
694.17        66.70405
694.60        66.95721
695.02        67.13367
695.44        67.17975
695.87        67.26656
696.29        67.43178
696.71        67.27117
697.14        66.97861
697.56        67.56177
697.98        68.71166
698.41        68.81792
698.83        68.01789
699.25        67.57845
699.68        67.64516
700.10        67.63465
700.52        67.57834
700.94        67.82984
701.37          68.304
701.79        68.74334
702.21        69.05048
702.64        69.29931
703.06        69.45033
703.48        69.43269
703.90        69.26292
704.33        68.96732
704.75        68.63638
705.17        68.49543
705.59        68.60523
706.01         68.8422
706.44        69.03142
706.86        69.67648
707.28         69.7776
707.70         70.0736
708.12        70.26291
708.55        70.32401
708.97          70.241
709.39         70.0302
709.81        69.79928
710.23         69.7227
710.66        69.84811
711.08        70.16085
711.50        70.50828
711.92        70.65821
712.34        70.56049
712.76         70.2733
713.19        69.96799
713.61         69.9522
714.03        70.27455
714.45        70.83511
714.87        71.40894
715.29        71.64272
715.71         71.4609
716.13        70.98291
716.56        70.42037
716.98         70.1428
717.40        70.24425
717.82        70.61504
718.24         71.0947
718.66        71.41508
719.08         71.4912
719.50        71.39709
719.92        71.22012
720.34        71.15317
720.76        71.18711
721.19        71.20232
721.61        71.36098
722.03        71.46195
722.45        71.54729
722.87        71.63073
723.29        71.73735
723.71        71.89232
724.13        72.09286
724.55        72.32146
724.97        72.52927
725.39        72.64504
725.81        72.65457
726.23        72.58155
726.65        72.48245
727.07        72.44543
727.49        72.49916
727.91        72.62835
728.33        72.79187
728.75        72.91761
729.17        72.97915
729.59        72.98862
730.01        72.99711
730.43        73.07457
730.85        73.24091
731.27        73.50309
731.69        73.76047
732.10        73.83823
732.52        73.71561
732.94        73.44473
733.36        73.19519
733.78        73.23976
734.20        73.64536
734.62        74.11156
735.04        75.32798
735.46        75.30378
735.88        74.36176
736.30        74.62815
736.72        75.97494
737.13        76.48627
737.55        75.87685
737.97        75.67229
738.39        75.92311
738.81        75.09578
739.23        73.71189
739.65        74.60043
740.06        77.20526
740.48        77.63856
740.90        75.95979
741.32        75.25788
741.74        75.81602
742.16        76.14085
742.57        76.27732
742.99        77.04002
743.41        78.17719
743.83        78.82152
744.25        78.82558
744.67        78.41323
745.08        77.86206
745.50         77.6249
745.92        77.83756
746.34        78.34132
746.75        78.93253
747.17        79.25853
747.59        79.25635
748.01        79.08686
748.42         78.9364
748.84        79.05029
749.26        79.55949
749.68        80.33016
750.09        81.18394
750.51         82.1358
750.93        82.85766
751.35        82.39738
751.76        81.11465
752.18        80.64853
752.60          81.063
753.01        81.24414
753.43        81.13391
753.85        81.34284
754.27           81.87
754.68        82.47626
755.10        83.03161
755.52        83.48375
755.93        83.76209
756.35        83.79871
756.77         83.7383
757.18        83.78973
757.60        84.03289
758.02         84.6077
758.43        85.00458
758.85        84.93997
759.26        82.87292
759.68        82.12188
760.10        84.34981
760.51         85.1194
760.93        84.67867
761.34        82.86792
761.76        82.82899
762.18        82.20583
762.59         82.0358
763.01        82.48269
763.42        83.50066
763.84        84.31269
764.26        84.76759
764.67        85.04133
765.09        85.07348
765.50        84.99478
765.92        84.69496
766.33        83.27316
766.75        81.33043
767.16        80.73698
767.58        81.66823
768.00        83.27779
768.41        85.13909
768.83        86.52723
769.24        86.89613
769.66        86.25435
770.07        85.04958
770.49        83.38914
770.90        81.83125
771.32        82.66857
771.73        85.21062
772.15        84.82335
772.56        81.97373
772.97        81.55646
773.39        83.45058
773.80        84.11947
774.22        83.31348
774.63        83.12866
775.05        83.56342
775.46        83.76554
775.88         83.6573
776.29         83.4761
776.70        83.29643
777.12        83.27529
777.53        83.45496
777.95        83.71794
778.36        83.93373
778.77        83.87506
779.19        83.55343
779.60        83.05627
780.02        82.57235
780.43        82.52976
780.84        83.06754
781.26        83.45009
781.67        83.69749
782.09        85.16006
782.50        87.10843
782.91        86.18697
783.33        83.20135
783.74        82.22195
784.15        83.44843
784.57        84.33556
784.98        84.50703
785.39         84.3877
785.81        84.30701
786.22        83.66638
786.63        82.97977
787.04        82.92318
787.46        83.57158
787.87        84.71221
788.28        85.95507
788.70        86.58144
789.11        86.41241
789.52        85.82049
789.93        85.08663
790.35        84.32713
790.76        83.79313
791.17        84.00404
791.58        84.78599
792.00        85.17599
792.41        85.02021
792.82        85.00697
793.23        85.23656
793.65        84.88394
794.06        84.36413
794.47        85.58882
794.88        87.61928
795.29        87.86066
795.71        84.69989
796.12        82.41013
796.53        81.16544
796.94        80.60605
797.35        80.89914
797.76         82.2898
798.18        84.13224
798.59         85.3078
799.00        85.40026
799.41        84.57558
799.82        83.32196
800.23         82.5617
800.64        82.52525
801.06        82.83472
801.47        83.36797
801.88         83.8301
802.29        84.08166
802.70        84.24035
803.11        84.30545
803.52        84.24068
803.93        84.08976
804.34        83.84129
804.75        83.56745
805.17        83.57877
805.58        83.98966
805.99        84.15952
806.40        84.08022
806.81        85.12833
807.22        86.59258
807.63        85.34945
808.04        82.17625
808.45        80.95709
808.86        81.98839
809.27        83.26254
809.68        84.22607
810.09        84.78501
810.50        84.68847
810.91        83.99882
811.32          83.085
811.73        82.54054
812.14        82.52766
812.55        82.84413
812.96        83.34953
813.37        83.77055
813.78        83.98552
814.19        84.14888
814.60        84.14208
815.01        83.75249
815.42        82.99519
815.83        81.89328
816.24        80.85539
816.65        80.61288
817.05        81.36601
817.46        82.86383
817.87        84.53881
818.28        85.35767
818.69         85.0397
819.10        83.83746
819.51          82.353
819.92        81.66734
820.33        82.07387
820.74         83.1123
821.14        84.27515
821.55         84.9715
821.96         84.8426
822.37        83.48669
822.78        81.53149
823.19        80.53384
823.60        80.74502
824.00        81.53073
824.41        82.44689
824.82        83.08608
825.23         83.2039
825.64         82.9647
826.04        82.56083
826.45        82.26862
826.86        82.16999
827.27        82.13306
827.68        82.14381
828.08        82.23378
828.49        82.32372
828.90        82.50401
829.31        82.65063
829.72        82.51381
830.12        82.09126
830.53        81.44804
830.94        80.88439
831.35          80.814
831.75        81.34717
832.16         82.2932
832.57        83.41403
832.97        84.19955
833.38        84.38916
833.79        84.13081
834.20        83.63551
834.60         83.2262
835.01        83.03531
835.42        82.96249
835.82        82.92168
836.23        82.69347
836.64        82.28161
837.04        81.79903
837.45        81.39864
837.86        81.31138
838.26        81.58762
838.67        82.09372
839.08        82.69132
839.48        83.12484
839.89        83.26434
840.29        83.20294
840.70        82.97031
841.11         82.5994
841.51         82.1422
841.92        81.56346
842.33        81.03454
842.73        80.85095
843.14        81.02523
843.54        81.52758
843.95        82.05091
844.35        82.14021
844.76        81.68518
845.17        80.85779
845.57        79.95802
845.98        79.45347
846.38        79.46088
846.79        79.81043
847.19        80.35686
847.60        80.74212
848.00        80.87341
848.41        80.82397
848.81        80.68999
849.22          80.535
849.62         80.4534
850.03        80.42884
850.43        80.49519
850.84        80.62984
851.24        80.87132
851.65        81.02727
852.05        81.33256
852.46        81.97223
852.86        82.93338
853.27        84.17529
853.67        84.98679
854.07        84.41717
854.48         82.4747
854.88         79.4988
855.29        76.60037
855.69        75.39869
856.10        76.22227
856.50        78.84686
856.90        82.28664
857.31        84.25628
857.71        84.01141
858.12        82.17083
858.52        79.84296
858.92        78.49848
859.33        78.45167
859.73        79.28151
860.13        80.64081
860.54         81.8048
860.94        82.51162
861.34        82.95871
861.75        83.18642
862.15        83.33548
862.55         83.4321
862.96        83.36517
863.36        83.24426
863.76        83.25286
864.17        83.43488
864.57        83.81764
864.97        84.28696
865.38        84.63624
865.78        84.85537
866.18        84.90641
866.58        84.90716
866.99        85.04797
867.39        85.43155
867.79        86.04034
868.19         86.5348
868.60        86.28742
869.00        85.20784
869.40        83.50365
869.80        81.99629
870.21        81.94965
870.61        83.69778
871.01         86.8306
871.41        90.32305
871.81        92.41759
872.22        92.60939
872.62        91.41391
873.02        89.72169
873.42        89.03693
873.82        89.63162
874.22        90.89033
874.63         92.3806
875.03        93.20857
875.43        92.90695
875.83        92.30296
876.23        91.10123
876.63        90.92726
877.03        91.97124
877.44        94.48106
877.84        100.4459
878.24        100.9017
878.64        100.0041
879.04        97.82166
879.44        94.55103
879.84        92.72346
880.24        94.80624
880.64        96.48074
881.04        98.01308
881.44        98.88153
881.84        98.28903
882.24        96.67464
882.65        95.10556
883.05        94.76871
883.45         95.8791
883.85        98.21347
884.25        100.9403
884.65         102.452
885.05        102.2433
885.45        100.8793
885.85        99.23276
886.25        98.49998
886.65        98.93517
887.05        100.1119
887.45        101.5921
887.85        102.5965
888.25        102.8217
888.65        102.5852
889.04        101.9857
889.44        101.2022
889.84        100.3567
890.24         99.3702
890.64        98.54852
891.04        98.38356
891.44        98.92092
891.84        100.0587
892.24        101.3053
892.64        101.7352
893.04        101.1736
893.44        99.99861
893.83        98.75872
894.23        98.26891
894.63        98.68815
895.03        99.70287
895.43        101.1566
895.83        102.7342
896.23        104.1886
896.63        105.5955
897.02         106.551
897.42        106.4115
897.82        105.1667
898.22        103.0483
898.62        100.8268
899.01        99.65334
899.41        99.77941
899.81        100.8169
900.21        102.2034
900.61        102.9901
901.00        102.8963
901.40        102.2679
901.80        101.3532
902.20        100.5316
902.59        99.95874
902.99        99.46453
903.39        99.13503
903.79        99.13834
904.18        99.47643
904.58        100.1735
904.98        100.9547
905.38        101.3712
905.77        101.3147
906.17        100.8896
906.57        100.3946
906.96         100.349
907.36        100.7837
907.76        101.5473
908.15        102.2914
908.55        102.3295
908.95        101.5746
909.34        100.2293
909.74        98.80676
910.14        97.92586
910.53        97.79846
910.93        98.29328
911.33        99.16412
911.72        99.96903
912.12        100.4426
912.52        100.6389
912.91        100.7579
913.31        101.0903
913.70        101.7393
914.10        102.6382
914.49        103.3958
914.89        103.0028
915.29         101.304
915.68        98.72285
916.08         96.4782
916.47        95.66104
916.87        96.35084
917.26        98.19156
917.66         100.229
918.05        100.9055
918.45        99.83814
918.84        97.58556
919.24        95.19296
919.64        94.19219
920.03        94.98312
920.42        97.08511
920.82        99.73555
921.21        101.7164
921.61        102.4046
922.00        102.2148
922.40        101.4722
922.79        100.5988
923.19        99.80381
923.58        98.94596
923.98        98.05602
924.37        97.29175
924.77        96.89411
925.16         96.2049
925.55        96.64484
925.95        97.40642
926.34        98.83694
926.74        100.5739
927.13        102.1839
927.52        102.7266
927.92        102.1264
928.31        100.6939
928.70        98.84181
929.10        97.29095
929.49        96.25143
929.89        95.55554
930.28        95.41976
930.67        96.19562
931.07        97.71717
931.46        99.92399
931.85         101.966
932.24        102.5702
932.64        101.5195
933.03        99.05541
933.42        95.87254
933.82        93.60291
934.21        92.77254
934.60        92.97727
934.99        93.65836
935.39        94.15116
935.78        94.34061
936.17        94.37884
936.56        94.05174
936.96        94.14746
937.35        92.95107
937.74         92.0374
938.13        91.48919
938.53        92.03929
938.92        93.68788
939.31        96.40513
939.70        99.40276
940.09        100.5129
940.49        99.01834
940.88        95.83335
941.27        92.47837
941.66        90.73338
942.05        90.83813
942.44        92.20489
942.84        94.24346
943.23        96.00687
943.62        96.97184
944.01        97.38645
944.40        97.35258
944.79        97.01234
945.18        96.43539
945.57         95.4931
945.97        94.14906
946.36         92.6566
946.75        91.38331
947.14        90.50559
947.53        90.18254
947.92        90.46908
948.31        91.31046
948.70        92.73579
949.09        94.46206
949.48        95.72906
949.87        96.13647
950.26        95.73012
950.65        94.98653
951.04        94.73918
951.43         95.1559
951.82        95.97712
952.21        96.63459
952.60        96.22093
952.99        94.60251
953.38        92.20697
953.77        89.72632
954.16        88.10908
954.55        87.59406
954.94        87.95788
955.33        88.73399
955.72        89.13258
956.11        88.93295
956.50        88.34309
956.89        87.85221
957.28        88.32428
957.66        90.01228
958.05        92.33556
958.44        94.60686
958.83         95.8603
959.22        95.84846
959.61        94.80998
960.00        93.22812
960.39        91.88464
960.78        91.05693
961.16        90.63713
961.55        90.25304
961.94        89.30332
962.33        87.74602
962.72        85.91205
963.11        84.40776
963.49        83.99208
963.88        84.75224
964.27        86.50294
964.66        88.61234
965.04        89.72205
965.43         89.2266
965.82        87.62235
966.21        85.77792
966.60        84.82467
966.98        84.98969
967.37        85.88895
967.76        87.07317
968.15        87.67558
968.53         87.4048
968.92        86.55239
969.31        85.54349
969.69        84.88974
970.08        84.72472
970.47        84.90139
970.86        85.15025
971.24        85.03535
971.63        84.42608
972.02        83.46329
972.40        82.59829
972.79        82.57031
973.17        83.69395
973.56        85.63998
973.95        87.81322
974.33         89.0245
974.72        88.81551
975.11         87.5449
975.49        85.95979
975.88        85.15331
976.26        85.29587
976.65        86.12866
977.04        87.04147
977.42        86.61093
977.81        84.45298
978.19        81.28979
978.58        78.67308
978.96         78.0435
979.35         79.5781
979.74        82.92671
980.12        87.49116
980.51         90.7075
980.89        91.71658
981.28        91.04771
981.66        89.46336
982.05        88.00228
982.43        86.96512
982.82        86.08729
983.20        85.64043
983.59        86.14954
983.97        87.75227
984.35        90.44366
984.74         93.5044
985.12        95.50156
985.51        95.40549
985.89        93.47485
986.28        90.29594
986.66        86.92443
987.04        84.23277
987.43        82.25079
987.81        80.92703
988.20        80.08745
988.58         79.5638
988.96        79.32799
989.35        79.85804
989.73        82.29797
990.12         86.1899
990.50        90.42258
990.88        92.92493
991.27        92.71423
991.65        90.30302
992.03        86.01029
992.42         81.3062
992.80          78.892
993.18        79.63225
993.56         82.0844
993.95        84.89731
994.33        86.92316
994.71        87.81825
995.10        88.30502
995.48         88.1368
995.86        86.71687
996.24        83.99146
996.63        79.65703
997.01        75.07186
997.39        74.11638
997.77         78.2682
998.15        86.46545
998.54        94.80708
998.92        98.06249
999.30        94.80006
999.68        86.34942
1000.06        75.06087
1000.45        66.82856
1000.83        64.22454
1001.21        65.38562
1001.59        68.71397
1001.97        72.55617
1002.35        76.49229
1002.73        81.73952
1003.12        87.03784
1003.50        88.16111
1003.88        83.30426
1004.26         74.3764
1004.64        65.83714
1005.02        61.57536
1005.40        61.83854
1005.78        66.50864
1006.16        75.85489
1006.54        84.36082
1006.92        86.25488
1007.30        83.85933
1007.69         80.9278
1008.07        80.03535
1008.45        81.47426
1008.83        85.55539
1009.21        94.11563
1009.59        105.6203
1009.97        99.85927
1010.35        44.51031
1010.73        6.626399
1011.11        18.37284
1011.49        38.44238
1011.86        56.47126
1012.24        67.51067
1012.62        71.97268
1013.00        72.20634
1013.38        69.45359
1013.76        66.12206
1014.14        70.15149
1014.52        88.10955
1014.90        121.6811
1015.28        162.1267
1015.66        184.3262
1016.04        172.7602
1016.41        131.9026
1016.79        83.74412
1017.17        53.76131
1017.55        43.84559
1017.93        42.96768
1018.31        46.30256
1018.69        52.07255
1019.06        60.33411
1019.44        73.22651
1019.82         93.0521
1020.20        116.6558
1020.58        137.9792
1020.95        149.0279
1021.33        137.4573
1021.71         183.309
1022.09        127.2246
1022.46        121.2357
1022.84         119.063
1023.22        121.6568
1023.60         133.236
1023.97        246.0185
1024.35        56.19788
1024.73        79.19953
