SpectraSmart Spectrum 2.9.0.0
--------- Device Information -----------
Spectrum Name :  反射率_0
Saving Time :  2024/04/26 00:49:46
Spectro-Module Model Name : SE2030-DUVN
Spectro-Module Serial Number : OS361AC55029948
Wavelength Start : 200
Wavelength End : 1025
Wavelength Unit : Wavelength(nm)
Spectrum Unit : Reflectance(%)
-----------Spectrum Setting ------------
Integration Time : 20ms
Average : 10
Boxcar : 0
Background removal :  enabled
linearity correction :  enabled
SC :  disabled
Intensity correction :  disabled
DWT denoise :  enabled
savitzky-golay :  disabled
FFT :  disabled
Running average :  disabled
Kalman :  disabled
High pass :  disabled
---------------BEGIN--------------------
Wavelength(nm)             Reflectance(%)
200.29               0
200.75        81.26623
201.21         75.7944
201.67        70.23232
202.13        67.30072
202.58        67.15128
203.04        69.43517
203.50        72.39478
203.96        73.01734
204.42        70.94514
204.88        67.52021
205.34        64.52981
205.80        63.77271
206.26         65.9579
206.72        72.66998
207.18        87.33913
207.64        103.1678
208.10        99.71292
208.55        85.07356
209.01        75.04207
209.47        72.13835
209.93        73.70012
210.39        78.21661
210.85         83.1218
211.31        83.02448
211.77        76.53349
212.23        65.91367
212.69        55.96201
213.14        53.97888
213.60        60.93812
214.06        74.52473
214.52        89.48525
214.98        97.74964
215.44        97.33064
215.90        91.04208
216.36        82.25568
216.81        75.65656
217.27        72.87566
217.73        72.34227
218.19        72.33575
218.65        70.58871
219.11        66.17229
219.57        58.79039
220.02        49.62673
220.48        45.15369
220.94        48.54105
221.40        57.73661
221.86        65.88319
222.32        66.17947
222.77        59.63305
223.23        50.36841
223.69        42.57613
224.15        40.53241
224.61        43.76226
225.06        50.17165
225.52        56.68933
225.98        59.48644
226.44        57.89811
226.90        53.56005
227.36        48.71636
227.81        46.36612
228.27         47.3796
228.73        50.45104
229.19         54.1198
229.65        56.27498
230.10        56.48593
230.56         55.7109
231.02        54.78643
231.48        54.62574
231.93        55.29954
232.39         56.4138
232.85        57.58601
233.31         58.3494
233.77        58.53401
234.22        58.29438
234.68        57.70798
235.14        56.90633
235.60        56.02716
236.05        55.10176
236.51        54.16936
236.97        53.16802
237.43        52.08018
237.88        51.02504
238.34        50.14911
238.80        50.07775
239.26        51.11708
239.71         53.1814
240.17        55.83472
240.63        58.76076
241.08         61.7074
241.54        64.48019
242.00        66.80875
242.46        68.56651
242.91        70.19083
243.37        71.86856
243.83        76.34486
244.28        97.74023
244.74        135.0345
245.20        130.2304
245.66        118.2091
246.11        114.5684
246.57         116.467
247.03        125.7721
247.48        146.9941
247.94        110.0427
248.40        80.88165
248.85        74.80925
249.31        74.28223
249.77        75.80751
250.22         78.9019
250.68        84.27173
251.14        91.75497
251.59        96.09833
252.05        92.56326
252.51        83.75833
252.96        74.41951
253.42        69.17153
253.88        67.53866
254.33        67.84863
254.79        70.13453
255.25        73.81289
255.70        77.83443
256.16        82.03961
256.62        84.71533
257.07        84.09908
257.53         81.0592
257.99        76.28206
258.44        71.45964
258.90        69.45929
259.35        69.40211
259.81        70.20341
260.27        70.16891
260.72        67.67752
261.18        63.45634
261.63        58.24636
262.09        53.44057
262.55        49.96386
263.00        47.82305
263.46        46.66323
263.91        45.82749
264.37        44.90073
264.83        43.67975
265.28        42.21279
265.74        40.83973
266.19        39.79381
266.65        39.24218
267.11        38.98653
267.56        38.72445
268.02        38.09796
268.47        37.01569
268.93        35.61383
269.38        34.11501
269.84        33.11755
270.30        32.76617
270.75        32.90413
271.21        33.18958
271.66        33.10692
272.12        32.52797
272.57         31.6163
273.03        30.66931
273.48        30.05161
273.94           29.87
274.39        29.94245
274.85        30.06977
275.31        29.95078
275.76        29.50913
276.22        28.89054
276.67         28.2059
277.13        27.70635
277.58        27.39698
278.04        27.22558
278.49        27.06753
278.95        26.81782
279.40        26.41849
279.86        25.96844
280.31        25.47953
280.77        25.07971
281.22        24.75421
281.68        24.49432
282.13        24.26731
282.59        24.06829
283.04        23.87848
283.50        23.73394
283.95        23.58797
284.41        23.39034
284.86        23.12918
285.32        22.83076
285.77        22.57352
286.22        22.53836
286.68          22.719
287.13        23.02405
287.59         23.2867
288.04        23.25085
288.50        22.89895
288.95        22.30892
289.41        21.65185
289.86        21.07941
290.32        20.69998
290.77        20.45476
291.22        20.35725
291.68        20.38671
292.13        20.53028
292.59        20.79685
293.04        21.16028
293.50        21.57564
293.95        22.00709
294.40        22.42466
294.86        22.80932
295.31        23.15144
295.77        23.45286
296.22        23.71952
296.68        23.94062
297.13         24.0742
297.58         24.1437
298.04        24.18731
298.49        24.29081
298.95         24.6167
299.40         25.1778
299.85        25.91809
300.31        26.71036
300.76        27.36328
301.21        27.80507
301.67        28.10793
302.12        28.30189
302.58        28.48736
303.03        28.68106
303.48        28.86856
303.94        29.09752
304.39        29.40974
304.84        29.81074
305.30        30.27769
305.75        30.72309
306.20        31.01945
306.66        31.16006
307.11        31.17408
307.57        31.13971
308.02        31.10212
308.47        31.11567
308.93        31.16331
309.38         31.2697
309.83        31.50435
310.29         31.8515
310.74        32.27279
311.19        32.67019
311.65         32.8923
312.10        32.90463
312.55        32.75306
313.00        32.49897
313.46        32.25874
313.91        32.06951
314.36        31.91787
314.82        31.82286
315.27        31.79524
315.72        31.83766
316.18        31.94943
316.63        32.09116
317.08        32.16947
317.53        32.15556
317.99        32.05457
318.44        31.92353
318.89        31.86237
319.35        31.88191
319.80        31.95922
320.25        31.99943
320.70        31.85025
321.16        31.49096
321.61         30.9817
322.06        30.44847
322.51        30.07946
322.97        29.90795
323.42         29.8875
323.87        29.91861
324.32        29.83338
324.78        29.58319
325.23        29.23075
325.68        28.83927
326.13        28.51463
326.59        28.28754
327.04        28.14177
327.49        28.05403
327.94        27.99311
328.39        27.94544
328.85        27.91309
329.30        27.92232
329.75        27.97067
330.20        28.05098
330.66        28.13132
331.11        28.20565
331.56        28.22344
332.01        28.16885
332.46        28.04191
332.92        27.85498
333.37        27.67129
333.82        27.50602
334.27        27.37088
334.72        27.24198
335.17        27.07407
335.63        26.86315
336.08        26.62915
336.53        26.45403
336.98        26.47011
337.43        26.69156
337.88        27.07771
338.34        27.45667
338.79        27.59715
339.24        27.42261
339.69        26.99796
340.14        26.52069
340.59        26.33954
341.05        26.52807
341.50        26.96895
341.95        27.46029
342.40        27.70781
342.85        27.64409
343.30        27.37581
343.75        26.99692
344.20        26.67379
344.66        26.47376
345.11         26.3114
345.56         26.2084
346.01        26.19559
346.46        26.25557
346.91        26.40496
347.36        26.50559
347.81        26.32683
348.26        25.85778
348.72        25.20506
349.17        24.57213
349.62         24.3777
350.07        24.70437
350.52        25.39227
350.97        26.21199
351.42        26.81368
351.87        27.08706
352.32        27.13382
352.77        26.99302
353.22         26.7333
353.67        26.40732
354.13        25.99987
354.58        25.59422
355.03        25.36582
355.48        25.34712
355.93        25.51168
356.38        25.73046
356.83        25.77947
357.28        25.60322
357.73        25.25904
358.18        24.86733
358.63        24.62217
359.08         24.5707
359.53        24.65504
359.98        24.76007
360.43        24.70952
360.88        24.46943
361.33        24.10109
361.78        23.73229
362.23        23.56572
362.68         23.6368
363.13        23.85982
363.58        24.10006
364.03        24.15207
364.48        23.96627
364.93        23.62158
365.38        23.19398
365.83        22.80293
366.28        22.50157
366.73        22.25604
367.18        22.09261
367.63        22.05481
368.08        22.13287
368.53        22.31159
368.98        22.50845
369.43        22.58746
369.88        22.51975
370.33        22.34258
370.78        22.11256
371.23        21.93564
371.68        21.84696
372.13        21.80681
372.58        21.81504
373.03        21.86947
373.48        21.95281
373.93        22.07111
374.38        22.15686
374.83        22.10079
375.28        21.89134
375.72          21.551
376.17        21.20266
376.62         21.0103
377.07        21.01358
377.52         21.1546
377.97        21.34569
378.42        21.44312
378.87        21.40324
379.32        21.27543
379.77         21.0929
380.22        20.90076
380.67        20.71822
381.11        20.52998
381.56        20.34981
382.01        20.21214
382.46        20.12591
382.91        20.09188
383.36        20.08425
383.81        20.05392
384.26        19.98959
384.71        19.90276
385.15        19.81218
385.60        19.76337
386.05        19.75198
386.50        19.75267
386.95         19.7432
387.40        19.68973
387.85        19.59171
388.29        19.47378
388.74        19.34911
389.19        19.19396
389.64        19.01141
390.09        18.79675
390.54        18.61935
390.98        18.59498
391.43        18.74343
391.88        19.01219
392.33        19.27002
392.78        19.32291
393.23        19.15126
393.67          18.821
394.12        18.48603
394.57        18.29791
395.02        18.29119
395.47        18.40943
395.91        18.59442
396.36         18.7163
396.81        18.73249
397.26        18.66759
397.71        18.55396
398.15         18.4199
398.60         18.3077
399.05        18.21561
399.50        18.11449
399.95        17.91195
400.39        17.68539
400.84        17.39768
401.29        17.15756
401.74        17.12369
402.18        17.33638
402.63        17.71856
403.08         18.1397
403.53        18.39077
403.97        18.41582
404.42        18.27145
404.87        18.03473
405.32        17.84594
405.76          17.753
406.21         17.7183
406.66        17.71829
407.11        17.72561
407.55        17.73265
408.00        17.75117
408.45        17.76752
408.90        17.73958
409.34        17.66147
409.79        17.54567
410.24        17.43701
410.68        17.40032
411.13        17.45055
411.58        17.57079
412.03        17.71803
412.47        17.81719
412.92        17.83205
413.37        17.78521
413.81        17.71899
414.26        17.71747
414.71        17.78688
415.15        17.89936
415.60         17.9922
416.05        17.98567
416.49        17.86263
416.94        17.66708
417.39        17.43909
417.83        17.24657
418.28        17.12573
418.73        17.04934
419.17        17.03171
419.62        17.08528
420.07        17.20077
420.51        17.37584
420.96        17.53744
421.41        17.55869
421.85        17.41316
422.30        17.16213
422.74        16.89725
423.19        16.78877
423.64        16.85171
424.08        17.04768
424.53         17.2782
424.98        17.40104
425.42        17.37738
425.87        17.24057
426.31        17.05628
426.76         16.9751
427.21        17.00257
427.65        16.98235
428.10        16.95384
428.54         17.0859
428.99         17.3735
429.44        17.73727
429.88        18.02483
430.33        18.05431
430.77        17.80241
431.22         17.3273
431.66        16.82839
432.11        16.69558
432.56        16.96008
433.00        17.37947
433.45        17.75698
433.89        18.08611
434.34        18.20272
434.78        17.75292
435.23        17.07467
435.67        16.98694
436.12        17.44414
436.57        17.70574
437.01        17.66064
437.46        17.62988
437.90        17.62926
438.35        17.56462
438.79        17.45819
439.24        17.39536
439.68        17.39897
440.13        17.37392
440.57        17.33826
441.02        17.55521
441.46        17.88315
441.91        17.70733
442.35        17.14794
442.80        16.89078
443.24        16.91871
443.69        16.96999
444.13        16.97803
444.58        16.83549
445.02        16.60676
445.47        16.65735
445.91        16.92375
446.36         16.9941
446.80        16.83898
447.24        16.69193
447.69        16.60723
448.13        16.56002
448.58        16.57026
449.02        16.63859
449.47        16.72576
449.91        16.76555
450.36        16.74447
450.80        16.67702
451.25        16.60195
451.69        16.56768
452.13        16.58882
452.58        16.63684
453.02        16.68946
453.47        16.71066
453.91        16.69429
454.36          16.661
454.80        16.61063
455.24        16.54026
455.69        16.46574
456.13        16.37896
456.58        16.33345
457.02        16.38346
457.46        16.53891
457.91        16.77256
458.35        17.00943
458.79        17.12544
459.24        17.10481
459.68        16.97002
460.13        16.81342
460.57         16.7375
461.01        16.78482
461.46        16.91631
461.90        17.07242
462.34        17.15243
462.79        17.12759
463.23        17.02224
463.68        16.90795
464.12        16.90729
464.56        17.04623
465.01        17.29226
465.45        17.51267
465.89        17.57929
466.34        17.48573
466.78         17.1827
467.22        16.83578
467.67        16.87966
468.11        17.27346
468.55        17.49112
468.99        17.46462
469.44        17.44109
469.88        17.47383
470.32        17.62776
470.77        17.84233
471.21         17.8883
471.65         17.7452
472.10        17.59229
472.54        17.48759
472.98        17.46555
473.42         17.5471
473.87        17.72692
474.31         17.9386
474.75        18.07212
475.20        18.10601
475.64        18.06166
476.08        17.99568
476.52        17.99543
476.97        18.08283
477.41        18.23391
477.85          18.393
478.29        18.50639
478.74        18.56198
479.18        18.48926
479.62        18.34993
480.06        18.54994
480.50        18.71961
480.95        18.89025
481.39        18.90546
481.83        18.91882
482.27        18.93051
482.72        18.78356
483.16        18.55764
483.60        18.64399
484.04        19.04615
484.48        19.19024
484.93        19.33481
485.37        19.79235
485.81        20.39704
486.25        20.65309
486.69        26.85382
487.14        21.45512
487.58        13.99859
488.02        17.40959
488.46        19.80406
488.90        19.93918
489.34         20.2209
489.79        20.03673
490.23        20.93744
490.67         21.5126
491.11         21.5258
491.55        21.53649
491.99        21.46622
492.43        21.33017
492.88        21.19505
493.32        21.17838
493.76        21.16802
494.20        21.34474
494.64        21.65419
495.08        22.05088
495.52        22.47475
495.96        22.84599
496.41        23.08587
496.85         23.2189
497.29        23.26124
497.73        22.98352
498.17        22.67046
498.61        22.89269
499.05         23.6505
499.49        23.82872
499.93        23.99237
500.37        24.17923
500.82        24.30135
501.26        24.56535
501.70        24.84414
502.14        24.94425
502.58        24.87014
503.02        24.86808
503.46        24.95811
503.90        24.99823
504.34        24.99759
504.78        25.03386
505.22        25.11241
505.66        25.21998
506.10        25.33029
506.54        25.39588
506.98        25.40984
507.42        25.39068
507.86        25.38534
508.30        25.46625
508.74          25.644
509.18        25.88784
509.62        26.14847
510.06        26.34527
510.50        26.45317
510.94        26.49945
511.38        26.50157
511.82        26.48736
512.26        26.47353
512.70        26.45099
513.14        26.44276
513.58        26.48837
514.02        26.58359
514.46        26.71157
514.90        26.83504
515.34        26.85925
515.78        26.74186
516.22        26.65661
516.66        26.64252
517.10        26.34502
517.54        25.77582
517.98         26.4379
518.42        26.17182
518.86          26.447
519.30        26.60421
519.74        26.83599
520.18        27.07393
520.62        27.18008
521.06        27.15511
521.50        27.01903
521.93        26.83482
522.37        26.71632
522.81        26.69475
523.25        26.73669
523.69        26.81205
524.13        26.87396
524.57        26.90322
525.01        26.91441
525.45        26.90338
525.89        26.86151
526.32        26.78709
526.76        26.68073
527.20        26.55309
527.64        26.43278
528.08        26.33372
528.52        26.22928
528.96        26.10903
529.40         26.0259
529.83         25.9952
530.27        25.74387
530.71        25.78104
531.15        25.69553
531.59        25.64134
532.03        25.59741
532.46         25.5977
532.90        25.69359
533.34        25.87226
533.78        26.10883
534.22         26.3177
534.66        26.37541
535.09        26.25779
535.53        26.01595
535.97         25.7308
536.41        25.53898
536.85        25.48256
537.28        25.52837
537.72        25.62853
538.16        25.70441
538.60        25.73207
539.04        25.71769
539.47        25.69473
539.91        25.77763
540.35        25.94867
540.79        26.08049
541.22        26.15386
541.66        26.24614
542.10        26.35211
542.54        26.41415
542.97        26.46509
543.41        26.59997
543.85        26.82349
544.29        27.11572
544.72        27.40297
545.16        27.58249
545.60        27.63316
546.04        27.58441
546.47        27.53573
546.91         27.6554
547.35         27.9649
547.79        28.41777
548.22        28.88056
548.66        29.12336
549.10         29.1156
549.53        28.96982
549.97        28.82463
550.41        28.82152
550.84        29.00851
551.28        29.35708
551.72        29.78425
552.15        30.12217
552.59        30.31522
553.03        30.43414
553.46        30.53195
553.90        30.57846
554.34        30.81886
554.77         31.0127
555.21         31.1773
555.65         31.3277
556.08        31.46991
556.52        31.22583
556.96        31.37468
557.39        31.40198
557.83        31.55006
558.27        31.76258
558.70        32.01719
559.14         32.2616
559.57        32.45836
560.01        32.63242
560.45        32.75534
560.88        32.78164
561.32        32.73693
561.75        32.62297
562.19        32.50793
562.63        32.44792
563.06        32.45944
563.50        32.54677
563.93        32.68378
564.37        32.83337
564.80        32.96884
565.24        33.11308
565.68        33.24904
566.11        33.35048
566.55        33.43941
566.98        33.51503
567.42        33.60691
567.85        33.75656
568.29        33.99068
568.72        34.19607
569.16        34.42559
569.60        34.82759
570.03        35.23758
570.47        35.36073
570.90        35.32925
571.34        34.71512
571.77        35.28431
572.21        35.27622
572.64         35.1888
573.08        34.74794
573.51        33.65596
573.95         35.2065
574.38        37.52506
574.82        36.50779
575.25        36.28281
575.69        35.02206
576.12        34.55429
576.56         34.3853
576.99        35.17132
577.42        36.95216
577.86        36.55385
578.29        36.29633
578.73        38.18797
579.16        35.18968
579.60        32.23832
580.03        33.68837
580.47        35.84977
580.90        36.49402
581.33        35.73309
581.77        35.19039
582.20        38.35296
582.64        37.78261
583.07        32.48685
583.51        31.83781
583.94        31.15413
584.37         32.4263
584.81        33.97269
585.24        35.74514
585.68        36.60596
586.11        35.84335
586.54        33.11783
586.98        32.16868
587.41        32.42346
587.85         33.9878
588.28        35.20999
588.71        33.16364
589.15        32.36657
589.58        32.95533
590.01        33.37865
590.45        33.77576
590.88        34.15286
591.31        33.75196
591.75        33.57912
592.18         33.5997
592.61        34.18188
593.05        34.88159
593.48        36.24873
593.91        36.19382
594.35        33.43201
594.78        32.90083
595.21        33.07713
595.65        34.71813
596.08        36.01579
596.51        34.83112
596.94        34.20011
597.38        34.82617
597.81        36.43042
598.24        37.12496
598.68        36.60218
599.11        36.37479
599.54        37.96737
599.97        38.98071
600.41        37.13749
600.84        37.48109
601.27        38.69159
601.70        38.28619
602.14        38.61049
602.57        38.44122
603.00        39.24192
603.43        40.56205
603.87        41.85928
604.30        41.94015
604.73        41.02716
605.16        40.87546
605.60        41.85449
606.03        42.91832
606.46        43.69073
606.89        44.03061
607.32        43.14421
607.76        43.38201
608.19        45.12399
608.62        44.78848
609.05        44.22686
609.48        44.97665
609.92        45.50655
610.35        45.46484
610.78        47.07903
611.21        47.90784
611.64        46.01333
612.07        46.78558
612.50        47.29969
612.94        47.85779
613.37        47.72905
613.80        48.28527
614.23        48.84494
614.66        49.12143
615.09        49.58227
615.52        49.79276
615.96        49.86598
616.39        50.10131
616.82        49.67258
617.25        49.70005
617.68        50.54305
618.11        51.10639
618.54        51.39615
618.97        51.27423
619.40         51.0352
619.84        51.04133
620.27        52.10168
620.70        52.67995
621.13        52.90805
621.56        52.59902
621.99        51.98829
622.42        52.66875
622.85        54.25141
623.28         53.8385
623.71        53.38165
624.14        53.40347
624.57        52.98938
625.00         52.9983
625.43        53.04552
625.86        52.66555
626.29        52.81299
626.72        53.17821
627.15        52.82428
627.58        52.75622
628.01        52.63753
628.44        52.53692
628.87        52.47394
629.30        52.45296
629.73        52.37489
630.16        52.42237
630.59        51.83436
631.02        51.33655
631.45        50.80874
631.88        50.31994
632.31        49.88622
632.74        49.75811
633.17         49.4216
633.60        49.17501
634.03        48.85331
634.46        48.49857
634.89        48.11909
635.32        47.73607
635.75        47.36509
636.18        46.99127
636.61        46.62747
637.04        46.29137
637.47        45.97073
637.89        45.68512
638.32        45.40941
638.75        45.04719
639.18         44.5799
639.61        44.37223
640.04         43.8431
640.47        43.46999
640.90        43.08994
641.33        42.71576
641.76        42.37177
642.18        42.17114
642.61        42.13025
643.04        42.11793
643.47         42.0512
643.90        42.33939
644.33        42.08586
644.76        42.02637
645.18        41.94016
645.61        41.91365
646.04        41.95598
646.47        42.03232
646.90        42.17491
647.33        42.40298
647.75        42.72866
648.18        43.18507
648.61        43.63108
649.04        43.85563
649.47        43.84076
649.89        43.52017
650.32        43.22581
650.75        43.67231
651.18         44.8025
651.61        45.92316
652.03        46.71601
652.46        47.09971
652.89        47.33242
653.32         47.2985
653.74        47.27901
654.17        48.66339
654.60        49.83817
655.03        48.51809
655.46        49.19798
655.88        53.07747
656.31        56.54831
656.74        126.6491
657.16        82.20313
657.59        29.05437
658.02        22.38589
658.45        39.36628
658.87        50.57187
659.30        53.64391
659.73        53.05208
660.15        51.96575
660.58        53.98276
661.01        55.62366
661.44        54.03948
661.86        53.72389
662.29        54.06935
662.72        54.85587
663.14        55.93435
663.57         56.1405
664.00        55.63692
664.42        55.72458
664.85        56.46585
665.27        56.98389
665.70        57.12646
666.13        57.18233
666.55        57.14458
666.98        56.92258
667.41         56.6627
667.83        56.67426
668.26        56.96716
668.69        57.46248
669.11        57.94529
669.54        58.35127
669.96        58.06887
670.39        57.71181
670.82        57.31349
671.24        57.06013
671.67        57.13082
672.09        57.73399
672.52        58.55825
672.94        59.25946
673.37        58.76827
673.80        58.62169
674.22        58.63187
674.65        58.64152
675.07        58.66602
675.50        58.68307
675.92         58.7192
676.35        58.86247
676.77        59.11458
677.20        59.38681
677.62        59.64511
678.05        59.83562
678.47        59.93423
678.90        59.97263
679.32        59.99094
679.75        59.94186
680.17        60.07232
680.60        60.17792
681.02        60.29579
681.45        60.28884
681.87        60.15621
682.30        60.10037
682.72        60.14394
683.15        59.99899
683.57        59.83598
684.00        60.23994
684.42        61.23081
684.85        61.69081
685.27        61.57794
685.70        61.39394
686.12        61.24035
686.54        61.13047
686.97        61.11515
687.39        61.19679
687.82        61.32755
688.24        61.51759
688.66        61.69928
689.09         61.7573
689.51        61.74022
689.94        61.82468
690.36        62.03246
690.78        62.25276
691.21        62.43525
691.63        62.55985
692.06        62.60969
692.48        62.58092
692.90        62.53773
693.33        62.57814
693.75        62.72739
694.17        62.97454
694.60        63.24258
695.02        63.39536
695.44        63.39041
695.87        63.37855
696.29        63.43372
696.71        63.38841
697.14        63.34653
697.56        63.82655
697.98         64.5816
698.41        64.64298
698.83        63.94437
699.25        63.61399
699.68        63.68323
700.10        63.64412
700.52        63.51526
700.94        63.62147
701.37        63.93409
701.79        64.29232
702.21        64.62408
702.64        64.98076
703.06        65.26414
703.48        65.30773
703.90        65.10545
704.33        64.70665
704.75        64.26076
705.17        64.09265
705.59        64.28427
706.01        64.64494
706.44        65.01034
706.86        65.66531
707.28        65.66032
707.70        65.75188
708.12        65.73808
708.55        65.67233
708.97        65.58763
709.39        65.56532
709.81        65.61604
710.23        65.65939
710.66        65.69361
711.08        65.80444
711.50        65.94367
711.92        66.01579
712.34        66.00501
712.76        65.92346
713.19        65.83524
713.61        65.87209
714.03        66.04565
714.45        66.32178
714.87        66.58266
715.29        66.64127
715.71        66.46537
716.13        66.11958
716.56        65.75607
716.98         65.6173
717.40         65.7504
717.82        66.13609
718.24        66.64542
718.66        66.73751
719.08        66.84609
719.50        66.65005
719.92        66.39178
720.34        66.22663
720.76        66.21227
721.19        66.17689
721.61        66.31259
722.03        66.48118
722.45        66.71749
722.87        67.01936
723.29        67.31492
723.71        67.47308
724.13        67.46592
724.55        67.32746
724.97        67.14397
725.39        67.06694
725.81        67.13578
726.23        67.30282
726.65        67.51413
727.07        67.67975
727.49        67.77454
727.91        67.83981
728.33        67.87794
728.75        67.89021
729.17        67.88313
729.59        67.83958
730.01        67.81836
730.43         67.9101
730.85        68.12917
731.27        68.47698
731.69        68.82353
732.10        68.93481
732.52        68.76344
732.94         68.4123
733.36        68.07735
733.78        67.96655
734.20        68.14216
734.62        68.80965
735.04        69.67411
735.46        69.80119
735.88        68.97881
736.30        69.26484
736.72         70.4884
737.13        71.14886
737.55        70.92728
737.97         70.7559
738.39        70.74378
738.81        70.07161
739.23        69.15419
739.65        69.95873
740.06        71.99274
740.48        72.19334
740.90        70.65587
741.32        69.97118
741.74        70.39108
742.16        70.63507
742.57        70.74855
742.99        71.46221
743.41        72.55029
743.83        73.21287
744.25        73.30972
744.67        73.05178
745.08        72.66374
745.50        72.51193
745.92        72.70879
746.34        73.11417
746.75        73.59135
747.17        73.88797
747.59        73.95751
748.01        73.95957
748.42        73.98889
748.84        74.05834
749.26        74.30463
749.68        74.84836
750.09        75.56477
750.51        76.34653
750.93        76.91467
751.35        76.49831
751.76        75.41128
752.18        75.06824
752.60        75.51355
753.01        75.75332
753.43        75.71567
753.85        75.93095
754.27         76.3906
754.68        76.86498
755.10        77.27886
755.52        77.66225
755.93         77.9625
756.35        78.11654
756.77        78.21362
757.18        78.22537
757.60        78.15615
758.02        78.50985
758.43        79.02933
758.85        78.20194
759.26         76.5731
759.68        76.71916
760.10        78.45782
760.51        79.13831
760.93        78.45269
761.34         77.6858
761.76        77.48658
762.18        76.90081
762.59        76.33802
763.01        76.58813
763.42        77.60582
763.84        78.31524
764.26        78.60129
764.67        78.75295
765.09        78.76921
765.50        78.95676
765.92         79.0891
766.33        77.82922
766.75        75.76065
767.16        75.11466
767.58        76.08047
768.00         77.5289
768.41        79.08391
768.83        80.37688
769.24        80.86826
769.66        80.32908
770.07        79.16998
770.49        77.53429
770.90        76.00691
771.32        76.92933
771.73        79.58397
772.15        79.27965
772.56        76.42765
772.97        75.80257
773.39        77.37268
773.80        77.92548
774.22        77.27246
774.63        77.32846
775.05        78.01924
775.46        78.42037
775.88        78.41055
776.29        78.24486
776.70        78.01467
777.12        77.90714
777.53        77.98376
777.95        78.12118
778.36         78.2189
778.77        78.10897
779.19          77.812
779.60        77.40111
780.02        77.02624
780.43        77.05639
780.84        77.61435
781.26        77.97549
781.67        78.15411
782.09        79.55445
782.50         81.4361
782.91         80.3308
783.33        77.10822
783.74        76.11829
784.15        77.32968
784.57        78.47703
784.98        78.99036
785.39          78.868
785.81         78.1798
786.22        77.81895
786.63         77.9611
787.04        77.87155
787.46        77.70995
787.87           78.45
788.28        79.78508
788.70        80.36102
789.11        80.01434
789.52        79.45782
789.93        78.91971
790.35        78.29124
790.76         77.7991
791.17        78.00728
791.58        78.74483
792.00        79.13612
792.41        79.05592
792.82        78.97153
793.23        79.03593
793.65        78.97353
794.06        78.96767
794.47        79.88771
794.88        81.04729
795.29        80.88348
795.71         78.2788
796.12        76.48212
796.53        75.66322
796.94        75.07774
797.35        75.00509
797.76         76.5593
798.18        79.03258
798.59        80.35334
799.00        80.05284
799.41        78.86456
799.82        77.41824
800.23        76.57855
800.64         76.6102
801.06        77.16404
801.47        78.00552
801.88        78.63188
802.29        78.84922
802.70        78.84521
803.11        78.71375
803.52        78.51235
803.93        78.30011
804.34        78.13725
804.75        78.13065
805.17        77.84604
805.58        78.50008
805.99        78.81266
806.40        78.99308
806.81        79.52701
807.22        79.99841
807.63        78.78148
808.04        76.47593
808.45        75.49107
808.86        76.05184
809.27        76.98845
809.68        77.87143
810.09        78.40489
810.50        78.36681
810.91        77.86869
811.32        77.18966
811.73        76.77921
812.14        76.76507
812.55        76.97695
812.96         77.3288
813.37        77.66156
813.78        77.89298
814.19        78.12952
814.60        78.24128
815.01        78.00858
815.42        77.42624
815.83        76.51524
816.24        75.63326
816.65        75.41549
817.05        76.04363
817.46         77.3098
817.87        78.69402
818.28         79.2511
818.69        78.73408
819.10        77.37306
819.51        75.81289
819.92        75.14989
820.33        75.66097
820.74         77.0171
821.14        78.57043
821.55        79.16344
821.96        78.55265
822.37        77.14118
822.78        75.53826
823.19        74.64153
823.60        74.69102
824.00        75.45415
824.41        76.51039
824.82        77.24334
825.23        77.38696
825.64        77.15688
826.04        76.75166
826.45        76.45438
826.86        76.34901
827.27        76.29442
827.68        76.25093
828.08        76.21218
828.49        76.10459
828.90        76.03281
829.31        75.93697
829.72         75.6825
830.12        75.30071
830.53        74.82104
830.94        74.47595
831.35        74.58235
831.75        75.22056
832.16        76.22583
832.57        77.37317
832.97        78.17657
833.38        78.39273
833.79        78.15549
834.20        77.67471
834.60        77.28036
835.01        77.10268
835.42        77.03515
835.82        77.00378
836.23        76.80848
836.64        76.45207
837.04        76.05336
837.45        75.71177
837.86        75.57062
838.26        75.67284
838.67        75.91378
839.08        76.26715
839.48        76.67762
839.89         77.0523
840.29          77.397
840.70        77.59558
841.11        77.46338
841.51        77.00258
841.92        76.26389
842.33        75.47414
842.73        75.01917
843.14        74.97036
843.54        75.26891
843.95        75.69363
844.35        75.92939
844.76        75.85816
845.17        75.57988
845.57         75.2235
845.98        74.99393
846.38         74.9461
846.79        74.98878
847.19        75.05177
847.60        74.94211
848.00        74.66312
848.41        74.26667
848.81        73.90322
849.22        73.70706
849.62        73.76096
850.03        74.03399
850.43        74.46147
850.84        74.83604
851.24        75.12244
851.65        75.18939
852.05        75.28848
852.46        75.66653
852.86          76.362
853.27        77.31215
853.67        77.94205
854.07        77.50217
854.48        75.99717
854.88        73.69689
855.29         71.4772
855.69        70.59952
856.10        71.31638
856.50        73.47576
856.90        76.28232
857.31        77.89856
857.71        77.74602
858.12        76.28801
858.52        74.45587
858.92        73.48454
859.33        73.63537
859.73        74.57996
860.13         75.9511
860.54        76.97388
860.94        77.39095
861.34        77.40041
861.75        77.20818
862.15        77.22916
862.55        77.54335
862.96        77.98414
863.36        78.43838
863.76        78.69796
864.17        78.69834
864.57         78.5845
864.97        78.45518
865.38        78.43012
865.78        78.59161
866.18        78.81654
866.58        79.08077
866.99        79.34297
867.39        79.62681
867.79        79.97403
868.19         80.2009
868.60        79.95604
869.00        79.20687
869.40         78.0726
869.80        77.12805
870.21         77.2511
870.61        78.69972
871.01        81.20628
871.41        84.01488
871.81        85.81929
872.22        86.24704
872.62        85.63709
873.02        84.67432
873.42        84.62572
873.82        85.60876
874.22        86.96694
874.63        88.30978
875.03        88.82932
875.43        88.14462
875.83        87.37621
876.23        85.51817
876.63        84.55386
877.03        84.43675
877.44        85.29084
877.84        103.7999
878.24        91.51608
878.64        92.07995
879.04        92.36135
879.44        89.06041
879.84        87.64404
880.24        91.31362
880.64        93.36083
881.04        94.56115
881.44        95.20889
881.84        94.67898
882.24        93.25426
882.65        91.73865
883.05        90.88938
883.45        90.85001
883.85        91.60452
884.25        92.77614
884.65        93.49385
885.05          93.481
885.45        93.01765
885.85        92.51028
886.25        92.52032
886.65        93.15308
887.05        94.19272
887.45        95.29657
887.85        95.87466
888.25        95.73729
888.65        95.09617
889.04        94.23437
889.44        93.63925
889.84          93.429
890.24        93.42945
890.64         93.5421
891.04        93.62496
891.44        93.60906
891.84        93.57878
892.24        93.44617
892.64        93.03101
893.04        92.39417
893.44        91.68346
893.83         91.1359
894.23        91.10592
894.63        91.63709
895.03        92.56315
895.43        93.83886
895.83        95.33782
896.23        96.87415
896.63        98.41425
897.02        99.50018
897.42        99.43328
897.82         98.1819
898.22        96.04344
898.62        93.76934
899.01        92.45933
899.41        92.39089
899.81        93.21453
900.21        94.50241
900.61        95.52435
901.00        96.00979
901.40        96.17986
901.80        96.12434
902.20        95.98476
902.59        95.83228
902.99        95.56195
903.39        95.23109
903.79        94.97743
904.18        94.85387
904.58        94.92496
904.98         95.1153
905.38        95.28575
905.77        95.37688
906.17        95.37943
906.57        95.41254
906.96        95.71282
907.36        96.21883
907.76        96.85551
908.15        97.29942
908.55        96.91306
908.95        95.66613
909.34        93.77773
909.74        91.83983
910.14        90.59309
910.53         90.2848
910.93        90.76439
911.33        91.80791
911.72        92.97659
912.12        93.93053
912.52        94.66283
912.91        95.21743
913.31        95.70048
913.70        96.19064
914.10        96.63211
914.49        96.73499
914.89        95.86343
915.29        94.04968
915.68        91.66473
916.08        89.70535
916.47         88.9995
916.87        89.57973
917.26        91.17426
917.66        93.00347
918.05        93.79395
918.45        93.20992
918.84        91.69163
919.24        90.02136
919.64        89.34932
920.03         89.9828
920.42         91.5273
920.82        93.46979
921.21        95.05982
921.61        95.80959
922.00        95.97924
922.40        95.62099
922.79        94.80138
923.19        93.68195
923.58        92.17097
923.98        90.42715
924.37        89.24143
924.77        89.11774
925.16        87.70957
925.55        89.14198
925.95        90.20502
926.34        91.99852
926.74        94.11134
927.13        96.09142
927.52        96.93355
927.92        96.51821
928.31        95.15181
928.70        93.23442
929.10        91.48771
929.49        90.14659
929.89        89.09455
930.28        88.57462
930.67         88.9751
931.07        90.17921
931.46        92.14347
931.85        94.10658
932.24        94.92593
932.64        94.37883
933.03        92.61987
933.42        90.18183
933.82        88.34254
934.21        87.50783
934.60        87.42273
934.99        87.59232
935.39        87.49339
935.78        87.05402
936.17         86.0579
936.56        84.37049
936.96        85.31759
937.35        84.48798
937.74        85.27023
938.13         86.1005
938.53        87.14536
938.92        88.45403
939.31        90.14339
939.70         91.8206
940.09        92.29925
940.49        91.25713
940.88        89.22913
941.27        87.12028
941.66        85.99014
942.05         85.9782
942.44        86.73458
942.84        87.97068
943.23        89.25235
943.62        90.25095
944.01        91.06691
944.40         91.5471
944.79        91.45739
945.18        90.75334
945.57        89.37817
945.97        87.57218
946.36        86.12464
946.75        85.51553
947.14         85.6112
947.53        86.08417
947.92        86.54033
948.31        86.89656
948.70        87.25763
949.09        87.65649
949.48        88.08964
949.87        88.50134
950.26        88.81416
950.65        88.92451
951.04        88.73962
951.43        88.26781
951.82        87.54431
952.21        86.75662
952.60         86.2403
952.99        86.04966
953.38        86.04281
953.77         86.0518
954.16        85.78723
954.55         85.2036
954.94        84.50893
955.33        83.66415
955.72        82.58797
956.11         81.3642
956.50         79.9921
956.89        79.06845
957.28        79.65169
957.66        81.96178
958.05        85.39368
958.44        88.85992
958.83        90.74366
959.22        90.67285
959.61        89.05493
960.00        86.65058
960.39        84.75178
960.78        83.80677
961.16        83.53506
961.55        83.54383
961.94        83.16071
962.33         82.2332
962.72        81.09702
963.11        80.15334
963.49        79.86803
963.88        80.30049
964.27        81.32063
964.66        82.51213
965.04        83.04945
965.43        82.56139
965.82        81.37939
966.21        80.15862
966.60        79.75173
966.98        80.30724
967.37        81.52539
967.76        82.91582
968.15        83.52339
968.53        83.04981
968.92        81.79983
969.31         80.3187
969.69        79.29092
970.08        78.88754
970.47        78.95181
970.86        79.14818
971.24        78.90363
971.63        78.06628
972.02        76.81085
972.40        75.70673
972.79        75.71801
973.17        77.20439
973.56        79.78519
973.95        82.63828
974.33        84.18886
974.72        83.84761
975.11        82.06631
975.49        79.86843
975.88        78.65611
976.26        78.66746
976.65         79.6553
977.04        80.74988
977.42        79.99821
977.81        76.92809
978.19         72.4465
978.58        68.79585
978.96        68.25956
979.35        71.13622
979.74        77.02818
980.12        84.42088
980.51        88.60252
980.89        88.03414
981.28        84.08324
981.66        79.27353
982.05         76.8288
982.43        77.20631
982.82        79.22553
983.20        81.97912
983.59        84.26762
983.97        85.77444
984.35        86.97204
984.74        87.61967
985.12         87.5332
985.51        86.46873
985.89        84.27049
986.28        81.52673
986.66         79.1751
987.04        77.76582
987.43        77.30477
987.81        77.15424
988.20        76.35796
988.58        74.53659
988.96        71.31264
989.35        67.20135
989.73         65.6273
990.12        68.79755
990.50        75.26049
990.88        80.80663
991.27        82.26081
991.65        80.10889
992.03        75.30379
992.42        69.99789
992.80        68.00153
993.18        70.30977
993.56        74.75958
993.95        79.35015
994.33        82.36098
994.71        83.41551
995.10        83.49497
995.48        82.70643
995.86        80.95114
996.24        78.34069
996.63         74.5248
997.01        70.55917
997.39        69.65224
997.77        73.00938
998.15        79.77054
998.54        86.71301
998.92        89.55413
999.30        87.04063
999.68        80.28654
1000.06        70.94646
1000.45        63.38211
1000.83        59.75353
1001.21        58.92181
1001.59        60.15131
1001.97        62.67379
1002.35        66.14917
1002.73         71.4013
1003.12        77.26627
1003.50        79.41727
1003.88        75.78577
1004.26        68.30722
1004.64        60.66248
1005.02        55.95444
1005.40        54.27377
1005.78        54.87399
1006.16        58.78892
1006.54        65.90648
1006.92        72.48169
1007.30        76.86662
1007.69         79.0803
1008.07        80.17265
1008.45        80.71484
1008.83        80.16553
1009.21        76.59692
1009.59        63.14284
1009.97        24.01835
1010.35       -32.52488
1010.73       -27.51421
1011.11        2.086136
1011.49        23.37033
1011.86        39.84643
1012.24          49.371
1012.62         53.4917
1013.00        54.38787
1013.38        52.63088
1013.76        50.42174
1014.14        54.94791
1014.52        72.09706
1014.90        104.1676
1015.28        142.6005
1015.66        162.7133
1016.04        149.7406
1016.41        107.6251
1016.79        61.44535
1017.17        38.68032
1017.55        37.32359
1017.93        44.16295
1018.31        52.18591
1018.69        57.81908
1019.06        61.38445
1019.44         64.1264
1019.82        67.61376
1020.20        74.43285
1020.58        87.70786
1020.95        112.0685
1021.33        152.7478
1021.71       -206.9755
1022.09        100.4982
1022.46        123.8544
1022.84        135.7203
1023.22        148.1846
1023.60        174.4674
1023.97        418.9185
1024.35        8.435649
1024.73        57.44806
