SpectraSmart Spectrum 2.9.0.0
--------- Device Information -----------
Spectrum Name :  反射率_0
Saving Time :  2024/04/26 00:41:40
Spectro-Module Model Name : SE2030-DUVN
Spectro-Module Serial Number : OS361AC55029948
Wavelength Start : 200
Wavelength End : 1025
Wavelength Unit : Wavelength(nm)
Spectrum Unit : Reflectance(%)
-----------Spectrum Setting ------------
Integration Time : 20ms
Average : 10
Boxcar : 0
Background removal :  enabled
linearity correction :  enabled
SC :  disabled
Intensity correction :  disabled
DWT denoise :  enabled
savitzky-golay :  disabled
FFT :  disabled
Running average :  disabled
Kalman :  disabled
High pass :  disabled
---------------BEGIN--------------------
Wavelength(nm)             Reflectance(%)
200.29               0
200.75        104.4585
201.21        96.81559
201.67         86.6317
202.13        79.45063
202.58        76.21517
203.04        75.68066
203.50        76.65107
203.96        77.25798
204.42        76.94997
204.88        76.52159
205.34         76.4287
205.80        77.14867
206.26        79.14418
206.72        83.33302
207.18        91.42186
207.64        99.51187
208.10        96.54008
208.55        87.36987
209.01        80.99406
209.47         78.3478
209.93        77.73692
210.39         78.4501
210.85        78.88031
211.31        76.07433
211.77         69.7443
212.23        61.27228
212.69        54.01329
213.14        53.12934
213.60        59.16767
214.06        70.69392
214.52        83.75291
214.98        92.19736
215.44        94.29462
215.90        91.79456
216.36        87.19212
216.81        83.92739
217.27        83.28578
217.73        84.23657
218.19        85.16167
218.65        83.96503
219.11        79.86699
219.57        72.24699
220.02        62.98581
220.48        60.19212
220.94        67.29874
221.40        81.25333
221.86        92.36384
222.32        91.26439
222.77         80.0471
223.23        64.91784
223.69        52.28605
224.15         48.6667
224.61        53.29275
225.06        62.80484
225.52        72.84792
225.98        77.69831
226.44        76.28162
226.90        70.98898
227.36        64.67773
227.81        61.19477
228.27        61.68827
228.73        64.46786
229.19        68.12698
229.65        70.67492
230.10         71.5266
230.56        71.63116
231.02        71.40502
231.48        71.25755
231.93        71.27542
232.39        71.28144
232.85        71.30347
233.31        71.54491
233.77        71.99174
234.22        72.64344
234.68        73.19329
235.14        73.02852
235.60        72.03497
236.05        70.46278
236.51         68.7384
236.97        67.37571
237.43        66.46037
237.88        65.90225
238.34        65.53278
238.80         65.3479
239.26        65.31577
239.71        65.71923
240.17        66.08073
240.63        66.07883
241.08        65.75375
241.54        65.09451
242.00        64.60549
242.46        65.01497
242.91        67.05719
243.37        72.22485
243.83        87.67039
244.28        134.1983
244.74        179.5269
245.20        145.1902
245.66        118.3289
246.11        111.3685
246.57        115.7922
247.03         136.546
247.48         200.073
247.94        171.8847
248.40        104.7669
248.85        83.74989
249.31        77.63362
249.77        77.49548
250.22        80.93163
250.68        88.08575
251.14        98.74694
251.59        106.0137
252.05        102.9725
252.51        92.61298
252.96        81.38059
253.42        75.65032
253.88        74.90269
254.33        76.76337
254.79        80.16219
255.25        83.11891
255.70         84.8577
256.16        86.31017
256.62         86.8001
257.07        85.50871
257.53        83.08276
257.99        79.52386
258.44        75.93285
258.90        74.55326
259.35        74.47892
259.81        75.03043
260.27        74.63164
260.72        71.75513
261.18        67.20599
261.63        61.65449
262.09        56.65633
262.55        53.30786
263.00        51.52976
263.46        50.85798
263.91         50.4045
264.37        49.54456
264.83        48.08839
265.28        46.19122
265.74        44.37595
266.19        43.14402
266.65        42.70827
267.11        42.73645
267.56        42.78044
268.02        42.34415
268.47        41.31204
268.93        39.87909
269.38        38.31717
269.84        37.30404
270.30         37.0085
270.75         37.2354
271.21        37.60812
271.66        37.56328
272.12        36.96502
272.57        35.99984
273.03        34.98885
273.48        34.31932
273.94         34.1152
274.39        34.18875
274.85         34.3441
275.31         34.2784
275.76        33.90736
276.22        33.37011
276.67        32.77032
277.13        32.36242
277.58        32.13203
278.04        32.02029
278.49        31.87047
278.95        31.54984
279.40        30.99783
279.86        30.34501
280.31        29.62854
280.77        29.02376
281.22        28.53567
281.68        28.15812
282.13         27.8622
282.59        27.65665
283.04        27.50743
283.50        27.43457
283.95        27.36585
284.41        27.21968
284.86        26.96502
285.32        26.63616
285.77        26.29014
286.22        26.08504
286.68        26.02621
287.13        26.03918
287.59        26.01636
288.04        25.78321
288.50        25.33966
288.95        24.73513
289.41        24.09724
289.86        23.50397
290.32        23.04666
290.77        22.68718
291.22        22.45668
291.68        22.36129
292.13        22.39492
292.59        22.55214
293.04        22.80763
293.50        23.12377
293.95        23.46246
294.40        23.79449
294.86        24.08618
295.31        24.30028
295.77        24.43709
296.22        24.51622
296.68        24.54885
297.13        24.52902
297.58         24.4937
298.04         24.4723
298.49         24.5442
298.95        24.86061
299.40         25.4236
299.85        26.17285
300.31        26.96841
300.76        27.60066
301.21        27.99117
301.67        28.21388
302.12        28.30051
302.58        28.35645
303.03        28.40339
303.48        28.42974
303.94        28.49422
304.39        28.65436
304.84        28.92135
305.30        29.27254
305.75        29.61437
306.20          29.808
306.66        29.84339
307.11        29.75149
307.57        29.61775
308.02        29.49982
308.47        29.44983
308.93        29.44433
309.38        29.48931
309.83        29.62595
310.29        29.83589
310.74        30.09345
311.19        30.32656
311.65        30.42256
312.10        30.35652
312.55        30.16393
313.00         29.8882
313.46        29.61419
313.91        29.37255
314.36        29.16278
314.82        29.01615
315.27        28.96393
315.72        29.01018
316.18        29.14061
316.63        29.31128
317.08        29.42325
317.53        29.44315
317.99          29.382
318.44        29.27849
318.89        29.20272
319.35        29.16586
319.80        29.15227
320.25        29.11388
320.70        28.97758
321.16        28.73556
321.61        28.41897
322.06        28.09184
322.51         27.8466
322.97        27.69457
323.42        27.61825
323.87        27.55892
324.32        27.41973
324.78        27.17909
325.23        26.87803
325.68        26.56683
326.13        26.33069
326.59        26.18843
327.04        26.12705
327.49        26.11812
327.94        26.11866
328.39        26.11039
328.85        26.09637
329.30        26.09507
329.75        26.09852
330.20        26.10628
330.66        26.09649
331.11        26.09231
331.56        26.08735
332.01        26.07835
332.46        26.05922
332.92        26.02123
333.37         25.9783
333.82        25.92596
334.27        25.88064
334.72        25.82743
335.17        25.74204
335.63        25.62308
336.08         25.4751
336.53        25.36621
336.98        25.41117
337.43          25.623
337.88        25.97368
338.34        26.30469
338.79        26.40372
339.24          26.202
339.69        25.75774
340.14        25.27514
340.59        25.11117
341.05        25.33811
341.50        25.84178
341.95        26.39177
342.40        26.65015
342.85        26.54755
343.30        26.20372
343.75        25.76369
344.20        25.48129
344.66        25.43762
345.11        25.51032
345.56         25.6552
346.01        25.80612
346.46        25.92086
346.91        26.04339
347.36        26.07022
347.81        25.82784
348.26        25.32304
348.72        24.64344
349.17        23.98434
349.62         23.7512
350.07         24.0271
350.52        24.67301
350.97        25.45781
351.42        26.02211
351.87          26.259
352.32        26.26884
352.77        26.12199
353.22         25.9384
353.67        25.76985
354.13        25.57564
354.58        25.37623
355.03        25.24939
355.48        25.20637
355.93        25.25233
356.38        25.31198
356.83        25.24875
357.28        25.03609
357.73         24.7091
358.18        24.36799
358.63         24.1728
359.08        24.15792
359.53        24.27741
359.98        24.41805
360.43         24.4047
360.88        24.20033
361.33        23.85583
361.78        23.49561
362.23        23.32044
362.68        23.36796
363.13        23.56249
363.58         23.7632
364.03         23.7543
364.48         23.4888
364.93        23.04583
365.38        22.54031
365.83        22.15268
366.28         21.9427
366.73        21.85917
367.18         21.8523
367.63        21.84207
368.08        21.79349
368.53        21.72712
368.98        21.65576
369.43        21.59115
369.88        21.53793
370.33          21.495
370.78        21.42926
371.23        21.29549
371.68        21.09297
372.13        20.83204
372.58        20.61007
373.03        20.58701
373.48        20.78439
373.93        21.14521
374.38        21.51035
374.83        21.63639
375.28        21.47363
375.72         21.0859
376.17        20.63876
376.62        20.36448
377.07        20.32985
377.52        20.45723
377.97        20.64869
378.42        20.74707
378.87        20.70486
379.32        20.58147
379.77        20.41871
380.22        20.26949
380.67         20.1517
381.11        20.04265
381.56        19.93696
382.01        19.84068
382.46        19.75381
382.91        19.68141
383.36        19.61726
383.81        19.54554
384.26         19.4641
384.71        19.37906
385.15        19.28954
385.60        19.20766
386.05        19.12848
386.50        19.04478
386.95        18.96517
387.40        18.90734
387.85        18.87552
388.29         18.8605
388.74        18.85028
389.19        18.79684
389.64        18.69433
390.09        18.54931
390.54        18.40527
390.98        18.33404
391.43        18.36029
391.88        18.45534
392.33        18.55365
392.78        18.55819
393.23        18.45797
393.67        18.27576
394.12         18.1089
394.57        18.03315
395.02        18.06447
395.47        18.17306
395.91        18.30606
396.36        18.34524
396.81        18.26576
397.26        18.09326
397.71        17.89611
398.15        17.75763
398.60        17.71979
399.05        17.75575
399.50        17.79521
399.95        17.68849
400.39        17.49889
400.84        17.20841
401.29        16.93106
401.74        16.83884
402.18        16.98318
402.63        17.28199
403.08        17.62954
403.53        17.85483
403.97        17.90765
404.42        17.84063
404.87        17.69307
405.32         17.5369
405.76        17.40652
406.21         17.2862
406.66         17.1985
407.11        17.18393
407.55        17.24764
408.00        17.37991
408.45        17.53022
408.90        17.58507
409.34        17.51322
409.79        17.35179
410.24        17.17492
410.68        17.08828
411.13        17.11895
411.58        17.23594
412.03        17.39281
412.47           17.51
412.92        17.54583
413.37         17.5248
413.81        17.48079
414.26         17.4824
414.71        17.53414
415.15          17.614
415.60        17.66661
416.05        17.62504
416.49        17.47898
416.94        17.27125
417.39        17.04835
417.83        16.88755
418.28        16.82266
418.73        16.81838
419.17        16.87436
419.62        16.98335
420.07        17.12904
420.51        17.31129
420.96        17.45765
421.41        17.44431
421.85        17.25242
422.30        16.95081
422.74        16.63767
423.19        16.48924
423.64        16.52361
424.08         16.7011
424.53        16.93557
424.98        17.10345
425.42        17.16447
425.87        17.14186
426.31        17.06949
426.76        17.05141
427.21        17.08289
427.65        17.01875
428.10        16.92467
428.54        17.01546
428.99        17.30122
429.44        17.69071
429.88        18.01846
430.33        18.08101
430.77        17.84551
431.22        17.37681
431.66        16.87955
432.11        16.73705
432.56        16.97865
433.00        17.40146
433.45        17.80093
433.89        18.05165
434.34         18.0389
434.78        17.65091
435.23        17.17033
435.67        17.16374
436.12        17.57613
436.57        17.79214
437.01        17.72546
437.46         17.6769
437.90         17.6707
438.35        17.62027
438.79        17.52859
439.24        17.45074
439.68        17.40832
440.13        17.31936
440.57        17.23219
441.02        17.45565
441.46        17.85682
441.91        17.79738
442.35        17.35928
442.80         17.1929
443.24        17.27311
443.69        17.34488
444.13        17.34029
444.58        17.15157
445.02        16.85401
445.47         16.8229
445.91        17.00785
446.36        17.02044
446.80        16.83982
447.24        16.69355
447.69        16.62896
448.13        16.60733
448.58        16.64126
449.02        16.73429
449.47        16.83696
449.91        16.86725
450.36        16.81124
450.80        16.68877
451.25        16.55813
451.69        16.49938
452.13        16.53475
452.58        16.62752
453.02        16.73999
453.47         16.8115
453.91        16.82882
454.36        16.81878
454.80        16.78874
455.24        16.74836
455.69        16.71404
456.13        16.66816
456.58        16.65583
457.02        16.72095
457.46        16.87188
457.91        17.08764
458.35        17.29671
458.79        17.37946
459.24        17.32566
459.68         17.1602
460.13        16.98217
460.57         16.9038
461.01         16.9677
461.46        17.12867
461.90        17.32171
462.34        17.43774
462.79        17.44336
463.23        17.36499
463.68        17.26357
464.12        17.24589
464.56        17.33899
465.01        17.51855
465.45        17.67568
465.89        17.71582
466.34        17.63679
466.78        17.37823
467.22        17.08411
467.67        17.15828
468.11        17.54973
468.55         17.7344
468.99        17.66376
469.44        17.62079
469.88        17.66855
470.32        17.86346
470.77        18.13079
471.21        18.21621
471.65        18.09117
472.10        17.94282
472.54        17.84203
472.98        17.84122
473.42        17.96347
473.87        18.19603
474.31        18.45264
474.75         18.5938
475.20        18.59481
475.64        18.48962
476.08        18.35916
476.52        18.32662
476.97         18.4214
477.41        18.61068
477.85        18.82211
478.29        18.96513
478.74        19.01447
479.18        18.94541
479.62        18.75665
480.06        18.92868
480.50        19.06874
480.95        19.21482
481.39        19.19995
481.83        19.16851
482.27         19.1174
482.72        18.88921
483.16        18.59875
483.60        18.66899
484.04        19.12071
484.48        19.40344
484.93        19.68641
485.37        20.13145
485.81        20.66954
486.25         20.6103
486.69         27.3181
487.14        21.85175
487.58        14.25642
488.02        17.63859
488.46        19.95818
488.90        20.10885
489.34        20.14873
489.79        19.97259
490.23         20.9751
490.67        21.58409
491.11         21.5375
491.55        21.47692
491.99        21.35254
492.43         21.1945
492.88        21.07858
493.32        21.10535
493.76        21.13778
494.20         21.3247
494.64        21.60438
495.08        21.93666
495.52        22.28556
495.96        22.62441
496.41        22.87691
496.85        23.02032
497.29        23.06516
497.73        22.80364
498.17         22.5139
498.61        22.75208
499.05        23.50806
499.49        23.66273
499.93        23.77719
500.37        23.88933
500.82         23.9432
501.26        24.19046
501.70         24.5121
502.14        24.70399
502.58        24.72413
503.02        24.74204
503.46        24.76329
503.90        24.67176
504.34        24.52644
504.78        24.48238
505.22        24.56454
505.66        24.73538
506.10        24.93345
506.54        25.05132
506.98        25.06186
507.42        25.00288
507.86        24.93874
508.30        24.96824
508.74        25.11094
509.18        25.32535
509.62        25.56027
510.06        25.73367
510.50        25.82135
510.94        25.85836
511.38        25.85812
511.82        25.83958
512.26        25.81758
512.70        25.77966
513.14        25.76511
513.58        25.84125
514.02        26.00436
514.46        26.22748
514.90        26.43359
515.34        26.46614
515.78        26.27384
516.22        26.05254
516.66        25.89312
517.10        25.52241
517.54        24.97318
517.98        25.73612
518.42        25.58688
518.86        25.94118
519.30        26.11421
519.74          26.322
520.18        26.51157
520.62        26.56889
521.06        26.50612
521.50        26.33446
521.93        26.12316
522.37        25.99858
522.81        25.99324
523.25        26.07291
523.69        26.19509
524.13        26.29131
524.57        26.33648
525.01        26.34869
525.45        26.33306
525.89        26.29715
526.32        26.24351
526.76        26.16868
527.20        26.07263
527.64        25.96748
528.08        25.86491
528.52        25.74455
528.96        25.61156
529.40        25.54185
529.83        25.55238
530.27        25.36222
530.71         25.4544
531.15        25.39588
531.59        25.33293
532.03        25.25803
532.46        25.21096
532.90        25.25391
533.34        25.38242
533.78        25.56726
534.22        25.74244
534.66        25.81376
535.09        25.75663
535.53        25.61266
535.97        25.42215
536.41        25.25603
536.85         25.1446
537.28        25.07554
537.72          25.047
538.16        25.05644
538.60         25.0988
539.04        25.15542
539.47        25.22429
539.91        25.36467
540.35        25.54502
540.79        25.65818
541.22        25.69894
541.66        25.76502
542.10        25.85699
542.54        25.90487
542.97        25.94188
543.41        26.06486
543.85        26.27791
544.29        26.56781
544.72        26.84441
545.16        26.97665
545.60        26.94327
546.04        26.78235
546.47        26.63342
546.91        26.72835
547.35        27.09656
547.79        27.66694
548.22        28.25359
548.66        28.54344
549.10        28.48792
549.53        28.22883
549.97        27.94461
550.41        27.84052
550.84        27.98424
551.28        28.32482
551.72        28.76689
552.15        29.13733
552.59          29.373
553.03        29.52294
553.46        29.62041
553.90        29.73966
554.34        29.90337
554.77        30.05075
555.21        30.15603
555.65        30.27522
556.08        30.42056
556.52        30.21839
556.96        30.40176
557.39        30.43499
557.83        30.54539
558.27         30.6903
558.70        30.86907
559.14        31.06361
559.57        31.24739
560.01        31.43654
560.45        31.58578
560.88        31.62387
561.32        31.57107
561.75        31.43697
562.19        31.30783
562.63         31.2734
563.06        31.34997
563.50        31.51539
563.93        31.72491
564.37        31.92155
564.80         32.0716
565.24         32.2035
565.68        32.30809
566.11        32.37507
566.55        32.43137
566.98        32.46835
567.42        32.52862
567.85        32.67348
568.29        32.92954
568.72        33.18634
569.16        33.46458
569.60        33.84348
570.03        34.14282
570.47        34.15522
570.90        34.07633
571.34        33.35939
571.77        33.87421
572.21        34.24742
572.64        34.10257
573.08        33.77523
573.51        32.70017
573.95        34.06344
574.38        36.07238
574.82        35.25863
575.25        35.04391
575.69        33.91163
576.12        33.42941
576.56        33.31619
576.99         33.9547
577.42        35.52702
577.86        35.59842
578.29        35.16526
578.73        36.90313
579.16        33.96811
579.60        31.25619
580.03        32.70843
580.47         34.7142
580.90        35.42896
581.33        34.64186
581.77        34.17876
582.20        37.12836
582.64         36.6152
583.07        31.55327
583.51        30.95241
583.94        30.20734
584.37        31.63453
584.81        32.83023
585.24        34.41846
585.68        35.17483
586.11        34.34885
586.54         31.9656
586.98        31.18707
587.41        31.58127
587.85        32.95333
588.28        33.80056
588.71        32.20066
589.15        31.18661
589.58        31.88118
590.01        32.15553
590.45        32.84798
590.88         32.8675
591.31        32.47617
591.75         32.3355
592.18        32.47478
592.61        33.25438
593.05        33.69154
593.48        35.15265
593.91        35.17934
594.35        32.66083
594.78        32.13631
595.21         32.1346
595.65        33.65702
596.08        34.95538
596.51        33.72812
596.94        32.94148
597.38        33.50105
597.81        35.17854
598.24        35.87105
598.68        35.41235
599.11         35.4049
599.54        37.26065
599.97        37.98494
600.41        36.06519
600.84        36.41158
601.27        37.40092
601.70        37.19269
602.14        37.32638
602.57        37.20571
603.00        38.04801
603.43        39.34661
603.87         40.5676
604.30        40.61486
604.73        39.73514
605.16         39.5544
605.60        40.60578
606.03        41.71637
606.46        42.53333
606.89        42.98411
607.32        42.26566
607.76        42.32379
608.19        44.18285
608.62        43.78925
609.05        43.25303
609.48        43.86045
609.92        44.17796
610.35        44.25904
610.78        46.24654
611.21        46.70046
611.64        45.13016
612.07        45.78063
612.50         46.2202
612.94         46.7633
613.37        46.73806
613.80        47.09474
614.23        47.82442
614.66        48.08402
615.09        48.55154
615.52        48.81515
615.96        48.96335
616.39        49.50957
616.82        48.92629
617.25        49.24403
617.68        49.98218
618.11        50.63628
618.54        50.98979
618.97         50.6422
619.40        49.95747
619.84        50.10282
620.27        51.04875
620.70        51.89679
621.13        52.37985
621.56        52.08494
621.99        51.27997
622.42        51.79718
622.85        53.28429
623.28        53.17768
623.71        52.58803
624.14        52.65622
624.57        52.54017
625.00        52.58076
625.43        52.71454
625.86        52.27937
626.29        52.35064
626.72        52.39681
627.15        52.16431
627.58        51.96469
628.01        51.63509
628.44        51.76229
628.87        51.46992
629.30        51.53331
629.73        51.58941
630.16        51.50818
630.59        51.08489
631.02        50.57853
631.45        50.03211
631.88        49.53674
632.31        49.12912
632.74          48.784
633.17        48.47508
633.60        48.15589
634.03        47.81014
634.46        47.45579
634.89        47.09441
635.32        46.72355
635.75        46.34602
636.18        45.96139
636.61        45.56939
637.04        45.17078
637.47        44.76493
637.89        44.35542
638.32        43.94772
638.75        43.58195
639.18        43.27029
639.61        43.01122
640.04        42.77308
640.47        42.49969
640.90        42.18228
641.33         41.8354
641.76        41.49238
642.18        41.27101
642.61        41.19034
643.04        41.12197
643.47        41.00363
643.90        41.26673
644.33        41.04316
644.76        41.04565
645.18        41.02977
645.61        41.02898
646.04        41.04193
646.47         41.0486
646.90        41.11316
647.33        41.31761
647.75        41.68762
648.18        42.20915
648.61        42.71721
649.04        43.02608
649.47         43.0881
649.89        42.70445
650.32        42.23457
650.75        42.64462
651.18        43.85706
651.61         44.8084
652.03        45.23967
652.46        45.65644
652.89        46.26955
653.32         46.2705
653.74        45.96072
654.17        47.63782
654.60        48.72072
655.03        47.62075
655.46        48.73328
655.88        51.80035
656.31        55.58728
656.74        124.7559
657.16        80.50684
657.59        28.63116
658.02        21.89703
658.45        38.76096
658.87        50.34075
659.30        53.07219
659.73         52.4096
660.15        51.07511
660.58        53.43175
661.01         55.2702
661.44        53.81321
661.86         53.5227
662.29        53.80191
662.72        54.52412
663.14        55.56752
663.57         55.7673
664.00        55.28274
664.42          55.382
664.85        56.12788
665.27        56.68361
665.70        56.89052
666.13        56.99229
666.55        56.97406
666.98         56.7668
667.41        56.50978
667.83        56.47161
668.26        56.71115
668.69        57.11951
669.11        57.52518
669.54        57.92097
669.96        57.71275
670.39         57.4626
670.82        57.17163
671.24        57.05597
671.67        57.24799
672.09        57.77428
672.52        58.38478
672.94        59.06433
673.37        58.72655
673.80        58.57706
674.22        58.44897
674.65        58.45426
675.07        58.61674
675.50         58.7709
675.92        58.90564
676.35        59.10685
676.77        59.36427
677.20        59.59401
677.62        59.78009
678.05        59.91135
678.47        59.96374
678.90        59.98774
679.32        60.03572
679.75        59.96791
680.17         60.0146
680.60         60.4285
681.02         60.4294
681.45        60.50949
681.87        60.42736
682.30        60.23195
682.72        60.04152
683.15        60.08849
683.57        60.43045
684.00        60.87315
684.42        61.45173
684.85        61.73819
685.27        61.71986
685.70        61.49006
686.12        61.18092
686.54        61.03797
686.97        61.11392
687.39        61.35106
687.82        61.64685
688.24         61.8887
688.66        62.01746
689.09        62.05611
689.51        62.06718
689.94        62.24138
690.36        62.41939
690.78        62.71006
691.21        62.99405
691.63        63.18791
692.06        63.26774
692.48        63.26782
692.90        63.25462
693.33        63.30762
693.75        63.45428
694.17        63.69526
694.60        63.96618
695.02        64.13287
695.44        64.16253
695.87        64.24417
696.29        64.43014
696.71        64.43219
697.14         64.3357
697.56        64.79365
697.98        65.62032
698.41          65.464
698.83         65.0157
699.25        64.79042
699.68        65.01245
700.10        65.09836
700.52        65.04992
700.94        65.20832
701.37        65.52634
701.79        65.83177
702.21        66.05878
702.64        66.26687
703.06        66.40978
703.48        66.40382
703.90        66.25815
704.33        65.99833
704.75        65.71853
705.17         65.6531
705.59        65.85992
706.01          66.172
706.44        66.45744
706.86        67.07611
707.28        67.08244
707.70        67.20933
708.12        67.23917
708.55        67.25766
708.97        67.26909
709.39        67.25944
709.81        67.26371
710.23        67.32852
710.66         67.4617
711.08        67.68208
711.50        67.89965
711.92        67.98287
712.34        67.91002
712.76        67.70988
713.19        67.50659
713.61        67.53048
714.03        67.81334
714.45         68.2856
714.87        68.77192
715.29        68.99299
715.71        68.88654
716.13        68.54442
716.56        68.14349
716.98        67.94912
717.40        68.02229
717.82         68.3724
718.24        68.88751
718.66        68.86282
719.08        69.04259
719.50        68.85683
719.92        68.63754
720.34        68.52338
720.76        68.57027
721.19          68.606
721.61        68.80752
722.03        69.00417
722.45         69.2299
722.87        69.48601
723.29         69.7471
723.71        69.96198
724.13        70.10992
724.55         70.1896
724.97        70.21629
725.39        70.22614
725.81        70.23334
726.23        70.23832
726.65        70.23306
727.07        70.19907
727.49        70.14473
727.91        70.09254
728.33        70.07677
728.75        70.15004
729.17        70.31464
729.59        70.53497
730.01        70.78777
730.43        71.02687
730.85        71.23838
731.27        71.46745
731.69        71.64848
732.10        71.65748
732.52        71.48017
732.94        71.18436
733.36        70.96519
733.78         70.9818
734.20        71.26317
734.62        72.12318
735.04        73.21952
735.46        73.11626
735.88        72.09587
736.30         72.1712
736.72        73.34058
737.13        73.77244
737.55        73.25497
737.97        73.28042
738.39        73.81907
738.81         73.3107
739.23        72.14041
739.65        72.79191
740.06        74.83634
740.48        75.00171
740.90        73.41363
741.32        72.80596
741.74        73.40745
742.16        73.76953
742.57        73.90424
742.99         74.6946
743.41        75.89283
743.83        76.43117
744.25        76.26469
744.67        76.08926
745.08        76.07762
745.50         76.0743
745.92         76.1625
746.34        76.50991
746.75        76.99001
747.17        77.25037
747.59        77.25676
748.01        77.12553
748.42        77.01765
748.84        77.20505
749.26        77.75246
749.68         78.4164
750.09        79.05401
750.51         79.7365
750.93        80.25776
751.35        79.96061
751.76        79.08909
752.18        78.78789
752.60        79.07942
753.01        79.14045
753.43        78.98289
753.85        79.15934
754.27        79.67592
754.68        80.45986
755.10        81.09192
755.52        81.62568
755.93        81.92925
756.35         82.1221
756.77        82.27509
757.18        82.29492
757.60        82.21873
758.02        82.42426
758.43        82.63972
758.85        82.16991
759.26        80.59681
759.68        80.55672
760.10        81.54981
760.51        82.63248
760.93        82.41906
761.34        80.89435
761.76        80.88376
762.18        80.20876
762.59        80.04748
763.01        80.26058
763.42        81.84377
763.84        82.66511
764.26        82.85865
764.67        82.90377
765.09        82.82845
765.50        82.67131
765.92        82.36763
766.33        81.18694
766.75         79.6305
767.16         79.2885
767.58        80.28525
768.00        81.85847
768.41        83.65456
768.83        85.03533
769.24        85.43778
769.66        84.92522
770.07        83.84319
770.49        81.79803
770.90        79.58399
771.32        80.52194
771.73        83.82287
772.15         83.7399
772.56        80.64729
772.97        80.04471
773.39        81.87827
773.80        82.49038
774.22        81.66075
774.63        81.49616
775.05        81.96969
775.46        82.20308
775.88        82.10928
776.29        81.92882
776.70        81.75104
777.12        81.75873
777.53        82.00108
777.95        82.35192
778.36        82.66231
778.77        82.67827
779.19        82.38834
779.60        81.87498
780.02        81.35323
780.43         81.2371
780.84        81.66081
781.26        82.06376
781.67        82.39347
782.09         83.4706
782.50        84.77017
782.91        83.85585
783.33        81.57411
783.74        80.83601
784.15        81.84097
784.57        82.61697
784.98        82.84437
785.39        82.87601
785.81        82.70222
786.22        82.39577
786.63        82.19047
787.04        82.27246
787.46        82.68694
787.87        83.46963
788.28        84.34901
788.70        84.75643
789.11         84.5815
789.52        84.03217
789.93        83.36947
790.35        82.94141
790.76         82.8504
791.17        83.03908
791.58        83.38891
792.00        83.60488
792.41        83.59412
792.82        83.58641
793.23        83.68148
793.65        83.40048
794.06        83.06921
794.47        84.18734
794.88        85.89812
795.29         85.9348
795.71        82.96031
796.12        80.76722
796.53        79.58169
796.94        79.10844
797.35        79.52044
797.76        81.05559
798.18        83.01214
798.59        84.22806
799.00        84.29588
799.41        83.08611
799.82        81.77305
800.23        80.86184
800.64        80.79586
801.06        81.16205
801.47        81.83283
801.88        82.48203
802.29        82.94094
802.70        83.34044
803.11        83.62115
803.52         83.6507
803.93        83.44589
804.34        83.00927
804.75        82.50132
805.17        82.33565
805.58        82.65462
805.99        82.94891
806.40        83.11145
806.81        83.96143
807.22        84.92944
807.63        83.79832
808.04        81.23299
808.45        80.20715
808.86        80.97157
809.27        82.02305
809.68         82.8745
810.09        83.31007
810.50        83.11077
810.91          82.378
811.32        81.48377
811.73        81.02139
812.14        81.14543
812.55         81.6472
812.96        82.34451
813.37        82.89061
813.78        83.13828
814.19        83.25249
814.60        83.15517
815.01        82.70585
815.42        81.93605
815.83         80.8444
816.24        79.82238
816.65        79.56794
817.05        80.27291
817.46        81.71466
817.87        83.31364
818.28        84.01064
818.69        83.52226
819.10        82.10239
819.51        80.42848
819.92        79.66138
820.33        80.10442
820.74        81.40931
821.14         82.9337
821.55        83.52798
821.96        82.94624
822.37        81.59314
822.78        80.05628
823.19        79.19508
823.60        79.24094
824.00        79.97243
824.41        80.97739
824.82        81.67526
825.23        81.81383
825.64        81.60071
826.04        81.22963
826.45        80.97701
826.86        80.92366
827.27        80.93382
827.68        80.96314
828.08        80.99834
828.49        80.95618
828.90        80.93771
829.31        80.88721
829.72         80.6808
830.12        80.34564
830.53        79.90306
830.94        79.56671
831.35        79.62551
831.75         80.1595
832.16        81.01437
832.57        81.99297
832.97         82.6644
833.38        82.80804
833.79        82.55228
834.20         82.0957
834.60        81.74516
835.01        81.62151
835.42        81.62331
835.82        81.66908
836.23        81.54196
836.64        81.23582
837.04        80.85947
837.45        80.52076
837.86        80.38184
838.26        80.49263
838.67        80.75075
839.08        81.10303
839.48        81.44737
839.89        81.68734
840.29        81.84637
840.70        81.88472
841.11        81.72954
841.51        81.39315
841.92        80.88469
842.33        80.32991
842.73        79.94685
843.14        79.76997
843.54        79.80763
843.95        79.92315
844.35        79.94957
844.76        79.82256
845.17        79.59314
845.57        79.38117
845.98        79.38223
846.38        79.62894
846.79        80.03417
847.19        80.45068
847.60        80.52935
848.00        80.24105
848.41        79.68188
848.81        79.10838
849.22        78.82738
849.62        78.96895
850.03        79.44959
850.43        80.15945
850.84        80.78542
851.24        81.24054
851.65        81.39835
852.05        81.49841
852.46        81.76315
852.86        82.24228
853.27        82.89629
853.67        83.17291
854.07        82.36246
854.48        80.50445
854.88        77.87966
855.29          75.412
855.69        74.42181
856.10         75.1633
856.50        77.47192
856.90        80.49789
857.31        82.27596
857.71        82.16678
858.12        80.65211
858.52        78.68598
858.92        77.54432
859.33        77.50271
859.73        78.22866
860.13        79.37827
860.54        80.23997
860.94        80.59818
861.34        80.63792
861.75        80.56494
862.15        80.78316
862.55        81.34925
862.96        82.08758
863.36         82.8104
863.76        83.17605
864.17        83.10163
864.57        82.78431
864.97         82.4196
865.38        82.28455
865.78        82.50021
866.18        82.88499
866.58        83.40024
866.99        83.96938
867.39        84.59209
867.79        85.33826
868.19        85.90621
868.60         85.7255
869.00        84.72836
869.40        83.07112
869.80        81.57873
870.21        81.54551
870.61        83.31911
871.01        86.51258
871.41        90.07958
871.81        92.21537
872.22        92.40198
872.62          91.145
873.02        89.40524
873.42        88.79919
873.82        89.60006
874.22        91.17635
874.63        92.94589
875.03        93.67298
875.43         92.8349
875.83        91.49236
876.23        89.54237
876.63        88.92879
877.03        89.87704
877.44         92.6781
877.84         100.762
878.24        100.7521
878.64        100.1941
879.04        98.02921
879.44        94.77377
879.84        93.06879
880.24        95.29002
880.64        97.20064
881.04        99.12589
881.44        100.3142
881.84        99.80726
882.24        98.12418
882.65        96.35928
883.05        95.74061
883.45        96.49073
883.85        98.34325
884.25        100.5924
884.65        101.8732
885.05        101.7458
885.45        100.7186
885.85        99.46268
886.25        98.88132
886.65        99.18414
887.05        100.0286
887.45        101.1573
887.85        102.1211
888.25        102.6928
888.65        103.0447
889.04        103.0845
889.44        102.7075
889.84        101.9458
890.24        100.8103
890.64        99.66767
891.04        99.09496
891.44        99.18951
891.84        99.83711
892.24        100.6146
892.64        100.7269
893.04        100.0504
893.44        98.95438
893.83        97.91676
894.23        97.63793
894.63        98.23291
895.03        99.37854
895.43        100.9422
895.83        102.6609
896.23        104.2767
896.63        105.8342
897.02        106.8069
897.42        106.3639
897.82        104.5082
898.22        101.6036
898.62        98.65574
899.01        97.13639
899.41        97.37083
899.81        98.87162
900.21        100.9511
900.61         102.458
901.00         102.994
901.40        102.8926
901.80        102.3913
902.20        101.8693
902.59        101.4782
902.99        101.0496
903.39         100.578
903.79        100.1029
904.18        99.66953
904.58        99.41109
904.98        99.36871
905.38        99.55162
905.77        99.91567
906.17        100.3892
906.57        100.9425
906.96        101.6023
907.36        102.2599
907.76        102.8815
908.15        103.2563
908.55        102.9428
908.95        101.9396
909.34        100.3739
909.74        98.70614
910.14        97.47251
910.53        96.88428
910.93        96.89717
911.33        97.36668
911.72        98.00387
912.12        98.58195
912.52        99.06931
912.91        99.58685
913.31        100.3612
913.70        101.4819
914.10        102.9079
914.49        104.1777
914.89        104.0571
915.29        102.3055
915.68          99.449
916.08        96.85201
916.47        95.77705
916.87        96.33957
917.26        98.11156
917.66        100.2139
918.05        101.2079
918.45        100.6793
918.84         99.1354
919.24        97.34574
919.64        96.41334
920.03        96.65696
920.42        97.69611
920.82        99.09291
921.21        100.2762
921.61        100.8359
922.00         100.996
922.40        100.7817
922.79        100.1885
923.19        99.32512
923.58        98.19007
923.98        96.91662
924.37        95.91586
924.77        95.55999
925.16        94.84547
925.55        95.62858
925.95        96.73183
926.34        98.59039
926.74        100.8045
927.13        102.8896
927.52        103.8329
927.92        103.5239
928.31        102.2679
928.70        100.4275
929.10        98.64983
929.49        97.16724
929.89        95.87792
930.28        95.12486
930.67        95.46694
931.07        96.81326
931.46        99.05576
931.85        101.3173
932.24        102.2682
932.64        101.6475
933.03        99.71363
933.42        97.03067
933.82        94.96651
934.21        93.98525
934.60        93.76714
934.99        93.97259
935.39        94.20423
935.78        94.38416
936.17        94.59327
936.56        94.55219
936.96        94.67981
937.35        93.32296
937.74        92.11709
938.13        91.25908
938.53        91.47597
938.92        92.75603
939.31        95.01376
939.70        97.62177
940.09        98.80296
940.49        97.92072
940.88         95.6939
941.27         93.2511
941.66        91.93279
942.05        91.94105
942.44        92.81241
942.84        94.18324
943.23         95.5325
943.62        96.49248
944.01        97.20947
944.40        97.59752
944.79        97.50567
945.18        96.91499
945.57        95.75671
945.97        94.16452
946.36        92.74286
946.75        91.90779
947.14        91.62077
947.53        91.74397
947.92        92.05603
948.31         92.4891
948.70        93.13996
949.09        93.90613
949.48        94.48058
949.87        94.70584
950.26        94.56598
950.65        94.29118
951.04        94.30666
951.43         94.6869
951.82        95.28649
952.21        95.80048
952.60        95.74408
952.99        95.01817
953.38        93.82323
953.77        92.48192
954.16        91.42831
954.55        90.79613
954.94         90.5303
955.33        90.42076
955.72        90.10741
956.11        89.51945
956.50        88.75432
956.89        88.20924
957.28        88.56985
957.66        90.03332
958.05        92.13467
958.44        94.21701
958.83        95.31344
959.22        95.20255
959.61        94.12075
960.00        92.58847
960.39         91.4783
960.78        91.05409
961.16        91.11089
961.55        91.24504
961.94        90.78757
962.33        89.61985
962.72        88.09553
963.11        86.63331
963.49        85.71899
963.88        85.42406
964.27        85.59972
964.66        86.05582
965.04         86.4325
965.43        86.47108
965.82        86.33719
966.21        86.18892
966.60        86.25052
966.98         86.5817
967.37        87.02847
967.76        87.47452
968.15        87.69437
968.53        87.60514
968.92        87.26315
969.31        86.79083
969.69        86.30218
970.08        85.86129
970.47        85.47514
970.86        85.10911
971.24        84.72153
971.63        84.30346
972.02        83.86871
972.40        83.64631
972.79        83.96272
973.17         85.0022
973.56        86.59427
973.95        88.26707
974.33        89.07835
974.72        88.68224
975.11        87.29623
975.49        85.78117
975.88        85.41656
976.26        86.37457
976.65        88.44164
977.04        90.57293
977.42        90.27428
977.81        86.84408
978.19        81.45267
978.58        76.60016
978.96        74.81143
979.35        76.41888
979.74        80.85667
980.12         87.0842
980.51        91.39386
980.89        92.43422
981.28        91.15089
981.66         88.8057
982.05        87.08397
982.43        86.37595
982.82        86.07597
983.20        86.33083
983.59        87.55003
983.97        89.81648
984.35        93.26567
984.74        96.93324
985.12        98.79366
985.51         97.6333
985.89        93.86887
986.28        88.81702
986.66        84.78661
987.04        82.85359
987.43        82.52621
987.81        83.05715
988.20        83.55646
988.58        83.77117
988.96        83.90056
989.35        84.34935
989.73        86.25537
990.12        89.29178
990.50        92.50939
990.88         94.1232
991.27        93.23447
991.65        90.27663
992.03        85.59362
992.42        80.75755
992.80        78.59992
993.18        79.91573
993.56        83.07937
993.95        86.51491
994.33        88.85271
994.71        89.73199
995.10        89.93127
995.48        89.31737
995.86        87.46284
996.24        84.38572
996.63         79.8103
997.01        75.01608
997.39        73.72009
997.77        77.40913
998.15        85.08677
998.54        93.28551
998.92        97.40991
999.30        96.10619
999.68        90.55672
1000.06        82.26115
1000.45        75.22643
1000.83        71.49706
1001.21        70.04105
1001.59        70.47563
1001.97        72.39507
1002.35        75.55312
1002.73        80.83474
1003.12        86.96897
1003.50        89.39037
1003.88        85.84514
1004.26        78.21903
1004.64         70.7712
1005.02        67.43696
1005.40        68.64232
1005.78        74.25861
1006.16        84.55649
1006.54        93.60499
1006.92        95.36877
1007.30        92.65565
1007.69        89.43915
1008.07        88.25684
1008.45        89.39562
1008.83         92.8511
1009.21        100.9349
1009.59        116.7189
1009.97        134.3113
1010.35        127.5213
1010.73        94.51396
1011.11        77.71658
1011.49        73.03268
1011.86        73.24208
1012.24        74.33385
1012.62        75.75266
1013.00        77.68783
1013.38        80.43694
1013.76        85.52711
1014.14        95.80119
1014.52        112.5301
1014.90        135.1665
1015.28         157.688
1015.66        167.6053
1016.04        157.0244
1016.41        127.9157
1016.79        92.47101
1017.17        65.00302
1017.55        50.00233
1017.93        42.65341
1018.31        40.52121
1018.69        42.84686
1019.06        49.06243
1019.44        59.90174
1019.82        77.02486
1020.20        96.82073
1020.58        112.7683
1020.95         118.078
1021.33         94.9119
1021.71          416.05
1022.09        146.7478
1022.46        131.9897
1022.84        127.4003
1023.22        127.1802
1023.60        131.5956
1023.97        174.8882
1024.35        105.2195
1024.73          117.87
