SpectraSmart Spectrum 2.9.0.0
--------- Device Information -----------
Spectrum Name :  反射率_0
Saving Time :  2024/04/25 23:40:29
Spectro-Module Model Name : SE2030-DUVN
Spectro-Module Serial Number : OS361AC55029948
Wavelength Start : 200
Wavelength End : 1025
Wavelength Unit : Wavelength(nm)
Spectrum Unit : Reflectance(%)
-----------Spectrum Setting ------------
Integration Time : 20ms
Average : 10
Boxcar : 0
Background removal :  enabled
linearity correction :  enabled
SC :  disabled
Intensity correction :  disabled
DWT denoise :  enabled
savitzky-golay :  disabled
FFT :  disabled
Running average :  disabled
Kalman :  disabled
High pass :  disabled
---------------BEGIN--------------------
Wavelength(nm)             Reflectance(%)
200.29               0
200.75        76.83755
201.21        70.88988
201.67        64.45973
202.13        60.97477
202.58        60.79622
203.04        63.14997
203.50        66.85918
203.96        69.77303
204.42         71.0135
204.88        71.17953
205.34        71.00449
205.80        71.32587
206.26        72.56189
206.72        75.28197
207.18        79.74786
207.64        80.63583
208.10        72.59007
208.55        63.78074
209.01        59.55688
209.47        59.25981
209.93        61.31224
210.39        65.42929
210.85        69.82168
211.31        70.39843
211.77        66.04892
212.23        58.31705
212.69        50.82259
213.14        49.28444
213.60        54.45328
214.06        64.64728
214.52        76.07976
214.98        82.92101
215.44        83.57535
215.90        79.88937
216.36        74.18647
216.81        69.63586
217.27        67.46975
217.73        66.73083
218.19        65.92025
218.65        62.93119
219.11        56.79261
219.57        46.71975
220.02        34.07084
220.48        27.03553
220.94        29.99795
221.40          40.788
221.86        50.96881
222.32        51.80943
222.77        44.47786
223.23        33.88169
223.69        25.02149
224.15        22.97847
224.61        27.16744
225.06         34.9511
225.52        42.88869
225.98        46.68915
226.44        45.53312
226.90        41.31765
227.36        36.16245
227.81        32.86519
228.27        32.41385
228.73        33.65137
229.19        35.80985
229.65        37.79771
230.10        39.15787
230.56        40.20428
231.02        41.05022
231.48        41.76215
231.93        42.37481
232.39        42.84179
232.85        43.08958
233.31        43.08792
233.77        42.82968
234.22        42.30651
234.68        41.69994
235.14        41.28741
235.60        41.19038
236.05        41.42629
236.51        41.72437
236.97        41.61066
237.43         40.9953
237.88        39.95189
238.34        38.91631
238.80        39.18497
239.26        41.28765
239.71        44.92549
240.17        48.90057
240.63        51.51305
241.08        52.30276
241.54        51.73234
242.00        50.41573
242.46        49.08327
242.91        47.88484
243.37        45.67729
243.83        42.93471
244.28        54.25909
244.74        104.1184
245.20        123.2469
245.66        117.8788
246.11        114.5241
246.57        113.7788
247.03        113.4707
247.48        100.5321
247.94        59.36296
248.40        61.35942
248.85         67.1384
249.31          71.553
249.77         75.8801
250.22         81.3298
250.68        89.76295
251.14        100.3286
251.59        103.6199
252.05        92.71114
252.51        73.25578
252.96        55.35406
253.42        47.23996
253.88        47.70972
254.33        53.50252
254.79        62.40368
255.25         70.5341
255.70        76.14563
256.16        80.43191
256.62        82.34875
257.07        80.77094
257.53        76.80433
257.99        70.91625
258.44         65.3185
258.90         63.4483
259.35        64.26424
259.81        66.32003
260.27        67.25079
260.72        64.79192
261.18        59.83551
261.63        53.51148
262.09        47.78194
262.55        44.24624
263.00        42.80359
263.46        42.66645
263.91        42.70897
264.37        42.00668
264.83        40.39419
265.28        38.16605
265.74        35.98536
266.19        34.60283
266.65        34.23883
267.11         34.4464
267.56        34.68571
268.02        34.32774
268.47        33.25648
268.93        31.71563
269.38         29.9856
269.84         28.7588
270.30        28.23712
270.75        28.23577
271.21        28.44777
271.66        28.42048
272.12        28.01671
272.57        27.37707
273.03        26.72902
273.48        26.32718
273.94        26.24703
274.39        26.34485
274.85        26.43192
275.31        26.23746
275.76        25.70476
276.22        24.95948
276.67        24.16979
277.13        23.66317
277.58        23.44772
278.04        23.44092
278.49        23.42608
278.95        23.14925
279.40        22.55358
279.86        21.80297
280.31        21.02676
280.77        20.51852
281.22        20.29989
281.68         20.2866
282.13        20.38054
282.59        20.47484
283.04         20.5223
283.50        20.58456
283.95        20.60883
284.41        20.52995
284.86          20.339
285.32        20.05147
285.77        19.78846
286.22        19.79698
286.68        20.08183
287.13        20.54478
287.59        20.95714
288.04        20.97035
288.50        20.55757
288.95        19.83467
289.41        19.05973
289.86        18.51764
290.32        18.33042
290.77        18.38865
291.22        18.60746
291.68        18.81987
292.13        18.98261
292.59        19.15336
293.04        19.38086
293.50        19.73722
293.95        20.22125
294.40         20.7668
294.86        21.31153
295.31        21.78135
295.77        22.16092
296.22        22.48205
296.68        22.76246
297.13        22.99939
297.58        23.22589
298.04        23.46286
298.49        23.76769
298.95        24.26557
299.40        24.95748
299.85        25.79035
300.31        26.66256
300.76        27.42305
301.21        28.00234
301.67        28.45799
302.12        28.77193
302.58        28.97589
303.03        29.08394
303.48        29.11376
303.94        29.17991
304.39        29.42431
304.84          29.871
305.30        30.46028
305.75        31.04717
306.20        31.41512
306.66        31.53176
307.11        31.45345
307.57        31.28804
308.02        31.12256
308.47        31.02735
308.93         30.9758
309.38        30.98312
309.83        31.10805
310.29        31.33333
310.74        31.62473
311.19         31.9069
311.65        32.05775
312.10        32.04551
312.55        31.91104
313.00        31.66878
313.46         31.3591
313.91        31.01079
314.36         30.6369
314.82        30.33291
315.27        30.22752
315.72        30.34016
316.18        30.62667
316.63        30.96648
317.08        31.13249
317.53        31.05951
317.99        30.79781
318.44        30.45903
318.89        30.22852
319.35        30.14944
319.80        30.17514
320.25         30.2061
320.70        30.08248
321.16        29.77352
321.61        29.34193
322.06        28.89849
322.51        28.60425
322.97        28.48364
323.42        28.49039
323.87         28.5233
324.32        28.41754
324.78        28.12936
325.23        27.72171
325.68        27.27192
326.13        26.90864
326.59        26.66775
327.04        26.52635
327.49        26.44983
327.94        26.38505
328.39        26.30972
328.85        26.23244
329.30         26.1776
329.75        26.14335
330.20        26.12967
330.66        26.11122
331.11        26.09463
331.56        26.04929
332.01        25.96427
332.46        25.83331
332.92        25.67072
333.37        25.53504
333.82        25.43474
334.27        25.37802
334.72         25.3129
335.17         25.1488
335.63        24.87453
336.08         24.5243
336.53         24.2177
336.98         24.1486
337.43        24.34801
337.88         24.7571
338.34        25.18698
338.79        25.37387
339.24        25.22697
339.69        24.82065
340.14        24.34216
340.59        24.12303
341.05        24.23845
341.50        24.57824
341.95        24.96721
342.40        25.15037
342.85        25.06794
343.30         24.8176
343.75        24.47651
344.20        24.17871
344.66        23.98045
345.11        23.80551
345.56        23.68291
346.01        23.65644
346.46        23.70886
346.91        23.84397
347.36        23.92165
347.81        23.71048
348.26        23.19817
348.72        22.49877
349.17        21.80134
349.62         21.5004
350.07        21.68545
350.52        22.21414
350.97        22.90279
351.42        23.46822
351.87        23.80952
352.32        24.00223
352.77        24.04019
353.22        23.91977
353.67        23.66835
354.13        23.28582
354.58        22.87008
355.03        22.62237
355.48        22.58602
355.93        22.72631
356.38        22.91466
356.83        22.93044
357.28        22.72024
357.73        22.34538
358.18        21.93172
358.63        21.67719
359.08        21.62914
359.53        21.72928
359.98        21.84984
360.43        21.79604
360.88        21.52917
361.33        21.11129
361.78        20.69024
362.23        20.50135
362.68        20.58704
363.13        20.85652
363.58         21.1411
364.03        21.18175
364.48         20.9215
364.93         20.4552
365.38        19.91296
365.83        19.50107
366.28        19.28859
366.73        19.21294
367.18        19.23074
367.63        19.27211
368.08        19.29853
368.53        19.32864
368.98        19.34435
369.43        19.30962
369.88        19.22116
370.33        19.08785
370.78        18.91949
371.23        18.74389
371.68        18.57847
372.13        18.41611
372.58         18.3029
373.03        18.31066
373.48        18.44125
373.93        18.66841
374.38        18.89255
374.83        18.95926
375.28        18.83892
375.72        18.56661
376.17        18.25872
376.62        18.06797
377.07        18.03783
377.52        18.11372
377.97        18.23593
378.42        18.30793
378.87        18.29596
379.32        18.23634
379.77        18.13789
380.22        18.00697
380.67        17.85465
381.11        17.67937
381.56        17.50324
382.01        17.37571
382.46        17.30772
382.91        17.28471
383.36        17.28588
383.81        17.27283
384.26        17.23147
384.71        17.17454
385.15        17.08926
385.60        16.96815
386.05        16.80724
386.50        16.60299
386.95        16.39778
387.40        16.26889
387.85        16.23773
388.29        16.28537
388.74        16.35114
389.19        16.33037
389.64        16.20905
390.09        16.00632
390.54        15.81132
390.98        15.77333
391.43        15.92294
391.88         16.1937
392.33        16.44738
392.78        16.48295
393.23          16.281
393.67        15.91782
394.12        15.54926
394.57        15.33379
395.02        15.30631
395.47        15.40799
395.91        15.57723
396.36        15.68297
396.81        15.68168
397.26        15.60155
397.71        15.47641
398.15        15.33809
398.60        15.22725
399.05        15.14195
399.50        15.05379
399.95        14.88142
400.39        14.68676
400.84        14.43642
401.29        14.23265
401.74          14.229
402.18        14.45887
402.63        14.84653
403.08        15.24689
403.53        15.42935
403.97        15.33936
404.42        15.04645
404.87         14.6619
405.32        14.38413
405.76        14.27894
406.21        14.29063
406.66        14.36694
407.11        14.43707
407.55        14.47955
408.00        14.51691
408.45        14.54368
408.90         14.5337
409.34        14.48423
409.79        14.39766
410.24        14.30757
410.68        14.26688
411.13        14.28854
411.58        14.36112
412.03        14.45582
412.47        14.52149
412.92        14.53064
413.37        14.49729
413.81        14.44855
414.26        14.44161
414.71        14.47937
415.15        14.54785
415.60        14.59429
416.05        14.55469
416.49         14.4174
416.94        14.21804
417.39        14.00694
417.83        13.86918
418.28          13.837
418.73        13.87492
419.17        13.95735
419.62          14.037
420.07        14.09622
420.51        14.14633
420.96        14.16451
421.41        14.11048
421.85        13.98034
422.30        13.80769
422.74        13.63082
423.19        13.53695
423.64        13.52867
424.08         13.5907
424.53        13.67755
424.98        13.73701
425.42        13.75541
425.87        13.74081
426.31        13.70044
426.76        13.68843
427.21         13.6916
427.65         13.6018
428.10        13.49394
428.54        13.57167
428.99        13.84674
429.44        14.23182
429.88        14.56299
430.33        14.62934
430.77        14.40027
431.22        13.94769
431.66        13.46755
432.11        13.31057
432.56        13.50888
433.00        13.88701
433.45        14.26395
433.89        14.50558
434.34        14.50205
434.78        14.17283
435.23        13.74969
435.67        13.68702
436.12        13.94205
436.57        14.02462
437.01        13.87984
437.46        13.76641
437.90        13.71109
438.35        13.64501
438.79        13.56915
439.24        13.52236
439.68        13.51514
440.13        13.47954
440.57        13.44156
441.02        13.62417
441.46        13.91717
441.91        13.82599
442.35        13.42277
442.80        13.22464
443.24        13.21223
443.69        13.19195
444.13        13.11312
444.58        12.90039
445.02        12.61661
445.47        12.54651
445.91        12.65762
446.36        12.67071
446.80        12.56735
447.24        12.50739
447.69        12.51441
448.13        12.53813
448.58        12.58248
449.02        12.65693
449.47        12.72134
449.91        12.71121
450.36        12.62059
450.80        12.46369
451.25        12.31054
451.69        12.26089
452.13        12.33523
452.58        12.49032
453.02        12.65867
453.47        12.72906
453.91        12.68009
454.36        12.55258
454.80        12.38968
455.24        12.26498
455.69        12.21227
456.13        12.19908
456.58        12.23612
457.02        12.32117
457.46         12.4502
457.91        12.61815
458.35         12.7802
458.79        12.85465
459.24        12.83569
459.68        12.73124
460.13        12.61407
460.57        12.56436
461.01        12.61511
461.46        12.73428
461.90        12.87081
462.34        12.93131
462.79        12.89294
463.23        12.77881
463.68        12.65576
464.12         12.6355
464.56         12.7445
465.01        12.94818
465.45        13.13955
465.89        13.20981
466.34        13.14995
466.78        12.92771
467.22        12.66413
467.67        12.68071
468.11        12.94671
468.55        13.06954
468.99        13.01173
469.44        12.97805
469.88        13.01222
470.32        13.15605
470.77        13.35345
471.21        13.41592
471.65        13.32055
472.10        13.20947
472.54        13.12521
472.98        13.09695
473.42         13.1438
473.87        13.25918
474.31         13.4039
474.75         13.5093
475.20        13.56024
475.64        13.56769
476.08        13.56027
476.52        13.58175
476.97        13.64444
477.41        13.73982
477.85        13.83535
478.29        13.90684
478.74        13.94993
479.18        13.90209
479.62        13.81131
480.06        13.98719
480.50        14.14735
480.95        14.31412
481.39        14.34847
481.83        14.33303
482.27        14.26691
482.72         14.0522
483.16        13.78177
483.60         13.7906
484.04        14.09948
484.48        14.28041
484.93        14.50333
485.37        14.96759
485.81        15.56724
486.25        15.82239
486.69        20.80124
487.14        16.61009
487.58        10.94409
488.02         13.4925
488.46         15.3269
488.90        15.40392
489.34        15.38994
489.79        15.23475
490.23        16.01246
490.67        16.56272
491.11        16.63811
491.55        16.58909
491.99        16.39095
492.43        16.23301
492.88        16.18821
493.32        16.22802
493.76        16.25493
494.20        16.44658
494.64        16.75658
495.08        17.13058
495.52        17.52308
495.96         17.8878
496.41        18.15648
496.85        18.32192
497.29        18.39358
497.73        18.20591
498.17        17.98703
498.61        18.18707
499.05        18.81146
499.49        18.97944
499.93        19.14091
500.37        19.32444
500.82        19.45923
501.26         19.7103
501.70        19.97408
502.14        20.09616
502.58        20.06886
503.02        20.07349
503.46        20.12446
503.90        20.11233
504.34         20.0642
504.78        20.07338
505.22        20.15192
505.66         20.2834
506.10        20.42595
506.54        20.50496
506.98        20.50584
507.42        20.45368
507.86        20.41101
508.30        20.47553
508.74        20.66189
509.18        20.92941
509.62        21.21166
510.06        21.39994
510.50        21.46505
510.94         21.4493
511.38        21.38511
511.82        21.32318
512.26        21.28757
512.70        21.25834
513.14         21.2637
513.58        21.35099
514.02        21.51008
514.46        21.72051
514.90        21.91142
515.34        21.93375
515.78        21.73549
516.22        21.51487
516.66        21.35972
517.10        20.96714
517.54        20.36822
517.98        21.15343
518.42        20.96038
518.86        21.28932
519.30        21.41685
519.74          21.574
520.18        21.72404
520.62         21.7769
521.06        21.74868
521.50        21.63951
521.93        21.49308
522.37         21.3948
522.81        21.36597
523.25        21.38482
523.69        21.42917
524.13        21.46218
524.57        21.46919
525.01        21.46103
525.45         21.4349
525.89        21.38553
526.32        21.31193
526.76         21.2147
527.20        21.10145
527.64        20.99392
528.08        20.90195
528.52        20.80285
528.96        20.68883
529.40        20.60278
529.83        20.55693
530.27        20.33562
530.71        20.33711
531.15        20.22917
531.59        20.13432
532.03        20.04038
532.46        19.98434
532.90        20.02677
533.34        20.15943
533.78        20.35266
534.22        20.53038
534.66        20.58189
535.09        20.48258
535.53        20.27896
535.97        20.02637
536.41         19.8188
536.85        19.69275
537.28        19.62883
537.72        19.62004
538.16        19.65264
538.60        19.71649
539.04        19.80071
539.47        19.89724
539.91        20.04206
540.35        20.20856
540.79        20.31144
541.22        20.35491
541.66        20.43075
542.10         20.5426
542.54        20.63086
542.97        20.71108
543.41        20.84404
543.85        21.03046
544.29        21.26747
544.72        21.49628
545.16        21.63145
545.60        21.66166
546.04        21.61182
546.47        21.58302
546.91        21.74593
547.35        22.11666
547.79        22.63825
548.22        23.16964
548.66        23.46964
549.10        23.50208
549.53        23.38028
549.97         23.2303
550.41        23.18802
550.84        23.30479
551.28        23.54732
551.72        23.87796
552.15        24.22166
552.59        24.53495
553.03        24.83438
553.46        25.08529
553.90        25.25644
554.34        25.35491
554.77        25.36303
555.21        25.32211
555.65        25.38046
556.08        25.57196
556.52        25.54372
556.96        25.86773
557.39        26.02238
557.83         26.1793
558.27        26.32661
558.70        26.47221
559.14        26.61118
559.57        26.73205
560.01        26.84475
560.45        26.93118
560.88        26.96531
561.32        26.96843
561.75        26.93652
562.19        26.91722
562.63        26.94502
563.06        27.02401
563.50        27.14933
563.93        27.29535
564.37        27.43386
564.80        27.54666
565.24        27.65419
565.68        27.75439
566.11        27.84683
566.55        27.95541
566.98        28.07106
567.42         28.2216
567.85        28.44297
568.29        28.75066
568.72        29.04683
569.16        29.34847
569.60         29.7421
570.03        30.08597
570.47        30.14626
570.90        30.07883
571.34         29.5453
571.77        30.10398
572.21        30.18237
572.64        30.31225
573.08        29.90014
573.51        29.08677
573.95        30.41762
574.38        32.39928
574.82        31.46293
575.25        31.31809
575.69        30.22029
576.12        29.75134
576.56        29.71442
576.99        30.44426
577.42        31.68379
577.86        31.62422
578.29        31.34315
578.73        33.03996
579.16        30.37997
579.60        27.69059
580.03        28.91426
580.47        30.93086
580.90        31.20827
581.33        30.53025
581.77        30.37063
582.20        32.99915
582.64        32.60139
583.07        27.75941
583.51        27.07445
583.94        26.42053
584.37        27.43292
584.81        28.68308
585.24        30.06666
585.68        30.68195
586.11        30.05178
586.54        27.95204
586.98        27.19901
587.41        27.39367
587.85        28.59423
588.28         29.4146
588.71        28.20784
589.15        27.14546
589.58        27.51554
590.01        27.77626
590.45        28.26781
590.88        28.35982
591.31        27.96191
591.75        27.75093
592.18        27.83755
592.61        28.51554
593.05        29.14857
593.48        30.50327
593.91        30.36248
594.35        28.15769
594.78        27.67858
595.21         27.7785
595.65        29.13438
596.08        30.22957
596.51        29.21982
596.94        28.66021
597.38         29.2039
597.81        30.63065
598.24        31.39117
598.68        30.93596
599.11        31.05964
599.54        32.75681
599.97        33.59843
600.41        32.10392
600.84        32.57061
601.27        33.54831
601.70        33.47064
602.14        33.71467
602.57        33.64611
603.00        34.40726
603.43        35.67051
603.87         36.9507
604.30        37.21163
604.73        36.61393
605.16         36.4678
605.60        37.38565
606.03         38.4612
606.46        39.38847
606.89        39.97892
607.32        39.03792
607.76        39.49297
608.19        41.10174
608.62        40.95296
609.05        40.65207
609.48         41.2381
609.92        41.34123
610.35        41.74411
610.78         43.3076
611.21        44.04485
611.64        42.52355
612.07        43.32005
612.50        43.93548
612.94        44.57471
613.37         44.5708
613.80        44.93882
614.23        45.74341
614.66        45.70733
615.09        46.40103
615.52        46.62716
615.96        46.74274
616.39        47.05695
616.82         46.8067
617.25        46.66803
617.68        47.57742
618.11        48.18738
618.54        48.63707
618.97        48.51008
619.40        48.11069
619.84        48.13282
620.27        49.13106
620.70        49.75459
621.13        50.02847
621.56          49.667
621.99        49.02871
622.42        49.69521
622.85        51.29565
623.28        51.11585
623.71        50.68343
624.14        50.54006
624.57        50.31412
625.00        50.25974
625.43        50.17847
625.86        49.71193
626.29        49.81697
626.72        49.89993
627.15        49.69519
627.58        49.62881
628.01        49.52601
628.44         49.4771
628.87        49.29948
629.30        49.17098
629.73         48.9711
630.16        48.80288
630.59        48.25654
631.02        47.61639
631.45        46.87997
631.88        46.28656
632.31        45.87248
632.74        45.57411
633.17        45.27516
633.60        44.94979
634.03        44.54879
634.46        44.09428
634.89        43.60832
635.32        43.12821
635.75        42.66919
636.18        42.21974
636.61        41.76834
637.04        41.29634
637.47        40.79811
637.89        40.28653
638.32        39.77751
638.75        39.32314
639.18        38.94218
639.61         38.6305
640.04        38.35394
640.47        38.05181
640.90        37.71221
641.33         37.3499
641.76         36.9996
642.18        36.77489
642.61        36.69364
643.04        36.63688
643.47        36.53962
643.90        36.77172
644.33        36.55768
644.76        36.54014
645.18         36.5119
645.61        36.51936
646.04        36.56723
646.47        36.63791
646.90         36.7859
647.33        37.06874
647.75         37.5042
648.18        38.10587
648.61        38.72516
649.04        39.12515
649.47        39.27179
649.89        39.14183
650.32        39.03114
650.75        39.51292
651.18        40.55758
651.61        41.70997
652.03        42.66936
652.46        43.10056
652.89        43.32709
653.32        43.60484
653.74        44.08039
654.17        45.74922
654.60        46.46611
655.03         44.8919
655.46        46.58321
655.88        49.56901
656.31        53.89448
656.74        123.9594
657.16        80.70502
657.59        28.31501
658.02        21.55453
658.45        37.61352
658.87        48.93324
659.30         51.8363
659.73        51.54686
660.15        50.12263
660.58        52.41924
661.01        54.16684
661.44          52.845
661.86        52.53193
662.29        52.69054
662.72         53.5481
663.14        54.91294
663.57        55.14307
664.00        54.42355
664.42        54.45823
664.85         55.3217
665.27        55.93826
665.70        56.12836
666.13        56.22245
666.55        56.20411
666.98         55.9768
667.41        55.70519
667.83        55.69853
668.26        56.02094
668.69        56.55719
669.11        57.08575
669.54        57.52145
669.96        57.25955
670.39        56.85617
670.82         56.3832
671.24        56.22525
671.67        56.50219
672.09        57.08553
672.52        57.69832
672.94        58.33546
673.37        57.94691
673.80         57.8252
674.22        57.77804
674.65        57.75805
675.07        57.78281
675.50        57.79084
675.92        57.80557
676.35        57.92031
676.77        58.13788
677.20        58.37204
677.62        58.60284
678.05        58.79624
678.47        58.92463
678.90        59.02054
679.32        59.10867
679.75        59.07627
680.17        59.15652
680.60        59.33239
681.02        59.36868
681.45        59.35295
681.87        59.22844
682.30        59.16626
682.72        59.20054
683.15        59.23552
683.57        59.34114
684.00         59.6242
684.42        60.16627
684.85        60.47534
685.27        60.40192
685.70        60.25573
686.12         60.0776
686.54        60.00506
686.97        60.08496
687.39        60.23696
687.82        60.37044
688.24        60.56495
688.66        60.80406
689.09        60.40373
689.51        60.58905
689.94        60.58989
690.36        60.78285
690.78        61.04053
691.21         61.3152
691.63         61.5835
692.06        61.78212
692.48        61.83094
692.90        61.78392
693.33        61.81832
693.75        61.96126
694.17        62.13308
694.60        62.30579
695.02        62.44567
695.44        62.50452
695.87        62.65861
696.29        62.92344
696.71        62.78434
697.14         62.4347
697.56        63.04861
697.98        64.31888
698.41        64.25009
698.83        63.48543
699.25        62.89275
699.68        62.80392
700.10        62.69539
700.52        62.62038
700.94        62.89566
701.37        63.40157
701.79         63.8434
702.21        64.11329
702.64        64.30018
703.06        64.39253
703.48        64.36493
703.90        64.24165
704.33        64.02435
704.75         63.7918
705.17        63.72868
705.59          63.877
706.01        64.14502
706.44        64.44091
706.86         64.8393
707.28        64.94796
707.70        65.06233
708.12        65.09409
708.55        65.05116
708.97        64.94196
709.39        64.79552
709.81         64.6817
710.23        64.69373
710.66         64.8548
711.08        65.17627
711.50        65.52567
711.92        65.69527
712.34        65.64042
712.76        65.40676
713.19        65.13923
713.61        65.10429
714.03        65.34593
714.45        65.78229
714.87        66.22505
715.29        66.37663
715.71        66.17605
716.13        65.72749
716.56        65.21677
716.98        64.96735
717.40        65.06048
717.82        65.40219
718.24        65.84872
718.66        66.15446
719.08        66.24403
719.50        66.19193
719.92         66.0805
720.34        66.05888
720.76          66.171
721.19        66.25164
721.61        66.46983
722.03          66.641
722.45        66.79819
722.87        66.94974
723.29        67.08569
723.71        67.17892
724.13        67.22264
724.55         67.2213
724.97        67.18732
725.39        67.14709
725.81         67.1132
726.23        67.08621
726.65         67.0735
727.07        67.08051
727.49        67.11285
727.91        67.17941
728.33        67.27082
728.75        67.36919
729.17        67.46176
729.59        67.53515
730.01        67.61548
730.43        67.73772
730.85        67.91019
731.27        68.15301
731.69        68.37269
732.10        68.40022
732.52        68.20567
732.94        67.86889
733.36        67.58643
733.78        67.54773
734.20        67.81686
734.62        68.61687
735.04        69.58787
735.46        69.65414
735.88        68.90063
736.30        68.64439
736.72        70.13973
737.13        70.77528
737.55        70.58453
737.97        70.33508
738.39        70.16421
738.81        69.39004
739.23        68.45811
739.65         69.3575
740.06        71.55792
740.48        71.87454
740.90        70.37445
741.32        69.71301
741.74        70.15641
742.16        70.40128
742.57        70.49529
742.99        71.21169
743.41        72.30112
743.83        72.84808
744.25        72.74715
744.67        72.39838
745.08        72.04681
745.50        71.92328
745.92         72.1422
746.34        72.66601
746.75        73.29414
747.17        73.63995
747.59        73.63665
748.01        73.41102
748.42        73.17434
748.84        73.25703
749.26        73.74108
749.68        74.44717
750.09        75.19469
750.51        75.78716
750.93        76.10019
751.35        75.95583
751.76        75.49808
752.18        75.32099
752.60        75.42123
753.01        75.26287
753.43        74.93342
753.85        75.01134
754.27        75.54862
754.68        76.31213
755.10        77.09142
755.52        77.69091
755.93        77.99931
756.35        77.99478
756.77        77.84626
757.18        77.79862
757.60        77.92869
758.02        78.40517
758.43        78.76278
758.85        78.63757
759.26        76.37065
759.68        76.18975
760.10        78.00381
760.51        78.98406
760.93         77.7939
761.34        77.01952
761.76        76.75552
762.18        76.28126
762.59        75.89256
763.01        76.28438
763.42        77.37857
763.84        78.09219
764.26        78.28446
764.67        78.31311
765.09        78.21664
765.50        78.09691
765.92        77.88341
766.33        76.92102
766.75         75.6219
767.16        75.18575
767.58        75.78159
768.00        77.27164
768.41        79.25638
768.83        80.44877
769.24         80.3846
769.66        79.64632
770.07        78.65913
770.49        77.16296
770.90         75.6882
771.32        76.59379
771.73         79.1818
772.15        78.90768
772.56        76.17709
772.97        75.61387
773.39        77.17147
773.80        77.71081
774.22        77.03397
774.63        76.99004
775.05        77.52296
775.46        77.79059
775.88        77.69307
776.29        77.46243
776.70        77.19419
777.12        77.08719
777.53        77.20139
777.95        77.40894
778.36        77.60711
778.77        77.62064
779.19        77.45638
779.60        77.17782
780.02        76.90958
780.43        76.98355
780.84        77.51415
781.26        77.80358
781.67        77.89756
782.09        79.19035
782.50        80.98772
782.91        79.96516
783.33        76.93027
783.74        75.92412
784.15        77.14839
784.57        78.11221
784.98        78.37958
785.39        78.39024
785.81        78.08842
786.22        77.46186
786.63        76.87804
787.04        76.79281
787.46        77.28452
787.87        78.27612
788.28        79.41154
788.70        80.00034
789.11        79.89198
789.52         79.3438
789.93        78.63287
790.35        78.16468
790.76        78.06274
791.17        78.13891
791.58        78.34136
792.00        78.72211
792.41        79.07906
792.82        79.13577
793.23         79.0118
793.65        78.49913
794.06        78.00539
794.47        79.27368
794.88        81.46729
795.29        81.18267
795.71        78.61361
796.12        76.47686
796.53        75.41507
796.94        74.78208
797.35        74.82035
797.76        76.23495
798.18        78.33662
798.59        79.53058
799.00        79.37486
799.41        78.33463
799.82        76.96986
800.23        76.15632
800.64        76.14196
801.06        76.58066
801.47        77.27454
801.88        77.79661
802.29        77.97291
802.70        77.94874
803.11         77.8297
803.52        77.72669
803.93        77.70468
804.34        77.80045
804.75        77.94498
805.17        77.92361
805.58        77.90282
805.99        78.02847
806.40        78.26808
806.81        79.12623
807.22        80.01437
807.63        78.77306
808.04        76.09641
808.45        75.06545
808.86        75.93557
809.27        77.09515
809.68        78.06857
810.09        78.71912
810.50         78.8017
810.91        78.36581
811.32        77.68381
811.73         77.1667
812.14        76.93441
812.55        76.95867
812.96         77.1751
813.37        77.13551
813.78        76.93173
814.19         77.3998
814.60         78.2157
815.01        78.22586
815.42        77.35446
815.83        76.09901
816.24        74.95673
816.65        74.60873
817.05        75.29134
817.46        76.75707
817.87        78.40577
818.28        79.16207
818.69        78.73872
819.10        77.41718
819.51        75.81419
819.92        75.03872
820.33        75.39494
820.74        76.37617
821.14        77.50159
821.55        78.29652
821.96        78.36562
822.37        77.14533
822.78        75.22122
823.19        74.21101
823.60         74.3648
824.00        74.98676
824.41        75.71555
824.82        76.32804
825.23        76.62119
825.64        76.68461
826.04        76.63535
826.45        76.64003
826.86        76.73974
827.27        76.83128
827.68        76.87663
828.08        76.86459
828.49        76.72766
828.90          76.565
829.31        76.33649
829.72        75.95753
830.12        75.47723
830.53        74.91844
830.94        74.51113
831.35        74.55078
831.75        75.11568
832.16        76.07074
832.57        77.16052
832.97        77.84873
833.38        77.89186
833.79        77.41985
834.20        76.76871
834.60         76.4603
835.01        76.64098
835.42        77.15572
835.82        77.69084
836.23        77.63495
836.64        76.90495
837.04        75.74641
837.45        74.58142
837.86        74.06516
838.26        74.36143
838.67        75.22104
839.08        76.33474
839.48        77.13949
839.89        77.38871
840.29        77.26102
840.70        76.86234
841.11        76.34013
841.51        75.78968
841.92        75.14087
842.33          74.535
842.73        74.22987
843.14         74.2466
843.54        74.58907
843.95        75.03282
844.35        75.23818
844.76        75.10163
845.17        74.72582
845.57        74.30096
845.98         74.1394
846.38        74.30997
846.79        74.68036
847.19        75.12204
847.60        75.32357
848.00        75.23752
848.41        74.95344
848.81        74.60983
849.22        74.33055
849.62        74.21298
850.03        74.21207
850.43        74.37259
850.84        74.68966
851.24        75.17532
851.65        75.65616
852.05        76.18061
852.46        76.65039
852.86        77.02827
853.27        77.35738
853.67        77.29858
854.07        76.46043
854.48        74.92539
854.88        72.85938
855.29        70.93314
855.69        70.09596
856.10        70.51888
856.50        72.11787
856.90         74.2998
857.31        75.66648
857.71        75.78918
858.12        74.97554
858.52        73.84634
858.92        73.24436
859.33        73.35622
859.73        73.94272
860.13        74.82952
860.54        75.64175
860.94        76.25874
861.34        76.75376
861.75         77.0761
862.15        77.23383
862.55        77.21375
862.96        77.00172
863.36        76.71623
863.76        76.54097
864.17        76.53763
864.57        76.70898
864.97        77.03248
865.38        77.45016
865.78         77.9651
866.18        78.51023
866.58        79.00626
866.99        79.31062
867.39        79.43575
867.79        79.42504
868.19         79.2202
868.60         78.7289
869.00         78.0006
869.40        77.10112
869.80        76.47659
870.21        76.77708
870.61        78.18826
871.01        80.50314
871.41        83.03363
871.81        84.59339
872.22        84.85551
872.62        84.11983
873.02         83.0381
873.42        82.84119
873.82        83.63002
874.22        84.73422
874.63        85.81888
875.03        86.22325
875.43        85.62289
875.83        85.17064
876.23        83.49144
876.63        82.79927
877.03        83.03297
877.44        84.40646
877.84        103.8889
878.24        91.33501
878.64        91.35138
879.04        90.99488
879.44        86.41489
879.84        83.96897
880.24        88.09725
880.64        90.13628
881.04        90.83811
881.44        90.98826
881.84        90.10325
882.24        88.42916
882.65        86.93134
883.05        86.47632
883.45        87.20324
883.85        89.12228
884.25        91.48931
884.65        92.70541
885.05        92.31222
885.45        90.86829
885.85        89.19929
886.25        88.43906
886.65        88.82803
887.05        89.96325
887.45          91.438
887.85        92.52797
888.25         92.9386
888.65        92.94661
889.04        92.63371
889.44        92.15717
889.84        91.61598
890.24         90.9256
890.64         90.3381
891.04        90.27081
891.44        90.76599
891.84        91.74704
892.24        92.80238
892.64        93.14916
893.04         92.6502
893.44        91.63426
893.83        90.57269
894.23        90.16409
894.63        90.52627
895.03        91.34512
895.43        92.49471
895.83        93.72082
896.23        94.81519
896.63        95.89025
897.02        96.46162
897.42        95.75523
897.82        93.79032
898.22        90.88664
898.62        88.11673
899.01        87.05684
899.41        87.98031
899.81        90.33839
900.21        93.16014
900.61        94.84639
901.00        94.94965
901.40        93.98299
901.80        92.54868
902.20        91.59439
902.59        91.42056
902.99         91.6982
903.39        92.21778
903.79        92.64408
904.18        92.84334
904.58        93.02284
904.98        93.20762
905.38        93.39909
905.77        93.58453
906.17         93.6822
906.57         93.7513
906.96        93.96692
907.36        94.27036
907.76        94.63403
908.15        94.83901
908.55        94.40616
908.95        93.33227
909.34        91.77319
909.74        90.19733
910.14        89.14921
910.53        88.81612
910.93        89.10327
911.33        89.83942
911.72        90.69961
912.12        91.41624
912.52        91.97264
912.91        92.42417
913.31        92.87484
913.70        93.39811
914.10        93.95377
914.49        94.25049
914.89        93.62386
915.29        92.03994
915.68        89.83006
916.08        87.96157
916.47         87.2606
916.87        87.76836
917.26        89.22688
917.66        90.86329
918.05        91.42482
918.45        90.60506
918.84        88.85542
919.24        87.00732
919.64        86.27905
920.03        86.98265
920.42        88.70493
920.82        90.87108
921.21        92.59775
921.61        93.35899
922.00        93.46529
922.40        93.00481
922.79        92.11089
923.19        90.97666
923.58        89.44249
923.98         87.7072
924.37        86.75401
924.77        87.08916
925.16        85.96289
925.55        87.97789
925.95        89.21886
926.34        90.89761
926.74        92.64569
927.13         94.2152
927.52        94.91364
927.92        94.67608
928.31        93.72575
928.70         92.2462
929.10        90.60799
929.49        88.96494
929.89         87.3118
930.28        86.11717
930.67        86.14327
931.07        87.37978
931.46        89.67884
931.85        92.06993
932.24        93.08302
932.64         92.4183
933.03        90.32761
933.42        87.52428
933.82        85.62955
934.21        85.12298
934.60        85.56197
934.99        86.25838
935.39        86.52132
935.78        86.24718
936.17        85.26751
936.56        83.38271
936.96        84.06231
937.35        82.63316
937.74        82.91727
938.13        83.37086
938.53        84.27094
938.92        85.63027
939.31        87.54701
939.70        89.53009
940.09        90.10361
940.49        88.85614
940.88         86.4554
941.27        83.97093
941.66        82.65398
942.05        82.67033
942.44         83.5847
942.84        85.10038
943.23        86.75903
943.62        88.17367
944.01        89.42749
944.40        90.23969
944.79        90.18161
945.18        89.15813
945.57        87.12302
945.97        84.44246
946.36        82.29317
946.75        81.39028
947.14        81.52208
947.53        82.21053
947.92        82.87675
948.31        83.41546
948.70         84.0191
949.09        84.72576
949.48        85.50504
949.87        86.24126
950.26        86.74062
950.65        86.98264
951.04        87.05682
951.43        86.97654
951.82        86.75168
952.21        86.21759
952.60        85.13564
952.99        83.55734
953.38         81.6326
953.77        79.83331
954.16        78.80254
954.55        78.65508
954.94        79.28512
955.33        80.13434
955.72        80.23882
956.11        79.38079
956.50        77.79465
956.89        76.26785
957.28        76.25116
957.66        78.17185
958.05        81.29532
958.44         84.6011
958.83        86.60259
959.22        86.90804
959.61        85.89716
960.00        84.16775
960.39        82.70572
960.78        81.85296
961.16        81.38769
961.55        80.95193
961.94        79.97069
962.33        78.41009
962.72        76.66268
963.11        75.21944
963.49        74.64293
963.88        74.99676
964.27         76.1062
964.66        77.62579
965.04        78.79238
965.43        79.14352
965.82        78.91421
966.21        78.41148
966.60        78.08057
966.98        78.06217
967.37        78.16132
967.76        78.32294
968.15        78.44704
968.53        78.47198
968.92        78.39783
969.31        78.25883
969.69        78.04021
970.08        77.74579
970.47        77.39849
970.86        76.89464
971.24        76.07464
971.63        74.94479
972.02        73.57377
972.40        72.32807
972.79        71.82926
973.17        72.36263
973.56        73.72484
973.95        75.50076
974.33        76.79185
974.72        77.13873
975.11        76.67619
975.49        75.92995
975.88        75.75327
976.26        76.28756
976.65        77.40136
977.04        78.36388
977.42        77.53225
977.81        74.57639
978.19        70.32547
978.58        66.79385
978.96        65.98077
979.35        68.13574
979.74        72.87991
980.12         79.1188
980.51        83.10233
980.89        83.52875
981.28        81.36533
981.66        78.22876
982.05         76.2108
982.43        75.73071
982.82        76.07134
983.20        77.00704
983.59        78.33064
983.97        79.98157
984.35        82.16762
984.74        84.37857
985.12        85.63333
985.51        85.20494
985.89        83.13173
986.28         79.9945
986.66        76.80268
987.04        74.33346
987.43        72.64385
987.81        71.44006
988.20        70.13047
988.58         68.3746
988.96        65.86897
989.35        63.21788
989.73        63.14507
990.12        67.06605
990.50        73.50275
990.88        78.73164
991.27        80.21593
991.65        78.54823
992.03        74.46435
992.42        69.93425
992.80         68.4134
993.18         70.7522
993.56        74.96259
993.95        79.20628
994.33        81.90557
994.71        82.71069
995.10        82.56586
995.48        81.48228
995.86        79.20723
996.24        75.79898
996.63        70.90039
997.01        65.73354
997.39        64.02064
997.77        67.26863
998.15         74.6003
998.54        82.38033
998.92        85.65208
999.30        82.98468
999.68        75.58015
1000.06        65.45773
1000.45        57.79043
1000.83        54.86941
1001.21        55.11258
1001.59        57.23782
1001.97        59.85565
1002.35         62.5414
1002.73        66.32874
1003.12        70.13569
1003.50        70.31651
1003.88        65.63216
1004.26        57.90839
1004.64        50.91534
1005.02        47.95816
1005.40        49.34322
1005.78        55.11141
1006.16        65.91658
1006.54        76.43552
1006.92        79.98058
1007.30        78.39429
1007.69        75.43201
1008.07        73.75319
1008.45        73.36584
1008.83        73.38033
1009.21         72.4308
1009.59        62.63762
1009.97        21.40882
1010.35       -50.50743
1010.73       -53.42033
1011.11       -16.94973
1011.49         12.6296
1011.86        35.04233
1012.24        48.32248
1012.62         54.9948
1013.00        58.01832
1013.38        58.79726
1013.76        59.69682
1014.14        66.86011
1014.52        84.71442
1014.90        114.1639
1015.28        146.6123
1015.66        160.1321
1016.04        142.3125
1016.41        98.55295
1016.79         52.5883
1017.17        29.17929
1017.55        26.44716
1017.93        31.83261
1018.31        39.31736
1018.69        46.33867
1019.06        53.36588
1019.44        62.44221
1019.82        75.53271
1020.20        91.68552
1020.58        108.3134
1020.95        121.4486
1021.33        124.5942
1021.71        69.19897
1022.09        107.1186
1022.46        109.6032
1022.84        111.1992
1023.22        115.5929
1023.60        128.2704
1023.97        246.1135
1024.35        47.14936
1024.73        69.07434
