SpectraSmart Spectrum 2.9.0.0
--------- Device Information -----------
Spectrum Name :  反射率_0
Saving Time :  2024/04/26 00:53:43
Spectro-Module Model Name : SE2030-DUVN
Spectro-Module Serial Number : OS361AC55029948
Wavelength Start : 200
Wavelength End : 1025
Wavelength Unit : Wavelength(nm)
Spectrum Unit : Reflectance(%)
-----------Spectrum Setting ------------
Integration Time : 20ms
Average : 10
Boxcar : 0
Background removal :  enabled
linearity correction :  enabled
SC :  disabled
Intensity correction :  disabled
DWT denoise :  enabled
savitzky-golay :  disabled
FFT :  disabled
Running average :  disabled
Kalman :  disabled
High pass :  disabled
---------------BEGIN--------------------
Wavelength(nm)             Reflectance(%)
200.29               0
200.75        81.75924
201.21        78.38528
201.67        74.16563
202.13        71.06076
202.58         69.3306
203.04        68.93678
203.50        68.97231
203.96        68.04797
204.42        66.15507
204.88        63.94214
205.34        62.37668
205.80        62.48655
206.26        64.83335
206.72        71.00545
207.18        83.87322
207.64        96.92737
208.10        92.52803
208.55        78.72604
209.01         69.3956
209.47        66.43433
209.93        67.30138
210.39        70.64872
210.85        74.22944
211.31        73.42522
211.77        67.15923
212.23        57.46889
212.69        48.45464
213.14         46.3524
213.60        52.03059
214.06        63.66262
214.52        77.03426
214.98        85.61848
215.44        87.57243
215.90        84.87878
216.36        79.99149
216.81        76.28354
217.27        75.01618
217.73        75.06239
218.19        75.03027
218.65        73.06883
219.11        68.35728
219.57        60.31519
220.02        50.09209
220.48        44.45473
220.94        46.92623
221.40        55.72351
221.86        63.61163
222.32        63.16392
222.77        55.47223
223.23        44.92374
223.69        36.12071
224.15        33.74432
224.61        37.20595
225.06        44.15022
225.52         51.0919
225.98        53.64001
226.44        51.09837
226.90        45.40802
227.36        39.20916
227.81        36.05165
228.27        36.91561
228.73         40.2777
229.19        44.55222
229.65         47.4264
230.10        48.30751
230.56        48.12297
231.02         47.5748
231.48        47.39938
231.93        47.71978
232.39         48.2314
232.85        48.73404
233.31        49.04659
233.77        49.07794
234.22        48.89242
234.68        48.57576
235.14          48.195
235.60        47.84164
236.05        47.61541
236.51        47.38064
236.97        46.85786
237.43         46.0185
237.88        44.90717
238.34        44.08965
238.80        45.11993
239.26        48.59319
239.71        54.21082
240.17        60.26373
240.63        64.22193
241.08        65.35993
241.54        64.12204
242.00        61.88741
242.46        60.67178
242.91        61.38992
243.37          64.506
243.83        75.21301
244.28        109.4285
244.74        145.8038
245.20         125.411
245.66        105.9873
246.11        97.86412
246.57        93.96848
247.03        88.94376
247.48        74.92936
247.94        71.08955
248.40        82.67481
248.85        87.44888
249.31        90.11754
249.77        92.15459
250.22        94.42801
250.68        97.54726
251.14        100.8526
251.59        100.1982
252.05        93.25927
252.51        83.15824
252.96         74.2696
253.42        70.17026
253.88        69.90263
254.33        72.01399
254.79        75.82493
255.25        79.67359
255.70        82.58033
256.16        84.97085
256.62        85.83769
257.07        84.12395
257.53        80.66599
257.99        75.83729
258.44        71.07823
258.90        68.97579
259.35        68.66717
259.81        69.22302
260.27          69.013
260.72        66.46717
261.18        62.27858
261.63        57.11419
262.09        52.36852
262.55         48.9849
263.00        46.94564
263.46        45.88413
263.91        45.07597
264.37        44.01722
264.83        42.52767
265.28        40.70839
265.74        39.00999
266.19         37.8492
266.65        37.40581
267.11        37.39186
267.56        37.40152
268.02        36.96315
268.47        35.97093
268.93        34.58954
269.38        33.06874
269.84        32.05214
270.30        31.69646
270.75        31.82914
271.21        32.07786
271.66        31.88495
272.12        31.12667
272.57        30.00165
273.03        28.86795
273.48        28.17539
273.94        28.04614
274.39        28.26897
274.85        28.59375
275.31         28.6477
275.76        28.32905
276.22        27.79307
276.67         27.1678
277.13        26.72939
277.58        26.48764
278.04        26.37805
278.49        26.25927
278.95        26.00166
279.40        25.55455
279.86        25.03734
280.31        24.49396
280.77        24.09595
281.22        23.83407
281.68        23.67309
282.13        23.56415
282.59        23.47805
283.04        23.38539
283.50        23.33015
283.95        23.24196
284.41        23.03444
284.86        22.69827
285.32        22.27307
285.77        21.89405
286.22         21.8272
286.68        22.07975
287.13        22.53555
287.59        22.96645
288.04        23.02254
288.50        22.66946
288.95        22.01874
289.41        21.29508
289.86        20.73049
290.32        20.44705
290.77        20.35233
291.22         20.4173
291.68        20.56069
292.13        20.75171
292.59        21.01735
293.04        21.35166
293.50        21.74075
293.95        22.15992
294.40        22.57201
294.86        22.94781
295.31        23.26201
295.77        23.51782
296.22        23.73408
296.68         23.9211
297.13        24.06726
297.58         24.2007
298.04        24.34419
298.49        24.56284
298.95        24.98974
299.40        25.62429
299.85        26.41356
300.31        27.22867
300.76        27.87653
301.21        28.29131
301.67        28.55321
302.12        28.69838
302.58        28.83811
303.03        28.99251
303.48         29.1402
303.94        29.34488
304.39        29.67136
304.84        30.12044
305.30        30.65911
305.75        31.14942
306.20        31.38708
306.66         31.3582
307.11        31.12271
307.57        30.82574
308.02        30.61117
308.47        30.55364
308.93        30.60561
309.38        30.74405
309.83        30.96171
310.29        31.22339
310.74        31.51806
311.19         31.7778
311.65        31.89524
312.10         31.8478
312.55        31.66395
313.00         31.3905
313.46        31.12281
313.91        30.89212
314.36        30.69525
314.82        30.55695
315.27        30.49556
315.72        30.51421
316.18        30.60521
316.63        30.72932
317.08        30.79543
317.53        30.77407
317.99        30.67282
318.44        30.53745
318.89        30.44857
319.35        30.41711
319.80          30.427
320.25        30.41014
320.70        30.25917
321.16        29.96149
321.61        29.55983
322.06        29.14952
322.51        28.87181
322.97        28.74761
323.42        28.74437
323.87          28.774
324.32        28.68923
324.78        28.45069
325.23        28.11207
325.68        27.74313
326.13        27.46184
326.59        27.29829
327.04        27.23298
327.49        27.22371
327.94        27.20544
328.39        27.15627
328.85        27.08833
329.30        27.04548
329.75        27.05807
330.20         27.1334
330.66        27.23552
331.11         27.3528
331.56        27.42513
332.01        27.43265
332.46        27.37641
332.92        27.27415
333.37        27.19466
333.82        27.14792
334.27        27.13596
334.72        27.10724
335.17        26.97444
335.63        26.72702
336.08        26.40193
336.53        26.11499
336.98        26.05322
337.43        26.24755
337.88        26.64163
338.34        27.05595
338.79        27.24297
339.24        27.11565
339.69        26.74627
340.14        26.30902
340.59        26.11149
341.05        26.22482
341.50        26.54706
341.95        26.92146
342.40        27.12132
342.85        27.09193
343.30        26.91952
343.75        26.66504
344.20        26.43452
344.66        26.27239
345.11        26.10897
345.56        25.97886
346.01        25.93385
346.46        25.96503
346.91        26.08058
347.36        26.14324
347.81        25.92736
348.26        25.42125
348.72        24.73107
349.17        24.06153
349.62        23.82862
350.07        24.11942
350.52        24.78711
350.97        25.59183
351.42        26.16701
351.87        26.40263
352.32        26.39726
352.77        26.23697
353.22        26.06461
353.67        25.93559
354.13        25.80756
354.58        25.66427
355.03        25.52623
355.48        25.39647
355.93        25.29364
356.38        25.20804
356.83        25.10699
357.28        24.98056
357.73        24.83164
358.18        24.66898
358.63        24.50844
359.08        24.35722
359.53         24.2181
359.98        24.07819
360.43        23.91723
360.88        23.73573
361.33        23.53842
361.78        23.36538
362.23        23.28187
362.68        23.28851
363.13        23.34998
363.58        23.39755
364.03        23.32541
364.48        23.11202
364.93        22.80086
365.38        22.43444
365.83         22.0811
366.28        21.77588
366.73        21.50444
367.18        21.30007
367.63        21.21565
368.08        21.24603
368.53        21.36692
368.98         21.5041
369.43        21.53644
369.88        21.43841
370.33        21.25169
370.78        21.01388
371.23        20.79655
371.68        20.63153
372.13        20.48881
372.58        20.41278
373.03        20.47544
373.48        20.67025
373.93        20.97297
374.38         21.2509
374.83        21.29832
375.28        21.07942
375.72        20.64192
376.17        20.15692
376.62         19.8678
377.07        19.84201
377.52         20.0065
377.97        20.23866
378.42        20.33925
378.87        20.25352
379.32        20.04852
379.77        19.80768
380.22        19.64621
380.67        19.59009
381.11        19.59955
381.56        19.61122
382.01        19.53572
382.46        19.35508
382.91        19.10585
383.36         18.8582
383.81        18.71848
384.26        18.70935
384.71        18.79286
385.15        18.89203
385.60        18.90821
386.05        18.81056
386.50        18.62647
386.95        18.41253
387.40        18.26904
387.85        18.22679
388.29        18.24853
388.74        18.28787
389.19        18.25652
389.64        18.14016
390.09        17.95922
390.54        17.77745
390.98        17.69841
391.43        17.75136
391.88        17.89205
392.33        18.02872
392.78        18.02723
393.23        17.87549
393.67        17.61886
394.12        17.37553
394.57        17.25017
395.02        17.26422
395.47        17.37279
395.91        17.52643
396.36        17.61291
396.81        17.59946
397.26        17.50984
397.71        17.37342
398.15        17.21633
398.60        17.08108
399.05        16.96707
399.50        16.86105
399.95        16.69576
400.39         16.5421
400.84        16.35884
401.29        16.21906
401.74        16.21905
402.18        16.38338
402.63        16.65574
403.08        16.94834
403.53        17.11989
403.97        17.13193
404.42        17.02065
404.87        16.84257
405.32        16.70057
405.76        16.62937
406.21        16.60707
406.66        16.60753
407.11        16.59779
407.55         16.5717
408.00        16.53532
408.45        16.50029
408.90        16.47544
409.34         16.4619
409.79        16.45389
410.24        16.44449
410.68        16.42389
411.13        16.39588
411.58        16.36818
412.03        16.34483
412.47        16.33778
412.92        16.34099
413.37        16.34808
413.81        16.37057
414.26        16.44363
414.71        16.55586
415.15        16.69597
415.60        16.79822
416.05        16.77637
416.49        16.61686
416.94        16.36318
417.39        16.07739
417.83        15.86838
418.28        15.78073
418.73        15.77458
419.17        15.83867
419.62        15.94555
420.07        16.07525
420.51        16.23502
420.96        16.36362
421.41        16.35433
421.85        16.19053
422.30         15.9301
422.74         15.6586
423.19        15.53529
423.64        15.57469
424.08        15.74044
424.53        15.95252
424.98        16.09742
425.42         16.1395
425.87        16.10254
426.31        16.01624
426.76         15.9757
427.21        15.97733
427.65        15.88465
428.10        15.77208
428.54        15.86737
428.99        16.18212
429.44        16.59905
429.88        16.93992
430.33         17.0319
430.77         16.8138
431.22        16.24772
431.66        15.58825
432.11        15.37237
432.56        15.64415
433.00        16.13252
433.45        16.61105
433.89        16.92263
434.34        16.93244
434.78        16.55008
435.23        16.05736
435.67        16.00367
436.12        16.34538
436.57        16.50315
437.01        16.41304
437.46        16.38074
437.90        16.43081
438.35        16.47376
438.79        16.48775
439.24        16.48587
439.68        16.47667
440.13        16.39037
440.57         16.2794
441.02        16.44841
441.46         16.7779
441.91        16.66705
442.35        16.20298
442.80        16.00272
443.24        16.04331
443.69        16.09115
444.13         16.0787
444.58        15.89804
445.02        15.61543
445.47        15.57523
445.91        15.74066
446.36         15.7699
446.80         15.6417
447.24        15.55993
447.69        15.53876
448.13        15.49394
448.58        15.43444
449.02        15.38568
449.47         15.3465
449.91        15.31306
450.36        15.29016
450.80        15.26978
451.25        15.27735
451.69        15.34044
452.13        15.45977
452.58        15.61192
453.02        15.75322
453.47        15.81454
453.91        15.78568
454.36        15.69126
454.80        15.56504
455.24        15.46564
455.69        15.42095
456.13        15.40396
456.58        15.42641
457.02        15.48061
457.46        15.56541
457.91          15.678
458.35        15.78016
458.79        15.80283
459.24        15.74738
459.68        15.62252
460.13        15.49887
460.57        15.44778
461.01        15.50197
461.46        15.62995
461.90        15.78887
462.34        15.90231
462.79         15.9442
463.23        15.92681
463.68        15.89151
464.12        15.91049
464.56        16.00081
465.01        16.15004
465.45        16.26383
465.89        16.26219
466.34        16.14715
466.78        15.86076
467.22        15.54596
467.67         15.5881
468.11        15.94317
468.55        16.13316
468.99        16.09229
469.44         16.0416
469.88          16.032
470.32        16.12434
470.77        16.27751
471.21        16.30839
471.65        16.20238
472.10        16.11439
472.54        16.07808
472.98        16.09539
473.42        16.17594
473.87        16.32109
474.31        16.48233
474.75        16.57723
475.20        16.59265
475.64        16.54558
476.08        16.47802
476.52        16.45516
476.97        16.49564
477.41        16.58271
477.85        16.68557
478.29        16.78687
478.74        16.87811
479.18        16.88078
479.62        16.81929
480.06        17.01689
480.50        17.12686
480.95         17.2005
481.39        17.11823
481.83        17.05063
482.27        17.00531
482.72         16.8334
483.16        16.61663
483.60        16.69433
484.04        17.06998
484.48        17.29241
484.93        17.52713
485.37        17.87662
485.81        18.32147
486.25        18.46427
486.69        24.50632
487.14        19.79371
487.58        12.73087
488.02        15.72059
488.46        17.84288
488.90        18.00965
489.34        18.11322
489.79        17.93647
490.23        18.77158
490.67        19.18598
491.11        19.01674
491.55        19.02181
491.99        19.11204
492.43        19.04349
492.88        18.86009
493.32        18.81264
493.76        18.81342
494.20        18.97472
494.64        19.25081
495.08        19.60937
495.52          19.992
495.96         20.3326
496.41        20.55338
496.85        20.64863
497.29        20.64605
497.73        20.38792
498.17        20.13359
498.61        20.37562
499.05         21.1001
499.49        21.28648
499.93        21.43027
500.37        21.57219
500.82        21.65791
501.26        21.90913
501.70        22.21703
502.14        22.39475
502.58        22.40984
503.02        22.42696
503.46        22.45337
503.90        22.38238
504.34        22.25785
504.78        22.20425
505.22        22.24283
505.66         22.3465
506.10        22.47555
506.54        22.55937
506.98        22.57943
507.42        22.55972
507.86         22.5447
508.30         22.6016
508.74         22.7418
509.18         22.9369
509.62        23.14073
510.06        23.27983
510.50        23.33591
510.94        23.33801
511.38        23.31481
511.82         23.3109
512.26         23.3413
512.70        23.38529
513.14        23.44736
513.58        23.53605
514.02         23.6363
514.46        23.74175
514.90        23.81408
515.34        23.75686
515.78        23.53454
516.22        23.33037
516.66        23.21748
517.10         22.8762
517.54        22.32752
517.98        23.12845
518.42         22.9754
518.86        23.33193
519.30        23.49098
519.74        23.67048
520.18        23.83258
520.62        23.88923
521.06        23.85703
521.50        23.74136
521.93         23.5816
522.37        23.45485
522.81        23.38548
523.25        23.35621
523.69        23.36634
524.13        23.41126
524.57         23.4786
525.01         23.5662
525.45        23.63992
525.89        23.64336
526.32        23.56284
526.76         23.4158
527.20        23.23385
527.64        23.07803
528.08        22.97211
528.52        22.88054
528.96        22.78947
529.40         22.7382
529.83        22.73433
530.27        22.54033
530.71        22.59261
531.15        22.51504
531.59        22.44093
532.03        22.35749
532.46        22.30394
532.90        22.34484
533.34        22.47486
533.78        22.66542
534.22        22.84303
534.66        22.90072
535.09        22.81387
535.53        22.62774
535.97        22.39631
536.41        22.21179
536.85        22.10818
537.28        22.06545
537.72         22.0702
538.16        22.09925
538.60        22.14284
539.04        22.19382
539.47        22.25349
539.91        22.37882
540.35        22.54329
540.79        22.64519
541.22        22.68953
541.66        22.77736
542.10        22.91042
542.54        23.02676
542.97        23.12541
543.41        23.24494
543.85        23.38289
544.29        23.54082
544.72        23.69244
545.16        23.80107
545.60         23.8603
546.04        23.89048
546.47        23.94587
546.91        24.09089
547.35         24.3441
547.79        24.74935
548.22        25.18945
548.66        25.39925
549.10        25.35544
549.53        25.19641
549.97        25.04759
550.41         25.0215
550.84        25.16308
551.28         25.4507
551.72        25.81929
552.15        26.14597
552.59        26.38258
553.03        26.55812
553.46        26.68873
553.90         26.8225
554.34        26.97725
554.77        27.10827
555.21        27.20003
555.65        27.31292
556.08        27.46134
556.52        27.30223
556.96        27.49981
557.39        27.57491
557.83        27.73009
558.27        27.92391
558.70        28.13999
559.14        28.33478
559.57        28.48028
560.01        28.60206
560.45        28.67701
560.88        28.66613
561.32        28.59546
561.75        28.47132
562.19         28.3625
562.63        28.32113
563.06        28.36481
563.50        28.51088
563.93        28.71118
564.37        28.87585
564.80        28.97424
565.24        29.05021
565.68         29.1154
566.11        29.18356
566.55        29.28316
566.98         29.4004
567.42        29.54582
567.85        29.72899
568.29        29.96879
568.72        30.17504
569.16        30.37952
569.60        30.75155
570.03        31.15446
570.47        31.20666
570.90        31.03443
571.34        30.76693
571.77        31.11287
572.21        31.24199
572.64        31.40592
573.08        30.82902
573.51        29.72646
573.95        31.03241
574.38        33.22071
574.82        32.42293
575.25        32.11404
575.69        31.11761
576.12        30.76299
576.56        30.56135
576.99        30.85071
577.42        32.43993
577.86        32.45414
578.29        32.38133
578.73        34.05188
579.16        31.27629
579.60        28.52237
580.03        29.71674
580.47        31.62035
580.90         32.3335
581.33         31.4351
581.77         31.2545
582.20        34.04687
582.64        33.53782
583.07        28.67534
583.51        28.05074
583.94        27.48215
584.37        28.66139
584.81        29.83871
585.24        31.24094
585.68        31.87644
586.11        31.23793
586.54         29.0114
586.98        28.25261
587.41        28.50847
587.85        29.76344
588.28        30.79458
588.71        29.34262
589.15        28.33953
589.58        28.85644
590.01        29.23859
590.45        29.47928
590.88        29.87311
591.31        29.56201
591.75        29.48299
592.18        29.50385
592.61        29.97316
593.05         30.5662
593.48        31.65991
593.91        31.93518
594.35        29.38455
594.78        28.97952
595.21         29.1328
595.65        30.51088
596.08        31.52435
596.51        30.38256
596.94        29.79671
597.38        30.30959
597.81        31.66903
598.24        32.68928
598.68        32.32107
599.11        32.19928
599.54        33.56139
599.97         34.3994
600.41        32.98177
600.84        33.46043
601.27        34.26531
601.70        34.05647
602.14         34.2734
602.57        34.11776
603.00        34.81014
603.43        36.22354
603.87        37.36721
604.30        37.55547
604.73        36.82946
605.16         36.4842
605.60        37.49825
606.03        38.64024
606.46        39.67703
606.89        40.14791
607.32        39.29972
607.76        39.45068
608.19        41.11321
608.62        40.75896
609.05          40.251
609.48        40.74056
609.92        40.87362
610.35         41.4619
610.78        43.08028
611.21        43.77136
611.64        42.13996
612.07        42.77132
612.50        43.26249
612.94        43.77745
613.37        43.67536
613.80        44.28806
614.23        44.94387
614.66        45.17863
615.09        45.47543
615.52        45.69594
615.96        45.90278
616.39        46.36821
616.82        45.78897
617.25        45.83477
617.68        46.55197
618.11         47.1641
618.54        47.60199
618.97        47.43774
619.40        46.95169
619.84        47.18512
620.27        48.08824
620.70        48.75877
621.13        49.03028
621.56        48.79187
621.99        48.25466
622.42        48.76643
622.85        50.01116
623.28        49.68188
623.71        49.54121
624.14        49.26667
624.57        49.15677
625.00        49.10713
625.43        49.09043
625.86        48.70522
626.29        48.88125
626.72        48.92115
627.15        48.59769
627.58         48.6396
628.01         48.8398
628.44        48.76164
628.87        48.42957
629.30        48.33688
629.73        48.42611
630.16        48.22788
630.59         47.7255
631.02        47.17142
631.45        46.64967
631.88        46.18475
632.31        45.80061
632.74        45.52462
633.17        45.24275
633.60        44.95115
634.03        44.60469
634.46         44.2271
634.89        43.81181
635.32        43.35176
635.75        42.85741
636.18         42.3304
636.61        41.81497
637.04         41.3802
637.47        41.03526
637.89        40.76551
638.32         40.5122
638.75        40.20139
639.18        39.81826
639.61         39.3952
640.04        38.97098
640.47        38.60126
640.90        38.30419
641.33        38.05894
641.76        37.84745
642.18        37.69754
642.61        37.60293
643.04        37.47396
643.47         37.2836
643.90        37.46867
644.33        37.25483
644.76        37.27158
645.18        37.28438
645.61        37.30833
646.04          37.334
646.47        37.34975
646.90        37.41752
647.33        37.61353
647.75        37.96901
648.18        38.47674
648.61        38.98037
649.04        39.31618
649.47         39.4319
649.89        39.10007
650.32        38.69826
650.75         39.2146
651.18        40.56495
651.61         41.7523
652.03        42.44256
652.46        42.81918
652.89        43.17479
653.32        43.16737
653.74        43.02208
654.17        44.73067
654.60        45.87531
655.03        44.36128
655.46        45.29958
655.88        48.95055
656.31        52.03719
656.74        118.4198
657.16        76.83057
657.59         27.1652
658.02        20.90718
658.45        36.49348
658.87        47.38091
659.30        50.14116
659.73        49.69307
660.15        48.46495
660.58        50.75425
661.01        52.27861
661.44        50.63658
661.86        50.33537
662.29        50.80892
662.72        51.75342
663.14        52.94939
663.57        53.10806
664.00        52.42178
664.42        52.41178
664.85        53.15287
665.27        53.64054
665.70        53.72857
666.13         53.7748
666.55        53.77105
666.98        53.61105
667.41         53.4196
667.83        53.44083
668.26        53.72565
668.69        54.18028
669.11        54.62246
669.54        55.02468
669.96        54.81981
670.39        54.50394
670.82        54.12893
671.24        54.06246
671.67         54.3917
672.09        54.95407
672.52           55.49
672.94         56.0218
673.37        55.57334
673.80        55.44416
674.22        55.44661
674.65        55.46574
675.07        55.51322
675.50        55.57524
675.92        55.67464
676.35        55.87432
676.77        56.17134
677.20        56.48841
677.62        56.78175
678.05        56.98299
678.47        57.06596
678.90        57.06104
679.32        57.03183
679.75        56.97589
680.17        57.13863
680.60        57.31516
681.02        57.50043
681.45        57.52461
681.87        57.38124
682.30        57.19924
682.72        57.05903
683.15        56.97608
683.57          57.045
684.00        57.35151
684.42        57.98565
684.85        58.34294
685.27        58.41474
685.70        58.40401
686.12         58.3568
686.54        58.33517
686.97        58.36809
687.39        58.41371
687.82        58.45427
688.24        58.60162
688.66        58.79009
689.09        58.80638
689.51        58.69842
689.94        58.72297
690.36        58.90715
690.78        59.09032
691.21        59.24426
691.63        59.42019
692.06        59.59511
692.48        59.70505
692.90        59.77716
693.33        59.89599
693.75        60.06969
694.17        60.25914
694.60        60.43948
695.02         60.5672
695.44        60.59853
695.87        60.70374
696.29        60.89505
696.71        60.68855
697.14        60.27166
697.56        60.75227
697.98        61.87163
698.41        61.79111
698.83         61.1366
699.25        60.70895
699.68        60.78336
700.10        60.78517
700.52        60.74046
700.94        60.96808
701.37        61.38758
701.79        61.77823
702.21        62.05157
702.64        62.27305
703.06        62.39585
703.48         62.3395
703.90        62.12105
704.33         61.7698
704.75        61.39514
705.17        61.25425
705.59        61.41298
706.01        61.70522
706.44         62.0104
706.86        62.66366
707.28        62.76831
707.70        63.00071
708.12        63.11715
708.55        63.14041
708.97        63.06523
709.39        62.89284
709.81        62.69897
710.23        62.60641
710.66        62.65145
711.08        62.83799
711.50        63.05218
711.92         63.1184
712.34        63.00167
712.76        62.74478
713.19        62.49163
713.61        62.50007
714.03        62.80703
714.45        63.32843
714.87        63.86115
715.29        64.08627
715.71        63.93538
716.13        63.51075
716.56        63.00782
716.98        62.77034
717.40        62.88213
717.82        63.24001
718.24        63.68657
718.66        63.95387
719.08        63.96432
719.50        63.80898
719.92        63.58289
720.34        63.44985
720.76        63.46404
721.19        63.46535
721.61        63.62819
722.03        63.79527
722.45        63.99782
722.87        64.23454
723.29        64.47247
723.71        64.64551
724.13        64.73147
724.55        64.74553
724.97         64.7131
725.39        64.64346
725.81        64.54865
726.23         64.5073
726.65         64.5595
727.07        64.35162
727.49        64.54797
727.91        64.62491
728.33        64.74972
728.75        64.85423
729.17        64.92122
729.59        64.94189
730.01         64.9497
730.43         65.0111
730.85        65.14347
731.27        65.36165
731.69        65.57541
732.10        65.62054
732.52        65.46904
732.94        65.19951
733.36        65.00398
733.78        65.06122
734.20        65.40601
734.62        66.26896
735.04        67.32406
735.46        67.35278
735.88        66.56518
736.30        66.54941
736.72        67.35999
737.13        67.74832
737.55        67.49969
737.97        67.52636
738.39        67.82001
738.81        67.32137
739.23        66.38529
739.65        67.05976
740.06        68.93214
740.48        69.08346
740.90        67.62897
741.32        67.05454
741.74        67.55599
742.16        67.81498
742.57          67.855
742.99        68.41073
743.41        69.31622
743.83         69.8863
744.25        70.00848
744.67        69.85611
745.08        69.60319
745.50        69.53506
745.92        69.74178
746.34         70.1131
746.75         70.5366
747.17        70.81277
747.59        70.91058
748.01        70.92401
748.42        70.95357
748.84         71.1255
749.26        71.51881
749.68        72.03673
750.09        72.57617
750.51        73.22231
750.93        73.74487
751.35        73.36995
751.76        72.37072
752.18        72.03376
752.60        72.37318
753.01        72.52971
753.43        72.52537
753.85        72.67274
754.27        72.90581
754.68        73.93847
755.10        74.63127
755.52        74.21451
755.93        74.91933
756.35        74.64506
756.77        74.35591
757.18        74.25294
757.60        74.42589
758.02        75.03416
758.43        75.61805
758.85        75.51527
759.26         73.6362
759.68        73.63763
760.10        74.90476
760.51        75.75198
760.93         75.0536
761.34        74.30473
761.76        73.60955
762.18        73.18565
762.59         73.2077
763.01        73.54115
763.42        74.25007
763.84        74.85096
764.26        75.29368
764.67        75.56822
765.09         75.6051
765.50        75.53586
765.92        75.28161
766.33        74.02135
766.75        72.47607
767.16        72.02355
767.58        72.86709
768.00        74.37083
768.41        76.14327
768.83        77.33842
769.24        77.48154
769.66        76.94301
770.07        75.95936
770.49        74.44207
770.90        72.91798
771.32         73.8558
771.73        76.52692
772.15        76.26152
772.56        73.44386
772.97        72.64783
773.39        73.89892
773.80        74.39738
774.22        73.92554
774.63        73.90338
775.05        74.27417
775.46        74.52847
775.88        74.57118
776.29        74.42571
776.70        74.17721
777.12        74.10397
777.53        74.26434
777.95         74.5119
778.36        74.72229
778.77         74.6889
779.19        74.41065
779.60        73.96802
780.02        73.54339
780.43        73.50207
780.84        73.95956
781.26        74.36297
781.67        74.67654
782.09        75.76904
782.50        77.09591
782.91        76.24083
783.33        73.86965
783.74         73.0705
784.15        73.99744
784.57        74.70054
784.98        74.84982
785.39        74.77489
785.81        74.47195
786.22        74.03191
786.63        73.71156
787.04        73.73687
787.46        74.15144
787.87        74.95268
788.28        75.90089
788.70        76.44554
789.11        76.44985
789.52        76.22546
789.93        75.89767
790.35        75.31086
790.76        74.69025
791.17        74.73174
791.58        75.31687
792.00        75.53404
792.41        75.28414
792.82         75.1405
793.23        75.26247
793.65          75.169
794.06        75.06306
794.47        76.18002
794.88        77.81358
795.29        77.43539
795.71        75.18238
796.12        73.26393
796.53        72.24339
796.94         71.7321
797.35        71.92689
797.76        73.30064
798.18        75.20686
798.59        76.29431
799.00        76.15813
799.41        75.15732
799.82        73.81894
800.23        73.00872
800.64        72.96123
801.06        73.33237
801.47        73.96071
801.88        74.48001
802.29        74.73428
802.70        74.85957
803.11        74.87984
803.52        74.80596
803.93        74.68271
804.34        74.46944
804.75         74.2375
805.17        74.23871
805.58         74.5589
805.99        74.77292
806.40        74.81335
806.81        75.46529
807.22        76.24809
807.63        75.16854
808.04        72.82413
808.45        71.88586
808.86         72.5771
809.27        73.54239
809.68        74.36619
810.09        74.88882
810.50         74.9062
810.91        74.47726
811.32        73.84415
811.73        73.44106
812.14        73.36488
812.55        73.36768
812.96        73.44412
813.37        73.66941
813.78        74.00225
814.19        74.44938
814.60         74.7748
815.01        74.62235
815.42        73.95755
815.83        72.85104
816.24        71.74598
816.65        71.42952
817.05         72.1239
817.46        73.55931
817.87        75.17062
818.28        75.93935
818.69         75.5817
819.10         74.3617
819.51         72.8607
819.92        72.07555
820.33        72.28384
820.74        73.16494
821.14        74.24609
821.55        74.70464
821.96        74.33514
822.37        73.36963
822.78        72.21741
823.19        71.53567
823.60        71.48987
824.00        71.87983
824.41        72.44387
824.82        72.89555
825.23        73.07852
825.64        73.09955
826.04        73.02227
826.45        72.92636
826.86        72.84084
827.27        72.70274
827.68        72.52796
828.08        72.39172
828.49        72.26184
828.90        72.20352
829.31        72.16317
829.72        72.02671
830.12        71.80681
830.53        71.51388
830.94        71.32916
831.35        71.49346
831.75        72.07529
832.16        72.94249
832.57        73.88435
832.97        74.45525
833.38        74.45515
833.79        74.01447
834.20        73.41414
834.60        73.08283
835.01        73.15263
835.42        73.49055
835.82        73.88956
836.23        73.91782
836.64        73.51376
837.04        72.85242
837.45        72.16916
837.86         71.8348
838.26        71.94494
838.67        72.32272
839.08        72.84283
839.48        73.27356
839.89        73.48281
840.29        73.57307
840.70        73.48145
841.11        73.09193
841.51        72.44233
841.92        71.54641
842.33        70.70831
842.73        70.44489
843.14        70.82517
843.54        71.74306
843.95        72.77802
844.35         73.2717
844.76        73.03847
845.17        72.29475
845.57        71.38804
845.98        70.86404
846.38        70.86205
846.79        71.17634
847.19         71.6445
847.60        71.90179
848.00        71.86394
848.41        71.64986
848.81        71.35038
849.22        71.00323
849.62        70.69359
850.03        70.38981
850.43        70.21124
850.84        70.31723
851.24        70.77158
851.65        71.37564
852.05          72.105
852.46        72.73165
852.86        73.18136
853.27        73.54366
853.67        73.52523
854.07        72.80093
854.48         71.4636
854.88        69.63557
855.29        67.97231
855.69        67.42126
856.10        68.14548
856.50        70.06001
856.90        72.50782
857.31        73.94702
857.71        73.89797
858.12        72.71776
858.52        71.14167
858.92        70.14207
859.33        69.93423
859.73        70.26093
860.13        70.92377
860.54        71.50774
860.94        71.89886
861.34        72.21804
861.75        72.48692
862.15        72.81106
862.55        73.18455
862.96        73.53804
863.36        73.87828
863.76        74.20846
864.17        74.51134
864.57        74.82088
864.97        75.14336
865.38         75.4832
865.78        75.87434
866.18        76.22585
866.58        76.50424
866.99        76.64589
867.39        76.68552
867.79        76.68575
868.19        76.51521
868.60        75.92947
869.00        74.94818
869.40         73.6874
869.80        72.74822
870.21        73.03039
870.61        74.76109
871.01        77.64277
871.41        80.80039
871.81         82.7317
872.22        83.01971
872.62        82.06283
873.02        80.63769
873.42         80.1902
873.82         80.8549
874.22        81.81001
874.63        82.75286
875.03        83.11781
875.43        82.59576
875.83        82.47337
876.23         80.8464
876.63        80.02171
877.03        79.80486
877.44          80.319
877.84         105.477
878.24        86.69339
878.64        87.37187
879.04        88.25986
879.44        83.66138
879.84           81.27
880.24        85.99483
880.64        87.95942
881.04        88.11399
881.44        87.91577
881.84        87.13242
882.24        85.82821
882.65        84.75823
883.05        84.49686
883.45        85.14093
883.85         86.8345
884.25        88.91768
884.65        89.91231
885.05        89.43091
885.45         87.9831
885.85          86.405
886.25        85.85851
886.65        86.56853
887.05        88.12827
887.45        90.02666
887.85        91.33853
888.25        91.71123
888.65        91.46828
889.04        90.81487
889.44        90.11737
889.84        89.52501
890.24        88.88511
890.64        88.37182
891.04        88.27763
891.44        88.61541
891.84        89.37045
892.24        90.15658
892.64        90.23765
893.04        89.51388
893.44        88.29789
893.83        87.12442
894.23        86.77138
894.63        87.37397
895.03        88.63497
895.43        90.29684
895.83        91.85749
896.23        93.02768
896.63        93.92458
897.02        94.31977
897.42        93.88158
897.82        92.67871
898.22        90.86821
898.62        89.05466
899.01        88.13017
899.41        88.29242
899.81        89.25537
900.21        90.56944
900.61        91.47382
901.00        91.70207
901.40        91.45373
901.80          90.925
902.20        90.42571
902.59        90.07249
902.99        89.77805
903.39        89.44303
903.79        88.92579
904.18        88.24644
904.58        87.55911
904.98         87.1343
905.38        87.35598
905.77         88.2206
906.17        89.50867
906.57        90.86074
906.96        91.80723
907.36        92.15204
907.76        92.03781
908.15        91.56435
908.55        90.80569
908.95        89.91241
909.34        88.86272
909.74        87.88712
910.14        87.15594
910.53        86.74995
910.93        86.71385
911.33        87.02434
911.72        87.60928
912.12        88.29311
912.52        88.96305
912.91        89.58723
913.31         90.1672
913.70         90.7532
914.10        91.35023
914.49        91.69177
914.89        91.15382
915.29        89.70952
915.68        87.67204
916.08        85.95789
916.47        85.36911
916.87        85.94064
917.26        87.39361
917.66        89.03616
918.05        89.74612
918.45        89.22117
918.84         87.8835
919.24        86.34373
919.64        85.47422
920.03        85.53582
920.42        86.20757
920.82        87.27275
921.21        88.51491
921.61        89.57701
922.00        90.52989
922.40        91.03613
922.79        90.66103
923.19        89.48164
923.58        87.48833
923.98        85.04041
924.37        83.60226
924.77        83.89556
925.16        82.35172
925.55        84.68874
925.95        85.94611
926.34         87.6467
926.74        89.48394
927.13        91.09996
927.52        91.57918
927.92        90.85246
928.31         89.2185
928.70         87.1563
929.10        85.53326
929.49        84.58299
929.89        84.12075
930.28        84.24606
930.67        85.10056
931.07        86.47568
931.46        88.38412
931.85        90.08994
932.24        90.49915
932.64        89.44044
933.03        87.05817
933.42         84.0257
933.82         81.9051
934.21         81.1881
934.60        81.52962
934.99        82.21452
935.39        82.55251
935.78        82.44294
936.17        81.56037
936.56        79.73957
936.96        81.17724
937.35        80.09212
937.74        80.91741
938.13         81.6533
938.53        82.45702
938.92        83.37777
939.31        84.55212
939.70        85.67096
940.09        85.76121
940.49        84.63107
940.88          82.743
941.27        80.92325
941.66        80.13504
942.05        80.47973
942.44        81.63896
942.84         83.2303
943.23        84.63245
943.62        85.47485
944.01        85.88774
944.40        85.89957
944.79        85.56761
945.18        84.92794
945.57         83.8923
945.97        82.52041
946.36        81.14978
946.75        80.14625
947.14        79.56934
947.53        79.40366
947.92        79.52869
948.31        79.87042
948.70        80.49249
949.09        81.20879
949.48        81.57044
949.87        81.39491
950.26         80.7225
950.65        79.96899
951.04        79.81561
951.43        80.38289
951.82        81.46797
952.21          82.533
952.60        82.70523
952.99        81.78561
953.38        80.07063
953.77        78.16296
954.16        76.91329
954.55        76.54458
954.94        76.91529
955.33        77.49827
955.72        77.40055
956.11        76.43654
956.50        74.84451
956.89        73.49477
957.28          73.934
957.66        76.53931
958.05        80.48391
958.44        84.45981
958.83        86.57595
959.22        86.38922
959.61        84.42678
960.00        81.56974
960.39         79.2781
960.78        78.06691
961.16        77.60864
961.55        77.47745
961.94        76.93892
962.33        75.83562
962.72        74.55161
963.11        73.51145
963.49        73.19999
963.88        73.66677
964.27        74.74387
964.66        76.01455
965.04        76.64749
965.43        76.26219
965.82        75.20325
966.21        74.03334
966.60        73.48038
966.98        73.69353
967.37          74.394
967.76        75.31952
968.15        75.93956
968.53        76.03395
968.92        75.73889
969.31        75.22858
969.69        74.68214
970.08        74.18987
970.47        73.74338
970.86        73.28368
971.24        72.74127
971.63        72.13203
972.02        71.46245
972.40        71.06714
972.79        71.50055
973.17        72.93931
973.56        75.13586
973.95        77.34007
974.33         78.1357
974.72        77.10416
975.11        74.74393
975.49        72.15021
975.88         70.7769
976.26        70.84769
976.65        72.09074
977.04          73.717
977.42        73.82214
977.81        71.80869
978.19        68.45202
978.58         65.6126
978.96        65.19604
979.35        67.47861
979.74        72.05679
980.12         77.8539
980.51        81.29591
980.89         81.2308
981.28        78.64765
981.66        75.26294
982.05        73.24393
982.43        72.95833
982.82        73.62319
983.20        74.85548
983.59        76.17784
983.97        77.47108
984.35        79.03482
984.74        80.40096
985.12        80.76382
985.51        79.61045
985.89        76.93017
986.28        73.69123
986.66        71.41898
987.04        70.73479
987.43        71.30696
987.81        72.09995
988.20        71.74742
988.58        69.77966
988.96        65.78582
989.35        60.33823
989.73        57.54662
990.12        60.40464
990.50        67.30065
990.88        73.34137
991.27        74.53511
991.65        71.39318
992.03        65.23225
992.42         58.5991
992.80        56.06481
993.18        58.85281
993.56        64.27516
993.95        70.19609
994.33        74.93472
994.71        77.95487
995.10        80.18541
995.48        81.25498
995.86        80.26762
996.24        77.12672
996.63        71.56358
997.01        65.02019
997.39        61.96826
997.77        64.40687
998.15        71.38319
998.54        79.23535
998.92        82.83356
999.30        80.62952
999.68        73.94082
1000.06        64.58343
1000.45        57.18031
1000.83        53.90138
1001.21        53.40392
1001.59        54.65739
1001.97        56.54736
1002.35         58.6529
1002.73        61.77385
1003.12        65.10925
1003.50        65.69824
1003.88         62.4218
1004.26        56.73034
1004.64        51.26458
1005.02        48.26158
1005.40        47.81474
1005.78        49.50375
1006.16        54.29548
1006.54        61.46547
1006.92         67.0985
1007.30        70.08271
1007.69        70.88922
1008.07        70.53676
1008.45         69.0293
1008.83        64.82101
1009.21        53.15778
1009.59        20.70328
1009.97       -52.82769
1010.35       -131.2141
1010.73       -94.65783
1011.11       -35.58002
1011.49       0.6353116
1011.86        24.92267
1012.24        38.54736
1012.62        45.47567
1013.00         48.8915
1013.38        50.01438
1013.76        50.50254
1014.14        54.62736
1014.52        65.27656
1014.90        82.77777
1015.28        101.2355
1015.66        105.8949
1016.04        89.16022
1016.41        56.24344
1016.79        25.21016
1017.17        12.48291
1017.55         14.6725
1017.93        22.00266
1018.31        29.75216
1018.69        36.06802
1019.06        41.52081
1019.44           47.25
1019.82        54.64517
1020.20        63.75099
1020.58        73.20188
1020.95        80.72511
1021.33        72.38648
1021.71        389.0038
1022.09         144.425
1022.46        135.8071
1022.84        136.8359
1023.22        145.7969
1023.60        173.5512
1023.97          453.05
1024.35       -19.10599
1024.73        38.39898
