SpectraSmart Spectrum 2.9.0.0
--------- Device Information -----------
Spectrum Name :  反射率_0
Saving Time :  2024/04/25 22:49:50
Spectro-Module Model Name : SE2030-DUVN
Spectro-Module Serial Number : OS361AC55029948
Wavelength Start : 200
Wavelength End : 1025
Wavelength Unit : Wavelength(nm)
Spectrum Unit : Reflectance(%)
-----------Spectrum Setting ------------
Integration Time : 20ms
Average : 10
Boxcar : 0
Background removal :  enabled
linearity correction :  enabled
SC :  disabled
Intensity correction :  disabled
DWT denoise :  enabled
savitzky-golay :  disabled
FFT :  disabled
Running average :  disabled
Kalman :  disabled
High pass :  disabled
---------------BEGIN--------------------
Wavelength(nm)             Reflectance(%)
200.29               0
200.75        60.34579
201.21        55.59264
201.67        51.01836
202.13        48.89823
202.58        49.31974
203.04        51.87859
203.50        55.65598
203.96        58.77971
204.42        60.37803
204.88        60.87149
205.34        60.75838
205.80        60.55458
206.26        60.44658
206.72         60.4258
207.18        59.65329
207.64        55.77618
208.10        50.27805
208.55        47.07876
209.01        46.81348
209.47        48.98187
209.93        52.90092
210.39         58.9509
210.85        64.74136
211.31        64.62006
211.77         57.2503
212.23        44.86066
212.69         32.9248
213.14        29.95477
213.60        37.28176
214.06        52.44241
214.52        69.82143
214.98        80.62312
215.44        82.43788
215.90        78.06184
216.36        70.75694
216.81        65.04638
217.27        62.55357
217.73         61.8358
218.19        61.18472
218.65        58.29972
219.11        52.12978
219.57        42.03668
220.02        29.45608
220.48        22.62584
220.94        25.93976
221.40        37.22364
221.86        47.76929
222.32        48.63801
222.77        41.11531
223.23        30.18258
223.69        21.22586
224.15        19.75118
224.61         25.0633
225.06         34.2794
225.52         43.5052
225.98        47.76415
226.44        46.14108
226.90        40.82898
227.36        34.36045
227.81        30.11193
228.27         29.2411
228.73        30.46235
229.19        32.88844
229.65         35.2144
230.10        36.92572
230.56        38.40421
231.02        39.77832
231.48        41.15609
231.93        42.54222
232.39        43.76578
232.85        44.75565
233.31        45.50447
233.77        45.95819
234.22        46.12242
234.68        45.86188
235.14        44.89368
235.60        43.29699
236.05        41.36108
236.51        39.44302
236.97        37.85994
237.43        36.69814
237.88        35.95831
238.34        35.82331
238.80        36.72847
239.26        38.71097
239.71        41.55756
240.17        44.57069
240.63         47.0133
241.08        48.62626
241.54        49.47982
242.00        49.41774
242.46        48.09186
242.91        44.89465
243.37        36.85699
243.83        17.53816
244.28       -12.88629
244.74        12.31329
245.20         73.2794
245.66        92.84716
246.11        96.68217
246.57        94.83167
247.03        83.20551
247.48        31.74918
247.94        1.384082
248.40         42.9605
248.85        62.15993
249.31        70.78993
249.77        75.23212
250.22        78.34381
250.68        81.76234
251.14        85.54426
251.59        86.82228
252.05        83.40603
252.51        76.90791
252.96         69.8213
253.42        64.62986
253.88         60.8722
254.33        57.89964
254.79        56.85105
255.25         58.6109
255.70        62.37532
256.16        67.15443
256.62        70.59045
257.07        70.36553
257.53        67.27541
257.99        62.31642
258.44        57.51236
258.90        55.94348
259.35        56.73235
259.81        58.50868
260.27        59.34707
260.72        57.44821
261.18        53.51689
261.63        48.42786
262.09        43.75423
262.55        40.67275
263.00        39.16055
263.46        38.71162
263.91         38.4565
264.37        37.69855
264.83        36.29607
265.28        34.41782
265.74        32.68612
266.19        31.78826
266.65         31.8568
267.11        32.45653
267.56        32.96047
268.02        32.63074
268.47        31.37545
268.93        29.46984
269.38        27.33784
269.84        25.94245
270.30        25.55426
270.75        25.90626
271.21        26.52022
271.66        26.67747
272.12        26.18332
272.57        25.27557
273.03        24.30059
273.48        23.69474
273.94        23.58074
274.39        23.75006
274.85        23.96344
275.31         23.8847
275.76        23.43482
276.22        22.76802
276.67        22.05161
277.13        21.59804
277.58        21.42295
278.04        21.44077
278.49         21.4613
278.95        21.26889
279.40        20.80751
279.86        20.21365
280.31        19.58923
280.77        19.18322
281.22        19.00279
281.68        18.97536
282.13        19.00542
282.59        18.98427
283.04        18.88003
283.50        18.76818
283.95        18.62478
284.41        18.42382
284.86        18.17223
285.32        17.87583
285.77        17.65493
286.22        17.74908
286.68        18.14804
287.13         18.7444
287.59        19.28142
288.04        19.37377
288.50        18.98556
288.95        18.24663
289.41        17.42503
289.86        16.82714
290.32        16.58429
290.77        16.58296
291.22        16.75469
291.68        16.95762
292.13        17.14759
292.59        17.37143
293.04        17.64333
293.50        17.97774
293.95        18.36304
294.40        18.75294
294.86        19.11491
295.31        19.42317
295.77        19.67527
296.22        19.88623
296.68        20.06589
297.13        20.20004
297.58        20.31413
298.04        20.43311
298.49        20.60275
298.95        20.92461
299.40         21.3996
299.85         21.9854
300.31        22.60298
300.76        23.14074
301.21        23.54555
301.67        23.86656
302.12        24.08206
302.58        24.20744
303.03        24.24884
303.48        24.21609
303.94        24.21839
304.39        24.39385
304.84        24.76332
305.30        25.27315
305.75        25.76568
306.20        26.00237
306.66        25.95694
307.11        25.70233
307.57        25.39462
308.02        25.20139
308.47        25.19445
308.93        25.31281
309.38        25.50785
309.83        25.73184
310.29        25.94157
310.74        26.14137
311.19        26.29342
311.65        26.33725
312.10        26.26278
312.55         26.0852
313.00        25.82769
313.46         25.5444
313.91        25.25906
314.36        24.98706
314.82        24.77402
315.27        24.67254
315.72        24.69092
316.18        24.80675
316.63        24.97015
317.08        25.07506
317.53        25.08318
317.99        25.00617
318.44         24.8783
318.89        24.76162
319.35        24.66696
319.80        24.57942
320.25        24.45718
320.70        24.23922
321.16        23.92406
321.61        23.54282
322.06        23.16017
322.51        22.86665
322.97         22.6716
323.42        22.55363
323.87        22.45215
324.32        22.26754
324.78        21.97708
325.23        21.62077
325.68        21.24512
326.13         20.9266
326.59        20.68856
327.04        20.52526
327.49        20.42419
327.94        20.36606
328.39        20.33929
328.85        20.33839
329.30        20.37745
329.75        20.44884
330.20        20.54123
330.66        20.62844
331.11         20.6965
331.56        20.68527
332.01        20.58083
332.46        20.38848
332.92        20.15002
333.37         19.9628
333.82        19.85754
334.27        19.83116
334.72        19.82991
335.17        19.75627
335.63        19.58488
336.08        19.34188
336.53        19.11664
336.98        19.05357
337.43        19.17697
337.88        19.44757
338.34        19.70537
338.79         19.7336
339.24        19.46408
339.69        18.95944
340.14        18.42772
340.59        18.22965
341.05        18.43466
341.50        18.92346
341.95        19.45829
342.40        19.69048
342.85        19.54512
343.30        19.14426
343.75        18.63006
344.20        18.25387
344.66        18.10227
345.11        18.06077
345.56        18.10205
346.01        18.18326
346.46        18.26469
346.91        18.38144
347.36        18.41781
347.81        18.17916
348.26        17.66587
348.72        16.97513
349.17        16.29745
349.62        16.03347
350.07        16.27054
350.52         16.8701
350.97        17.62477
351.42        18.21324
351.87        18.52962
352.32        18.65687
352.77        18.62893
353.22        18.50708
353.67        18.32977
354.13        18.07779
354.58        17.79602
355.03        17.59906
355.48        17.51514
355.93        17.54084
356.38        17.60837
356.83        17.59282
357.28        17.46286
357.73         17.2459
358.18         17.0192
358.63        16.90503
359.08          16.927
359.53        17.04924
359.98        17.16652
360.43        17.11857
360.88        16.87932
361.33        16.50009
361.78        16.12005
362.23        15.96326
362.68        16.06932
363.13         16.3529
363.58        16.65826
364.03        16.74374
364.48        16.55424
364.93        16.17839
365.38        15.72307
365.83        15.35839
366.28        15.14572
366.73        15.03163
367.18        15.00134
367.63        15.03299
368.08        15.09784
368.53        15.19823
368.98        15.28646
369.43        15.27981
369.88        15.16688
370.33        14.97753
370.78          14.744
371.23        14.53047
371.68        14.36721
372.13         14.2327
372.58        14.17442
373.03        14.26498
373.48        14.49795
373.93        14.84568
374.38        15.17532
374.83        15.28382
375.28        15.13347
375.72         14.7676
376.17         14.3514
376.62        14.11806
377.07        14.13168
377.52         14.3229
377.97        14.57172
378.42        14.68259
378.87         14.6064
379.32        14.41436
379.77        14.19622
380.22        14.07617
380.67        14.08202
381.11        14.16869
381.56        14.27227
382.01        14.30164
382.46        14.22974
382.91        14.08603
383.36        13.92214
383.81        13.81631
384.26        13.78952
384.71        13.81999
385.15        13.85061
385.60        13.80664
386.05        13.66982
386.50        13.46029
386.95        13.25148
387.40        13.16669
387.85        13.23049
388.29        13.39774
388.74        13.56831
389.19         13.6027
389.64        13.48432
390.09         13.2503
390.54        13.00927
390.98        12.94231
391.43         13.0919
391.88        13.38137
392.33        13.66951
392.78        13.75125
393.23        13.59998
393.67        13.29149
394.12        12.96838
394.57        12.77734
395.02        12.75292
395.47        12.84353
395.91        12.99022
396.36        13.07217
396.81          13.051
397.26        12.95159
397.71        12.82259
398.15        12.71923
398.60        12.67573
399.05        12.67905
399.50        12.66881
399.95        12.52559
400.39        12.29545
400.84        11.96692
401.29        11.66966
401.74         11.6131
402.18        11.85061
402.63        12.29527
403.08        12.77623
403.53        13.02226
403.97        12.96693
404.42        12.68983
404.87        12.32104
405.32        12.08952
405.76        12.06321
406.21        12.16731
406.66        12.32152
407.11        12.41769
407.55        12.42808
408.00        12.38913
408.45        12.31827
408.90         12.2358
409.34        12.15736
409.79        12.07219
410.24        12.00017
410.68        11.97172
411.13        11.99376
411.58        12.06891
412.03        12.16391
412.47        12.21813
412.92          12.206
413.37        12.13605
413.81        12.06459
414.26        12.09488
414.71          12.233
415.15        12.45096
415.60        12.63829
416.05        12.63823
416.49        12.42101
416.94        12.05011
417.39        11.64701
417.83        11.41878
418.28        11.42876
418.73        11.60245
419.17        11.84622
419.62        12.00923
420.07        12.05109
420.51         12.0181
420.96          11.931
421.41        11.82103
421.85         11.7061
422.30        11.58882
422.74        11.48341
423.19        11.44402
423.64        11.46457
424.08        11.54016
424.53        11.63007
424.98        11.68363
425.42        11.68915
425.87        11.65655
426.31        11.59265
426.76         11.5479
427.21        11.51402
427.65        11.39889
428.10        11.28452
428.54        11.36847
428.99        11.66168
429.44        12.08121
429.88        12.45434
430.33        12.54903
430.77        12.33321
431.22        11.88633
431.66        11.41039
432.11        11.25457
432.56         11.4566
433.00        11.85301
433.45        12.26526
433.89        12.53001
434.34        12.53293
434.78        12.22246
435.23         11.8139
435.67        11.71279
436.12        11.88971
436.57        11.92244
437.01        11.77687
437.46        11.69414
437.90        11.69687
438.35        11.71473
438.79        11.73317
439.24        11.76288
439.68         11.8028
440.13        11.79873
440.57        11.75995
441.02        11.86148
441.46        12.00986
441.91        11.79223
442.35        11.31954
442.80        11.08829
443.24        11.08562
443.69         11.1348
444.13        11.15991
444.58        11.04004
445.02          10.809
445.47        10.72504
445.91         10.7784
446.36        10.76175
446.80        10.66857
447.24        10.62433
447.69        10.63471
448.13        10.63475
448.58        10.62599
449.02        10.62756
449.47        10.62694
449.91        10.60123
450.36        10.55274
450.80         10.4822
451.25        10.42792
451.69         10.4411
452.13         10.5294
452.58        10.66208
453.02         10.7968
453.47        10.86066
453.91        10.84113
454.36        10.76558
454.80        10.65554
455.24         10.5502
455.69        10.47561
456.13        10.41596
456.58        10.40104
457.02        10.45753
457.46        10.58759
457.91        10.77551
458.35        10.96966
458.79        11.07654
459.24        11.08401
459.68        11.00433
460.13        10.90536
460.57        10.86158
461.01        10.90569
461.46        11.00692
461.90        11.12362
462.34        11.17616
462.79        11.14668
463.23        11.05633
463.68        10.96534
464.12        10.97011
464.56         11.0929
465.01        11.30096
465.45         11.4992
465.89        11.58989
466.34        11.56541
466.78        11.39867
467.22        11.19442
467.67        11.23539
468.11        11.49406
468.55        11.61987
468.99        11.58444
469.44        11.57872
469.88        11.64265
470.32        11.81244
470.77        12.02167
471.21        12.07545
471.65        11.94969
472.10        11.78158
472.54        11.63724
472.98         11.5891
473.42        11.66341
473.87        11.84016
474.31        12.05118
474.75        12.18179
475.20        12.20765
475.64        12.15516
476.08        12.08272
476.52        12.08041
476.97        12.16942
477.41        12.32448
477.85        12.48629
478.29        12.58454
478.74        12.60372
479.18        12.50565
479.62        12.35867
480.06        12.47749
480.50        12.61954
480.95        12.78945
481.39        12.85299
481.83        12.87321
482.27        12.84536
482.72        12.68038
483.16        12.45496
483.60        12.48923
484.04        12.80613
484.48        12.94619
484.93        13.08571
485.37         13.5706
485.81        14.18649
486.25        14.26293
486.69        18.24977
487.14        14.34786
487.58        9.730448
488.02        12.01963
488.46        13.78204
488.90        13.83689
489.34        13.83478
489.79        13.75838
490.23        14.55695
490.67        15.05556
491.11        15.02438
491.55        14.89854
491.99        14.67255
492.43        14.48514
492.88        14.41143
493.32        14.44274
493.76        14.49015
494.20        14.69883
494.64        15.02226
495.08        15.41186
495.52        15.81792
495.96        16.18871
496.41        16.45868
496.85        16.61709
497.29        16.67986
497.73        16.51553
498.17         16.3319
498.61        16.52762
499.05        17.09754
499.49        17.22808
499.93        17.32755
500.37        17.42954
500.82        17.48789
501.26        17.67837
501.70        17.91347
502.14        18.04542
502.58        18.05863
503.02        18.10175
503.46        18.18055
503.90        18.19926
504.34        18.17614
504.78        18.18607
505.22        18.24063
505.66        18.32835
506.10        18.42365
506.54        18.48144
506.98         18.4946
507.42        18.47843
507.86        18.48322
508.30        18.58645
508.74        18.79602
509.18        19.07872
509.62        19.36607
510.06        19.54573
510.50        19.59118
510.94        19.54526
511.38        19.45527
511.82        19.39681
512.26        19.39731
512.70        19.42811
513.14        19.49809
513.58        19.62161
514.02        19.77845
514.46        19.95775
514.90        20.10066
515.34        20.07637
515.78        19.84072
516.22        19.59349
516.66        19.42318
517.10        19.01654
517.54        18.40429
517.98        19.21717
518.42        19.03873
518.86         19.4107
519.30        19.59024
519.74        19.81001
520.18        20.01654
520.62        20.09462
521.06        20.05561
521.50        19.90421
521.93        19.70558
522.37        19.58172
522.81        19.56263
523.25        19.61775
523.69        19.70127
524.13        19.73857
524.57         19.7092
525.01        19.63927
525.45        19.55329
525.89        19.48857
526.32        19.45496
526.76        19.43837
527.20         19.4232
527.64        19.39532
528.08        19.35194
528.52        19.27885
528.96        19.18039
529.40        19.11507
529.83        19.09824
530.27        18.92187
530.71        18.94292
531.15        18.83273
531.59        18.70405
532.03        18.55614
532.46        18.44306
532.90        18.45264
533.34        18.58552
533.78        18.80412
534.22        19.02206
534.66        19.11311
535.09        19.04552
535.53        18.86614
535.97        18.63163
536.41        18.43748
536.85        18.32055
537.28        18.26211
537.72        18.24748
538.16        18.25195
538.60        18.26706
539.04        18.28816
539.47        18.33046
539.91        18.45976
540.35        18.65414
540.79        18.82212
541.22        18.93535
541.66        19.02785
542.10        19.09306
542.54        19.09401
542.97        19.07267
543.41        19.12938
543.85        19.27754
544.29        19.49975
544.72          19.732
545.16        19.88005
545.60        19.92551
546.04         19.8963
546.47        19.87852
546.91        20.01731
547.35        20.32735
547.79        20.76026
548.22        21.19855
548.66        21.44087
549.10        21.45982
549.53        21.35333
549.97        21.23316
550.41        21.21568
550.84        21.34453
551.28        21.59353
551.72        21.92255
552.15        22.25346
552.59         22.5447
553.03        22.81178
553.46        23.03604
553.90          23.209
554.34        23.33966
554.77        23.40466
555.21        23.42337
555.65         23.5009
556.08         23.6625
556.52        23.59468
556.96        23.84506
557.39        23.96119
557.83         24.1083
558.27        24.26384
558.70        24.42733
559.14         24.5811
559.57         24.7086
560.01        24.82481
560.45        24.90633
560.88        24.91738
561.32        24.88085
561.75        24.79915
562.19         24.7345
562.63        24.74735
563.06        24.84489
563.50        25.00919
563.93        25.20313
564.37        25.37848
564.80        25.50974
565.24         25.6218
565.68        25.70472
566.11        25.75331
566.55        25.79343
566.98        25.79896
567.42        25.82346
567.85        25.99141
568.29        26.30041
568.72        26.54696
569.16        26.75097
569.60        27.06112
570.03        27.34234
570.47        27.37851
570.90        27.31621
571.34        26.69579
571.77        27.24153
572.21        27.30107
572.64        27.26494
573.08         27.0293
573.51        26.34353
573.95        27.50933
574.38        29.04457
574.82        28.59743
575.25        28.19931
575.69        27.38624
576.12        26.92236
576.56        27.02125
576.99        27.87811
577.42        28.82069
577.86        28.72433
578.29        28.37635
578.73        29.59854
579.16        27.25499
579.60        25.06452
580.03         26.2728
580.47        28.00642
580.90        28.25211
581.33        27.82389
581.77        27.44986
582.20        29.66505
582.64         29.1774
583.07        24.79704
583.51         24.3804
583.94        24.14942
584.37        25.26575
584.81         26.3153
585.24        27.40742
585.68        27.79797
586.11        27.20396
586.54         25.2145
586.98        24.59131
587.41        24.82642
587.85         26.0852
588.28        26.65567
588.71        25.34407
589.15        24.66772
589.58        25.02076
590.01        25.23896
590.45        25.78001
590.88        25.89738
591.31        25.62819
591.75        25.49807
592.18        25.55719
592.61        26.09882
593.05        26.58616
593.48        27.91169
593.91        27.79789
594.35        25.57696
594.78        25.19661
595.21        25.48823
595.65        26.67895
596.08        27.41506
596.51        26.45911
596.94          26.102
597.38        26.69978
597.81        28.05829
598.24        28.63647
598.68        28.24335
599.11        28.63374
599.54        29.65498
599.97        30.48442
600.41        29.13333
600.84        29.60003
601.27        30.48966
601.70        30.31149
602.14        30.68228
602.57        30.62752
603.00        31.29288
603.43        32.44793
603.87        33.65786
604.30        33.87087
604.73         33.2464
605.16        33.22796
605.60         34.1504
606.03         35.1539
606.46        35.93897
606.89        36.50781
607.32        35.71814
607.76        36.44389
608.19        37.64938
608.62        37.41842
609.05         37.0344
609.48        37.61301
609.92        37.91676
610.35        38.20086
610.78        39.94642
611.21        40.53729
611.64        39.27655
612.07        39.98367
612.50        40.49337
612.94        41.05761
613.37        41.07765
613.80        41.45534
614.23        42.06494
614.66         42.3167
615.09        42.75134
615.52        43.00633
615.96        43.18668
616.39        43.48271
616.82         43.1525
617.25        43.47057
617.68        44.13139
618.11        44.83919
618.54        45.36617
618.97         45.2459
619.40        44.73972
619.84        44.92785
620.27        45.78134
620.70        46.34919
621.13        46.53834
621.56        46.44399
621.99        46.20475
622.42        46.92084
622.85        48.25678
623.28        47.83229
623.71        47.49408
624.14        47.53697
624.57        47.05297
625.00         47.0061
625.43        47.01243
625.86        46.70124
626.29        46.92517
626.72         47.0552
627.15        46.82196
627.58        46.69449
628.01        46.54724
628.44        46.33125
628.87        46.08719
629.30        46.01696
629.73        46.04492
630.16        45.85269
630.59        45.41436
631.02        44.89798
631.45        44.37597
631.88        43.89594
632.31        43.48256
632.74        43.11913
633.17        42.77055
633.60        42.38065
634.03        41.93523
634.46        41.45741
634.89        40.96484
635.32        40.48425
635.75        40.02721
636.18        39.58452
636.61         39.1548
637.04        38.73432
637.47        38.31509
637.89        37.90006
638.32        37.47476
638.75        37.04089
639.18        36.60828
639.61         36.1909
640.04        35.79424
640.47        35.41991
640.90        35.07245
641.33        34.74955
641.76        34.46437
642.18        34.28865
642.61        34.22667
643.04        34.17901
643.47        34.08559
643.90        34.29208
644.33        34.07644
644.76        34.03067
645.18        33.97049
645.61        33.96013
646.04        34.00336
646.47        34.07464
646.90        34.20516
647.33        34.41617
647.75        34.72326
648.18        35.15844
648.61        35.59977
649.04        35.86665
649.47        35.94377
649.89        35.76065
650.32        35.61535
650.75        36.16622
651.18        37.34956
651.61        38.52088
652.03        39.38387
652.46        39.82759
652.89        40.11063
653.32        40.27776
653.74         40.5284
654.17        41.97974
654.60        42.83036
655.03        41.81014
655.46        43.10628
655.88        46.07426
656.31        49.42107
656.74        108.7554
657.16        69.15832
657.59        24.46765
658.02        19.57392
658.45        35.08305
658.87        45.29913
659.30        48.17282
659.73        47.66304
660.15        46.43846
660.58        48.68129
661.01        50.37734
661.44        49.18645
661.86        48.98697
662.29        49.28212
662.72        50.20227
663.14        51.53768
663.57        51.68007
664.00        50.86544
664.42        50.86476
664.85        51.76965
665.27        52.50709
665.70        52.84386
666.13        53.00227
666.55        52.94657
666.98        52.62703
667.41        52.24459
667.83        52.15725
668.26        52.44581
668.69        52.97599
669.11        53.52691
669.54        53.99012
669.96        53.78185
670.39        53.45494
670.82        53.05034
671.24         52.8327
671.67          52.937
672.09        53.38099
672.52        53.92949
672.94         54.4872
673.37         54.1011
673.80        54.11166
674.22        54.30207
674.65        54.45101
675.07        54.54363
675.50        54.59392
675.92        54.63405
676.35        54.74562
676.77        54.93921
677.20        55.13217
677.62        55.30773
678.05        55.44515
678.47        55.52842
678.90        55.58053
679.32        55.63232
679.75        55.62182
680.17        55.76902
680.60        55.92405
681.02        56.11846
681.45        56.15452
681.87        56.00272
682.30        56.18155
682.72         55.9001
683.15        56.02825
683.57         56.3476
684.00        56.67695
684.42        57.10166
684.85        57.40546
685.27         57.3713
685.70        57.24301
686.12         57.0438
686.54        56.97647
686.97          57.083
687.39        57.27014
687.82        57.51529
688.24        57.72124
688.66        57.87067
689.09        57.73902
689.51        57.83737
689.94        57.88703
690.36        58.04779
690.78        58.27741
691.21        58.51614
691.63         58.6662
692.06        58.70677
692.48        58.68354
692.90         58.6687
693.33        58.76194
693.75        58.98618
694.17        59.30813
694.60        59.66325
695.02        59.93072
695.44        60.04313
695.87        60.17788
696.29        60.35729
696.71        60.15671
697.14        59.76405
697.56        60.19388
697.98        61.20396
698.41        61.15644
698.83        60.50206
699.25        60.13578
699.68        60.26606
700.10        60.31642
700.52        60.30208
700.94        60.54531
701.37        60.96317
701.79        61.32725
702.21        61.55413
702.64        61.71434
703.06        61.78484
703.48        61.72208
703.90        61.55058
704.33        61.28913
704.75        61.02293
705.17        60.96888
705.59        61.17672
706.01         61.4871
706.44        61.79082
706.86        62.42934
707.28        62.51484
707.70        62.75805
708.12        62.90109
708.55        62.86066
708.97        62.67257
709.39        62.53513
709.81        62.51517
710.23        62.54333
710.66        62.63699
711.08        62.90487
711.50        63.22292
711.92        63.34951
712.34        63.24245
712.76        62.95905
713.19        62.64853
713.61        62.58089
714.03        62.80357
714.45        63.23635
714.87        63.68553
715.29        63.84468
715.71        63.65179
716.13         63.2112
716.56        62.72116
716.98        62.52643
717.40        62.70705
717.82         63.1533
718.24        63.69544
718.66        64.04716
719.08        64.11874
719.50        63.99668
719.92         63.7752
720.34        63.62062
720.76        63.59197
721.19        63.53671
721.61        63.63115
722.03        63.71841
722.45        63.83992
722.87        64.00316
723.29        64.20251
723.71        64.41435
724.13        64.61865
724.55        64.80138
724.97        64.94093
725.39        65.01352
725.81        65.01627
726.23        64.96372
726.65        64.87146
727.07        64.76246
727.49        64.65792
727.91         64.5667
728.33        64.51775
728.75        64.55512
729.17        64.67775
729.59        64.85782
730.01        65.06586
730.43        65.24332
730.85        65.37466
731.27        65.50529
731.69        65.58769
732.10        65.52821
732.52        65.32298
732.94         65.0351
733.36        64.83358
733.78        64.84557
734.20        65.09023
734.62        65.86108
735.04        66.87035
735.46        66.81628
735.88        65.97617
736.30        66.25121
736.72         67.5585
737.13        68.03136
737.55        67.44658
737.97        67.16179
738.39        67.28877
738.81        66.83952
739.23        66.10603
739.65        66.77283
740.06        68.43522
740.48        68.56123
740.90        67.26852
741.32        66.77329
741.74        67.26667
742.16         67.5628
742.57        67.68467
742.99        68.31778
743.41        69.27135
743.83        69.82793
744.25        69.87075
744.67        69.59212
745.08        69.20553
745.50        69.05724
745.92        69.25102
746.34        69.65668
746.75        70.13497
747.17        70.43168
747.59         70.5007
748.01         70.4806
748.42        70.46514
748.84        70.52263
749.26        70.76109
749.68        71.18482
750.09        71.72104
750.51        72.41394
750.93         73.0246
751.35        72.80809
751.76        71.96915
752.18        71.64748
752.60         71.8403
753.01        71.76907
753.43        71.52124
753.85        71.40386
754.27        71.85712
754.68        72.88934
755.10        73.44839
755.52        73.95377
755.93        74.16264
756.35        74.29064
756.77        74.45847
757.18        74.46788
757.60        74.34965
758.02        74.62127
758.43        75.05019
758.85        74.33707
759.26        72.93297
759.68        72.88755
760.10        74.03509
760.51        74.56593
760.93        74.21585
761.34        73.16949
761.76        72.91613
762.18         72.3953
762.59        72.20992
763.01        72.57172
763.42        73.45156
763.84        74.37269
764.26         75.0813
764.67        75.16481
765.09        74.69228
765.50        74.50638
765.92        74.55035
766.33        73.54419
766.75        71.90616
767.16        71.83704
767.58         72.5479
768.00        74.01492
768.41        75.62475
768.83        76.78213
769.24        77.29195
769.66        76.53242
770.07        75.11249
770.49        73.63624
770.90        72.54283
771.32        73.35846
771.73        75.45298
772.15        75.06754
772.56        72.62424
772.97        72.24071
773.39        73.82796
773.80        74.43453
774.22        73.86894
774.63        73.71462
775.05        74.33286
775.46        74.55959
775.88        74.42698
776.29        74.16164
776.70        73.89693
777.12        73.86382
777.53        74.12276
777.95        74.55866
778.36         74.9688
778.77        75.00832
779.19        74.63989
779.60        73.96838
780.02        73.28918
780.43        73.11307
780.84        73.58375
781.26        74.21183
781.67        74.81939
782.09        75.78427
782.50        76.63062
782.91        75.57642
783.33        73.34172
783.74        72.61986
784.15         73.5771
784.57        74.53297
784.98        75.07635
785.39        75.24272
785.81        74.97572
786.22        74.44444
786.63        73.99062
787.04        73.96355
787.46        74.43092
787.87        75.34814
788.28        76.39284
788.70        76.86896
789.11        76.62418
789.52        76.08132
789.93        75.45982
790.35        74.66006
790.76         73.9758
791.17        74.22158
791.58        75.21402
792.00        75.75758
792.41        75.67799
792.82        75.69538
793.23        75.92049
793.65        75.70226
794.06        75.31123
794.47        76.15495
794.88        77.53381
795.29        77.16918
795.71         74.7028
796.12          72.666
796.53        71.52665
796.94        71.39181
797.35        72.27303
797.76        73.63345
798.18         74.8768
798.59        75.69572
799.00        75.77005
799.41        74.84843
799.82          73.418
800.23        72.58135
800.64        72.57087
801.06         72.9761
801.47        73.66922
801.88        74.33208
802.29        74.80827
802.70        75.23215
803.11        75.53022
803.52        75.54551
803.93        75.28214
804.34        74.73984
804.75        74.14318
805.17        73.94208
805.58        74.27172
805.99        74.82105
806.40        75.33724
806.81         75.8772
807.22        76.07632
807.63        74.94236
808.04        73.04311
808.45        72.22154
808.86        72.68056
809.27        73.55592
809.68        74.42521
810.09        74.85491
810.50        74.63096
810.91        73.92245
811.32        73.04118
811.73        72.47841
812.14        72.37725
812.55        72.55482
812.96        72.93038
813.37        73.34853
813.78        73.71449
814.19        74.12748
814.60         74.4073
815.01        74.26531
815.42          73.685
815.83          72.696
816.24        71.71808
816.65        71.50155
817.05        72.25124
817.46        73.72554
817.87        75.32274
818.28        75.95927
818.69        75.35493
819.10        73.79364
819.51        71.98618
819.92        71.13853
820.33        71.56895
820.74        72.91029
821.14        74.51846
821.55        75.24162
821.96        74.81407
822.37        73.63535
822.78        72.23753
823.19         71.3979
823.60        71.33721
824.00        71.84581
824.41        72.59984
824.82        73.17046
825.23        73.35285
825.64        73.30252
826.04         73.1366
826.45        73.00713
826.86        72.96262
827.27        72.91596
827.68        72.83497
828.08        72.71946
828.49        72.52075
828.90        72.33141
829.31        72.16748
829.72        72.03558
830.12        71.97488
830.53        71.94399
830.94        72.04381
831.35         72.4082
831.75        73.07769
832.16        73.94638
832.57        74.82478
832.97        75.31165
833.38        75.22712
833.79        74.68745
834.20        73.97737
834.60        73.52891
835.01        73.47716
835.42        73.70518
835.82        74.00191
836.23        73.92301
836.64        73.40983
837.04        72.63931
837.45        71.88011
837.86        71.55175
838.26        71.76025
838.67        72.32661
839.08        73.05904
839.48        73.61038
839.89        73.81459
840.29        73.78531
840.70        73.57121
841.11         73.2335
841.51        72.83195
841.92        72.32491
842.33        71.83933
842.73        71.60436
843.14        71.63139
843.54        71.90785
843.95        72.23355
844.35        72.32081
844.76        72.08311
845.17        71.62511
845.57        71.09776
845.98        70.74249
846.38        70.62027
846.79        70.62288
847.19        70.71274
847.60        70.74309
848.00        70.70952
848.41        70.66109
848.81         70.6064
849.22        70.47122
849.62        70.30574
850.03        70.10632
850.43        70.04098
850.84        70.34845
851.24        71.09297
851.65        72.01994
852.05        72.99342
852.46        73.61934
852.86        73.80038
853.27        73.70885
853.67        73.16641
854.07        72.01631
854.48        70.40767
854.88        68.42096
855.29        66.69518
855.69        66.14698
856.10         66.9195
856.50         68.9471
856.90        71.53112
857.31        73.02499
857.71         72.9207
858.12        71.60636
858.52        69.89607
858.92        68.87802
859.33        68.79115
859.73        69.33866
860.13        70.29919
860.54        71.19142
860.94        71.84109
861.34        72.37107
861.75        72.74695
862.15        72.99747
862.55        73.10967
862.96        73.02831
863.36        72.85645
863.76        72.77717
864.17        72.83978
864.57        73.05491
864.97         73.3598
865.38        73.63175
865.78        73.87624
866.18        74.04964
866.58        74.17201
866.99        74.26983
867.39        74.39625
867.79         74.5644
868.19        74.60567
868.60         74.2169
869.00        73.37175
869.40        72.19301
869.80        71.24103
870.21        71.35607
870.61        72.77163
871.01        75.22346
871.41        77.93295
871.81        79.56094
872.22        79.75346
872.62        78.87431
873.02        77.63157
873.42         77.3937
873.82        78.22089
874.22        79.22406
874.63        80.15371
875.03        80.54438
875.43        80.10189
875.83        80.19794
876.23        78.49048
876.63        77.35947
877.03        76.47167
877.44        75.83311
877.84        107.2898
878.24        81.31731
878.64        82.79153
879.04        85.17553
879.44        80.67976
879.84        78.51747
880.24        83.97876
880.64        85.99323
881.04        85.69036
881.44        84.96854
881.84        83.80305
882.24        82.19365
882.65        80.99098
883.05        80.79723
883.45        81.69202
883.85        83.90464
884.25         86.5976
884.65        87.88127
885.05        87.24932
885.45        85.31924
885.85        83.14651
886.25        82.20183
886.65        82.77744
887.05        84.38956
887.45        86.39563
887.85        87.64259
888.25        87.72568
888.65         87.0584
889.04        86.02247
889.44        85.24031
889.84        84.90305
890.24        84.75475
890.64        84.76787
891.04        84.94475
891.44        85.22669
891.84        85.67484
892.24        86.06227
892.64        85.93335
893.04        85.27634
893.44        84.32558
893.83        83.45493
894.23        83.21394
894.63        83.69085
895.03        84.63752
895.43        85.96825
895.83        87.48218
896.23        88.96548
896.63        90.45246
897.02        91.41904
897.42        91.05618
897.82        89.34102
898.22        86.59627
898.62        83.81222
899.01        82.44888
899.41        82.79839
899.81        84.38474
900.21        86.42822
900.61        87.63431
901.00        87.62786
901.40        86.83015
901.80        85.68623
902.20        84.88248
902.59         84.6432
902.99         84.7251
903.39        84.98374
903.79        85.20171
904.18         85.2991
904.58         85.4387
904.98        85.65849
905.38        85.99111
905.77        86.40881
906.17        86.80382
906.57        87.17027
906.96        87.58355
907.36        87.95373
907.76        88.27434
908.15        88.36294
908.55        87.80349
908.95        86.63364
909.34        85.03232
909.74         83.4529
910.14         82.4082
910.53        82.08553
910.93        82.38797
911.33        83.25935
911.72        84.55833
912.12        85.96935
912.52        87.33395
912.91        88.45705
913.31        89.14389
913.70        89.43525
914.10         89.3638
914.49        88.77008
914.89        87.44979
915.29        85.63296
915.68        83.55342
916.08        82.03249
916.47        81.73097
916.87        82.62034
917.26        84.49835
917.66        86.53274
918.05        87.34091
918.45        86.57511
918.84         84.6956
919.24        82.60547
919.64        81.65616
920.03        82.19987
920.42        83.80361
920.82        85.86919
921.21        87.45702
921.61        88.04095
922.00        87.97533
922.40        87.38329
922.79        86.45453
923.19         85.4093
923.58        83.99708
923.98        82.34744
924.37        81.56203
924.77        82.14362
925.16        80.29651
925.55        82.53992
925.95        83.57525
926.34        85.21133
926.74        87.04287
927.13        88.65466
927.52        89.04579
927.92         88.1304
928.31        86.27365
928.70        84.03178
929.10        82.37847
929.49        81.56882
929.89        81.37488
930.28         81.8177
930.67        82.91232
931.07         84.4038
931.46        86.33073
931.85        87.99253
932.24        88.35777
932.64         87.2765
933.03        84.86567
933.42        81.79208
933.82        79.61091
934.21        78.82044
934.60        79.09927
934.99        79.71479
935.39        79.97948
935.78        79.79054
936.17        78.71508
936.56         76.5715
936.96        78.25143
937.35        77.06275
937.74        78.13702
938.13        79.04901
938.53        79.85766
938.92        80.61491
939.31        81.47685
939.70        82.24368
940.09        82.19382
940.49        81.23604
940.88        79.73975
941.27        78.33299
941.66        77.75356
942.05        78.06543
942.44        78.98891
942.84        80.27991
943.23        81.55739
943.62        82.52156
944.01        83.25862
944.40        83.56362
944.79        83.12152
945.18        81.87934
945.57        79.79967
945.97        77.35384
946.36        75.78079
946.75        75.66424
947.14        76.58678
947.53        77.84929
947.92        78.71229
948.31        79.08485
948.70        79.21065
949.09        79.15034
949.48        79.02054
949.87        78.87804
950.26        78.58085
950.65        78.25987
951.04        78.15872
951.43        78.30535
951.82        78.70131
952.21        79.01485
952.60        78.68684
952.99        77.63451
953.38        76.02303
953.77        74.41254
954.16        73.61779
954.55        73.78782
954.94        74.75439
955.33        75.84392
955.72        75.91389
956.11        74.71169
956.50        72.53763
956.89        70.35556
957.28         69.9366
957.66        71.81387
958.05        75.16933
958.44        78.80463
958.83        80.95087
959.22        81.15062
959.61        79.89085
960.00         77.8615
960.39        76.19392
960.78        75.29501
961.16        74.88892
961.55        74.64864
961.94         74.0402
962.33        72.98333
962.72        71.80594
963.11        70.89917
963.49        70.71015
963.88        71.28779
964.27        72.49924
964.66        73.96419
965.04        74.88095
965.43        74.83056
965.82        74.08075
966.21        73.12703
966.60        72.63765
966.98        72.75843
967.37        73.24746
967.76        73.83319
968.15        73.99274
968.53        73.58066
968.92        72.78056
969.31        71.89854
969.69        71.28467
970.08        71.02065
970.47        71.01955
970.86        71.08621
971.24        70.88899
971.63        70.35007
972.02        69.56245
972.40        68.85505
972.79        68.79946
973.17        69.64064
973.56        71.14216
973.95        72.85673
974.33        73.89088
974.72        73.85152
975.11        72.95562
975.49        71.82581
975.88        71.39222
976.26        71.78548
976.65        72.82133
977.04        73.78862
977.42        73.07068
977.81        70.31061
978.19        66.32948
978.58        62.90149
978.96        61.70584
979.35        62.95629
979.74        66.31355
980.12        71.07269
980.51        74.48795
980.89        75.59527
981.28        74.96143
981.66        73.57076
982.05        72.73627
982.43        72.74017
982.82         73.0779
983.20        73.73539
983.59        74.79995
983.97         76.2931
984.35        78.31417
984.74        80.24183
985.12        80.88996
985.51        79.52897
985.89        76.34541
986.28        72.23901
986.66        68.63351
987.04        66.36399
987.43        65.28606
987.81        64.78717
988.20        63.90022
988.58        62.21901
988.96        59.48266
989.35        56.35131
989.73        55.84949
990.12        59.71849
990.50        66.22781
990.88        71.55376
991.27        73.02967
991.65        71.23554
992.03        67.02905
992.42        62.13916
992.80        59.61639
993.18        60.51641
993.56        63.15555
993.95        66.28425
994.33        69.08738
994.71        71.12817
995.10        73.01317
995.48        74.20177
995.86        73.56802
996.24         70.8999
996.63        66.02268
997.01        60.32401
997.39        58.05549
997.77        61.06022
998.15        68.38223
998.54        76.23337
998.92        79.42893
999.30        76.47278
999.68        68.60048
1000.06        58.27356
1000.45        51.38891
1000.83        50.21005
1001.21        52.73322
1001.59        56.66208
1001.97        59.51197
1002.35        60.67564
1002.73        61.07603
1003.12        60.36122
1003.50        57.78424
1003.88        53.82747
1004.26        49.42297
1004.64        45.82899
1005.02        43.79024
1005.40        43.19043
1005.78         43.9407
1006.16        47.38374
1006.54        54.55598
1006.92        61.98268
1007.30        66.86456
1007.69        69.02846
1008.07        69.55075
1008.45        68.69682
1008.83        65.49942
1009.21        54.86866
1009.59        18.62126
1009.97       -79.39558
1010.35       -211.3835
1010.73       -181.5613
1011.11       -91.11433
1011.49       -27.14107
1011.86        17.16366
1012.24        42.06889
1012.62        52.48542
1013.00        53.98557
1013.38        48.75469
1013.76         39.4542
1014.14        36.15335
1014.52        47.73454
1014.90        77.25155
1015.28        114.5764
1015.66          128.22
1016.04        101.3359
1016.41        43.75534
1016.79       -8.478934
1017.17       -21.30925
1017.55        -5.73596
1017.93        17.16863
1018.31        36.37301
1018.69        46.21376
1019.06         47.9575
1019.44        43.00637
1019.82        32.20499
1020.20        22.22412
1020.58        22.28514
1020.95        43.22161
1021.33        88.68797
1021.71        5.360717
1022.09        123.0059
1022.46        144.8113
1022.84        160.4025
1023.22        178.7475
1023.60        219.0375
1023.97        607.8619
1024.35       -50.22469
1024.73        22.17646
