SpectraSmart Spectrum 2.9.0.0
--------- Device Information -----------
Spectrum Name :  反射率_0
Saving Time :  2024/04/25 23:51:29
Spectro-Module Model Name : SE2030-DUVN
Spectro-Module Serial Number : OS361AC55029948
Wavelength Start : 200
Wavelength End : 1025
Wavelength Unit : Wavelength(nm)
Spectrum Unit : Reflectance(%)
-----------Spectrum Setting ------------
Integration Time : 20ms
Average : 10
Boxcar : 0
Background removal :  enabled
linearity correction :  enabled
SC :  disabled
Intensity correction :  disabled
DWT denoise :  enabled
savitzky-golay :  disabled
FFT :  disabled
Running average :  disabled
Kalman :  disabled
High pass :  disabled
---------------BEGIN--------------------
Wavelength(nm)             Reflectance(%)
200.29               0
200.75        88.57066
201.21        83.80011
201.67        77.89664
202.13        74.47295
202.58        73.95319
203.04        75.67039
203.50        78.00494
203.96         78.2567
204.42        76.06422
204.88        72.74672
205.34        69.60857
205.80        67.63812
206.26        66.85908
206.72        67.19198
207.18        68.64546
207.64        68.98743
208.10        65.85474
208.55         62.3141
209.01        60.90145
209.47         61.8092
209.93        64.34972
210.39        68.54451
210.85        72.57134
211.31        72.31773
211.77        66.81498
212.23        57.63393
212.69         48.9952
213.14         47.4985
213.60        53.96352
214.06        66.47326
214.52        80.16713
214.98          87.478
215.44        86.66161
215.90        80.40538
216.36        72.07027
216.81        66.35781
217.27        64.68863
217.73        65.28506
218.19        66.32835
218.65        65.51409
219.11        61.90204
219.57        55.24663
220.02        46.19481
220.48        40.01008
220.94        39.82664
221.40        44.86034
221.86        49.97689
222.32        49.64418
222.77        44.49684
223.23        37.59405
223.69        32.49526
224.15        32.95089
224.61        38.30259
225.06         46.5378
225.52         54.3885
225.98        57.66347
226.44        55.69017
226.90        50.32963
227.36        44.03069
227.81        40.09966
228.27        39.61364
228.73        41.30064
229.19        44.08802
229.65        46.38386
230.10        47.63013
230.56        48.35069
231.02        48.85485
231.48        49.44363
231.93        50.16755
232.39        50.90186
232.85        51.43367
233.31        51.54682
233.77        51.18967
234.22        50.39931
234.68        49.48885
235.14        49.01415
235.60         49.1396
236.05        49.74333
236.51        50.32244
236.97        50.05996
237.43        48.73741
237.88        46.46259
238.34        43.65854
238.80        41.94918
239.26        42.25387
239.71        44.35437
240.17        47.31972
240.63        49.73419
241.08        51.08104
241.54        51.71518
242.00        51.76608
242.46        51.32752
242.91        50.35009
243.37        47.37479
243.83        40.92077
244.28        39.06648
244.74        72.46681
245.20        98.81651
245.66        100.9154
246.11        99.58175
246.57         97.4243
247.03        90.61487
247.48        59.36926
247.94        32.02662
248.40        54.70393
248.85        66.52215
249.31        72.29644
249.77        75.63258
250.22        78.36753
250.68        81.80424
251.14        85.57564
251.59        85.74785
252.05        79.99657
252.51        70.93188
252.96        62.60573
253.42        58.57405
253.88        58.01529
254.33         59.4726
254.79        62.65785
255.25        66.47397
255.70        69.92821
256.16        73.14159
256.62        74.57245
257.07        72.64422
257.53        68.26845
257.99        62.15723
258.44        56.39888
258.90        54.17577
259.35        54.57596
259.81        56.19627
260.27        56.88696
260.72        54.60436
261.18        50.10273
261.63         44.4029
262.09        39.27953
262.55        36.17632
263.00        35.01414
263.46        35.07427
263.91        35.31384
264.37        34.84371
264.83        33.53154
265.28        31.63258
265.74        29.83901
266.19        28.94589
266.65        29.10404
267.11        29.84182
267.56        30.50656
268.02        30.33349
268.47        29.23795
268.93        27.50434
269.38        25.58007
269.84         24.4489
270.30        24.36823
270.75        25.05274
271.21        25.95859
271.66        26.28199
272.12        25.81534
272.57        24.81346
273.03        23.71091
273.48        23.08091
273.94        23.07183
274.39        23.44318
274.85        23.85003
275.31        23.79708
275.76        23.18911
276.22        22.24295
276.67        21.25966
277.13        20.74298
277.58        20.72959
278.04        21.04991
278.49        21.38139
278.95        21.32515
279.40        20.79847
279.86        20.01314
280.31        19.16421
280.77        18.63569
281.22        18.47089
281.68        18.54679
282.13        18.72184
282.59        18.82808
283.04        18.80777
283.50        18.74205
283.95        18.61885
284.41        18.42699
284.86        18.17376
285.32        17.86403
285.77        17.57791
286.22        17.49696
286.68        17.62249
287.13        17.88684
287.59        18.13058
288.04         18.1107
288.50        17.80812
288.95        17.29565
289.41        16.74642
289.86        16.32691
290.32        16.13003
290.77        16.08368
291.22        16.15706
291.68         16.2683
292.13        16.39411
292.59         16.5582
293.04        16.77499
293.50         17.0627
293.95        17.41023
294.40        17.78099
294.86         18.1306
295.31        18.40849
295.77        18.60895
296.22         18.7517
296.68        18.86835
297.13        18.98306
297.58        19.12463
298.04        19.29911
298.49        19.52309
298.95        19.85181
299.40        20.27876
299.85        20.78536
300.31        21.30679
300.76        21.75536
301.21        22.09142
301.67        22.35245
302.12        22.54387
302.58        22.71862
303.03        22.87766
303.48        23.01273
303.94        23.16736
304.39        23.37938
304.84        23.65527
305.30        23.97783
305.75        24.26085
306.20        24.37814
306.66        24.33031
307.11        24.15396
307.57         23.9595
308.02         23.8485
308.47        23.87215
308.93        23.99243
309.38        24.17329
309.83         24.3832
310.29        24.58712
310.74        24.78302
311.19        24.93653
311.65        24.99586
312.10        24.95389
312.55        24.82698
313.00        24.63573
313.46        24.42653
313.91        24.21752
314.36        24.02057
314.82        23.88038
315.27        23.85165
315.72        23.94169
316.18        24.12739
316.63        24.35033
317.08        24.49059
317.53        24.51072
317.99        24.43133
318.44        24.30592
318.89        24.22612
319.35        24.21128
319.80        24.23873
320.25        24.25453
320.70        24.17373
321.16        23.98215
321.61        23.71293
322.06        23.43031
322.51        23.22769
322.97        23.11726
323.42         23.0763
323.87        23.04502
324.32        22.92612
324.78         22.6974
325.23         22.3992
325.68          22.082
326.13        21.82824
326.59        21.66179
327.04        21.57606
327.49        21.55036
327.94        21.55128
328.39        21.56547
328.85        21.59383
329.30        21.66088
329.75        21.77419
330.20        21.92778
330.66        22.08941
331.11        22.24603
331.56        22.33976
332.01        22.35522
332.46        22.29727
332.92         22.1928
333.37         22.1146
333.82        22.08367
334.27        22.10377
334.72        22.13579
335.17        22.10919
335.63        22.01023
336.08         21.8607
336.53        21.74724
336.98        21.81212
337.43        22.07341
337.88        22.48447
338.34        22.88186
338.79        23.04451
339.24        22.89877
339.69         22.5126
340.14        22.06375
340.59        21.86351
341.05         21.9842
341.50        22.32939
341.95        22.73825
342.40        22.97533
342.85        22.98279
343.30        22.84524
343.75        22.62806
344.20        22.44424
344.66        22.33652
345.11        22.23366
345.56         22.1549
346.01        22.13034
346.46        22.15041
346.91        22.23088
347.36        22.26307
347.81        22.06555
348.26        21.63494
348.72        21.06551
349.17        20.52673
349.62        20.37628
350.07        20.68651
350.52        21.32745
350.97        22.09331
351.42        22.67118
351.87        22.96239
352.32        23.04604
352.77        22.97949
353.22        22.86145
353.67        22.73573
354.13        22.57592
354.58        22.38779
355.03        22.22308
355.48        22.09721
355.93        22.02419
356.38        21.98174
356.83        21.91781
357.28        21.81734
357.73        21.68571
358.18        21.55304
358.63        21.46758
359.08        21.43669
359.53        21.44837
359.98        21.44348
360.43        21.33306
360.88         21.1051
361.33        20.78433
361.78        20.46684
362.23        20.30879
362.68        20.33448
363.13        20.48677
363.58        20.64368
364.03         20.6129
364.48        20.35719
364.93        19.95207
365.38        19.49559
365.83        19.14485
366.28        18.95166
366.73        18.86156
367.18         18.8589
367.63        18.91791
368.08        19.00727
368.53        19.13231
368.98        19.22581
369.43        19.17779
369.88        18.97699
370.33        18.65884
370.78        18.30729
371.23        18.07261
371.68        17.99943
372.13        18.03999
372.58        18.16184
373.03        18.30142
373.48        18.42052
373.93        18.53793
374.38        18.60148
374.83        18.53046
375.28        18.32113
375.72        17.98219
376.17        17.63621
376.62        17.44737
377.07        17.45574
377.52        17.61211
377.97        17.81764
378.42        17.90818
378.87        17.83952
379.32        17.66537
379.77        17.45115
380.22        17.28906
380.67        17.20391
381.11        17.16751
381.56        17.14202
382.01        17.07818
382.46        16.96246
382.91        16.81077
383.36        16.66356
383.81        16.57998
384.26        16.56982
384.71        16.61449
385.15        16.64522
385.60        16.57259
386.05        16.37576
386.50        16.07773
386.95        15.76834
387.40        15.60455
387.85        15.62262
388.29         15.7666
388.74        15.92698
389.19        15.94156
389.64        15.78662
390.09        15.50377
390.54        15.20646
390.98        15.08431
391.43        15.18705
391.88        15.44084
392.33        15.70109
392.78        15.75703
393.23        15.58394
393.67         15.2586
394.12        14.93999
394.57        14.79399
395.02        14.85389
395.47        15.05601
395.91        15.31728
396.36        15.46847
396.81        15.45694
397.26        15.32526
397.71        15.13489
398.15        14.96096
398.60        14.85359
399.05        14.79494
399.50        14.74685
399.95        14.61516
400.39        14.45576
400.84        14.24479
401.29        14.07328
401.74        14.07278
402.18        14.27507
402.63         14.6106
403.08        14.96446
403.53        15.15458
403.97        15.13525
404.42        14.96095
404.87        14.70945
405.32        14.52042
405.76        14.44124
406.21        14.43302
406.66        14.46812
407.11        14.51228
407.55        14.55383
408.00        14.60383
408.45        14.64589
408.90        14.63478
409.34        14.56321
409.79        14.44573
410.24        14.32567
410.68        14.26591
411.13        14.28309
411.58        14.36298
412.03        14.47655
412.47        14.57227
412.92        14.61932
413.37        14.62837
413.81        14.62281
414.26        14.65549
414.71        14.72671
415.15        14.82185
415.60        14.88396
416.05        14.84349
416.49        14.69007
416.94        14.46372
417.39        14.22497
417.83        14.07527
418.28        14.05241
418.73        14.11732
419.17        14.23936
419.62        14.36349
420.07        14.46878
420.51        14.56829
420.96        14.63611
421.41        14.62531
421.85        14.52949
422.30        14.38332
422.74        14.22854
423.19        14.16125
423.64        14.18597
424.08        14.28403
424.53        14.40998
424.98        14.51062
425.42        14.56966
425.87        14.59574
426.31        14.58648
426.76        14.58292
427.21         14.5717
427.65        14.44592
428.10        14.30452
428.54        14.39615
428.99        14.73895
429.44        15.22518
429.88         15.6651
430.33        15.81238
430.77        15.62462
431.22        15.18428
431.66         14.6949
432.11         14.5261
432.56        14.71347
433.00         15.0641
433.45        15.40524
433.89         15.6457
434.34         15.6786
434.78        15.38957
435.23        15.00084
435.67        14.98319
436.12        15.28735
436.57        15.38354
437.01        15.23118
437.46         15.1518
437.90        15.18079
438.35        15.21985
438.79        15.25628
439.24        15.31575
439.68        15.40182
440.13        15.44545
440.57        15.45739
441.02        15.66556
441.46         15.9458
441.91        15.74523
442.35        15.20249
442.80        14.97384
443.24        15.04669
443.69        15.17955
444.13         15.2691
444.58        15.14467
445.02        14.85309
445.47        14.75076
445.91        14.82735
446.36        14.80033
446.80        14.66494
447.24        14.59575
447.69        14.60541
448.13        14.61533
448.58        14.62706
449.02        14.66377
449.47         14.7007
449.91        14.69367
450.36        14.64169
450.80         14.5514
451.25        14.47562
451.69        14.48761
452.13        14.60036
452.58        14.77452
453.02         14.9575
453.47        15.06543
453.91        15.07908
454.36        15.02751
454.80        14.93022
455.24        14.82054
455.69        14.72727
456.13        14.63821
456.58        14.58968
457.02         14.6119
457.46        14.71265
457.91        14.87549
458.35        15.05795
458.79        15.18244
459.24        15.23737
459.68        15.22711
460.13         15.1979
460.57        15.18532
461.01        15.21774
461.46        15.27617
461.90        15.34344
462.34        15.38394
462.79        15.38586
463.23        15.35397
463.68        15.32583
464.12        15.36315
464.56        15.47645
465.01        15.65523
465.45        15.80165
465.89         15.8276
466.34        15.73461
466.78        15.46942
467.22        15.17215
467.67        15.22311
468.11        15.58024
468.55        15.77007
468.99        15.73833
469.44        15.71775
469.88          15.758
470.32        15.91644
470.77        16.12038
471.21        16.13518
471.65         15.9406
472.10        15.70975
472.54        15.52999
472.98        15.48989
473.42        15.61784
473.87        15.88862
474.31         16.1997
474.75        16.38404
475.20        16.40689
475.64          16.308
476.08        16.17303
476.52        16.13525
476.97        16.22682
477.41        16.40684
477.85        16.59987
478.29        16.71736
478.74        16.73763
479.18        16.61353
479.62        16.41818
480.06        16.53818
480.50         16.6516
480.95        16.77972
481.39        16.77807
481.83        16.77623
482.27        16.76793
482.72        16.61337
483.16        16.39175
483.60        16.45215
484.04        16.79974
484.48        16.96887
484.93        17.15151
485.37        17.54343
485.81        18.03401
486.25        18.31435
486.69         23.5694
487.14        19.14799
487.58        12.73423
488.02        15.55735
488.46        17.50904
488.90         17.5259
489.34        17.71379
489.79        17.63982
490.23         18.4946
490.67        18.98672
491.11        18.88126
491.55          18.747
491.99        18.56232
492.43        18.37757
492.88        18.27126
493.32        18.33461
493.76        18.43358
494.20        18.65356
494.64        18.92632
495.08        19.24176
495.52        19.56536
495.96        19.83121
496.41        19.98955
496.85        20.11178
497.29        20.19729
497.73        19.94989
498.17        19.62982
498.61        19.84743
499.05         20.5935
499.49        20.78386
499.93        20.89831
500.37        21.02796
500.82        21.10825
501.26        21.31476
501.70        21.54239
502.14        21.62712
502.58        21.56573
503.02        21.56057
503.46        21.62611
503.90        21.63867
504.34        21.61994
504.78        21.65956
505.22        21.76283
505.66        21.90959
506.10        22.04618
506.54        22.08083
506.98        21.99962
507.42        21.83919
507.86        21.68103
508.30        21.65026
508.74        21.77208
509.18        22.00168
509.62        22.27419
510.06        22.48063
510.50         22.5866
510.94        22.63096
511.38         22.6305
511.82        22.61191
512.26        22.59156
512.70        22.55169
513.14        22.52871
513.58        22.58718
514.02        22.72389
514.46        22.91622
514.90        23.09111
515.34        23.09511
515.78        22.87762
516.22        22.64066
516.66         22.4784
517.10        22.10236
517.54         21.5449
517.98        22.36606
518.42        22.23277
518.86        22.61406
519.30        22.79232
519.74        22.99366
520.18        23.17549
520.62        23.24048
521.06        23.20396
521.50        23.07004
521.93        22.89069
522.37        22.76493
522.81        22.72069
523.25        22.73604
523.69        22.78881
524.13        22.84042
524.57        22.87485
525.01        22.90302
525.45        22.92029
525.89        22.91773
526.32        22.89118
526.76         22.8393
527.20        22.76568
527.64          22.688
528.08        22.61571
528.52        22.52539
528.96        22.41304
529.40        22.33275
529.83        22.30009
530.27        22.07962
530.71         22.1013
531.15        22.00105
531.59        21.91043
532.03        21.81668
532.46        21.76245
532.90         21.8151
533.34        21.96843
533.78        22.19432
534.22        22.40477
534.66        22.47124
535.09        22.36778
535.53        22.14533
535.97        21.88334
536.41        21.71512
536.85        21.68024
537.28        21.74262
537.72        21.85566
538.16        21.94268
538.60        21.97995
539.04        21.97751
539.47        21.96217
539.91        22.02818
540.35        22.16173
540.79        22.25368
541.22        22.29845
541.66        22.37942
542.10         22.4928
542.54        22.58122
542.97        22.65576
543.41          22.771
543.85        22.92691
544.29        23.12081
544.72        23.30081
545.16        23.39575
545.60        23.39621
546.04        23.32135
546.47        23.26806
546.91        23.39979
547.35         23.7305
547.79        24.20894
548.22        24.68881
548.66        24.92081
549.10           24.87
549.53        24.65226
549.97        24.41261
550.41        24.31281
550.84        24.40905
551.28         24.6653
551.72        25.01343
552.15        25.32677
552.59        25.55486
553.03        25.73152
553.46        25.86986
553.90        26.00965
554.34        26.16707
554.77        26.29822
555.21        26.39057
555.65        26.50854
556.08        26.66606
556.52        26.52599
556.96        26.73025
557.39        26.80884
557.83        26.95757
558.27        27.13877
558.70        27.33553
559.14        27.50446
559.57        27.62021
560.01         27.7073
560.45        27.75346
560.88        27.73918
561.32        27.69249
561.75        27.60856
562.19        27.54042
562.63        27.53107
563.06         27.5863
563.50        27.69862
563.93        27.84292
564.37        27.99133
564.80        28.12067
565.24        28.24703
565.68        28.35534
566.11        28.42617
566.55        28.48102
566.98        28.51828
567.42        28.57718
567.85        28.71321
568.29        28.95082
568.72        29.18652
569.16        29.43762
569.60        29.80179
570.03        30.12386
570.47        30.16379
570.90        30.07278
571.34         29.5528
571.77        29.90381
572.21         30.1675
572.64        30.08527
573.08        29.65533
573.51        28.82819
573.95        30.03979
574.38        31.83591
574.82        31.15911
575.25        31.18899
575.69        30.07494
576.12        29.31864
576.56        29.18612
576.99        30.04286
577.42        31.39481
577.86         31.0901
578.29        31.24072
578.73        32.55917
579.16        29.99159
579.60        27.41359
580.03        28.67792
580.47        30.68237
580.90        31.00643
581.33        30.57925
581.77        30.22276
582.20         33.0023
582.64        32.50156
583.07         27.7796
583.51        27.12987
583.94        26.51883
584.37        27.63193
584.81        28.99147
585.24        30.43264
585.68        31.07442
586.11         30.2074
586.54        28.24445
586.98        27.48527
587.41         27.6992
587.85        28.87151
588.28        29.73249
588.71        28.49009
589.15        27.56274
589.58        28.05268
590.01        28.46262
590.45        29.02127
590.88        28.92677
591.31        28.55799
591.75        28.50628
592.18        28.68595
592.61        29.36885
593.05        29.82157
593.48        30.91636
593.91        30.97237
594.35        28.75177
594.78        28.31556
595.21        28.31644
595.65        29.69216
596.08        30.88074
596.51        29.77041
596.94        29.00617
597.38        29.46729
597.81        30.95377
598.24        31.66781
598.68        31.29788
599.11        31.33207
599.54        32.53073
599.97        33.41092
600.41        31.78995
600.84        32.23261
601.27        33.13664
601.70        32.79199
602.14        33.15147
602.57        32.95305
603.00        33.52597
603.43        34.60729
603.87        35.74736
604.30        35.99564
604.73        35.49297
605.16        35.14585
605.60        35.94601
606.03        36.83327
606.46        37.73847
606.89        37.88432
607.32         37.2046
607.76        37.66782
608.19        39.06021
608.62        38.86882
609.05        38.54071
609.48        39.15927
609.92        39.42303
610.35        39.58388
610.78        41.20708
611.21        41.86579
611.64         40.3447
612.07        41.00895
612.50        41.46991
612.94        41.99551
613.37        41.97337
613.80        42.26625
614.23        42.89818
614.66        43.12417
615.09        43.54562
615.52        43.82362
615.96        44.04639
616.39        44.36217
616.82        43.93541
617.25        44.20705
617.68        44.84871
618.11        45.44157
618.54        45.81108
618.97        45.74402
619.40         45.4645
619.84        45.72731
620.27        46.46532
620.70        46.98531
621.13        47.20837
621.56        46.83897
621.99        46.49155
622.42        47.18535
622.85        48.63042
623.28        48.45333
623.71        48.20939
624.14        47.75269
624.57        47.59286
625.00        47.46497
625.43        47.43304
625.86        47.08799
626.29        47.31013
626.72        47.48424
627.15         47.3291
627.58        47.29497
628.01        47.21481
628.44        47.16286
628.87        46.85015
629.30        46.80422
629.73        46.86442
630.16        46.69608
630.59         46.2771
631.02        45.80336
631.45        45.33881
631.88        44.89405
632.31        44.49207
632.74        44.13012
633.17        43.79189
633.60        43.45008
634.03        43.09671
634.46        42.74346
634.89        42.38865
635.32        42.02807
635.75        41.66331
636.18        41.29325
636.61         40.9258
637.04        40.57394
637.47        40.23577
637.89        39.90775
638.32        39.57301
638.75        39.23147
639.18        38.88732
639.61        38.55186
640.04          38.224
640.47        37.89518
640.90        37.56971
641.33        37.25136
641.76        36.95389
642.18        36.75487
642.61        36.66251
643.04        36.56936
643.47        36.43261
643.90        36.65428
644.33         36.4664
644.76        36.49517
645.18        36.50438
645.61        36.49511
646.04        36.46083
646.47        36.39743
646.90        36.38783
647.33        36.53754
647.75        36.87811
648.18        37.40635
648.61        37.95493
649.04        38.26838
649.47        38.30693
649.89        38.03136
650.32        37.74768
650.75        38.10972
651.18        39.07515
651.61         40.0144
652.03        40.64849
652.46         40.9589
652.89        41.19305
653.32        41.17625
653.74        41.14398
654.17        42.62651
654.60        43.37477
655.03        42.27339
655.46        43.68252
655.88        46.29646
656.31        49.84999
656.74        111.8879
657.16        72.34228
657.59        25.59744
658.02        19.67525
658.45        34.67496
658.87        44.89716
659.30        47.34602
659.73        47.24111
660.15        45.62828
660.58        47.72058
661.01        49.22561
661.44        48.05697
661.86         47.8968
662.29        48.20072
662.72        48.96371
663.14        50.03521
663.57         50.2512
664.00        49.77749
664.42        49.86544
664.85        50.57978
665.27         51.1664
665.70        51.46577
666.13        51.44195
666.55        51.47926
666.98        51.20859
667.41        50.92285
667.83        50.92676
668.26        51.28928
668.69         51.8839
669.11        52.48802
669.54        53.00272
669.96        52.86058
670.39        52.58768
670.82        52.23754
671.24        52.14254
671.67        52.42916
672.09        52.97506
672.52        53.54324
672.94        54.24977
673.37        54.06064
673.80        53.90874
674.22        53.66269
674.65        53.60582
675.07        53.77936
675.50        53.93822
675.92        54.07255
676.35         54.3003
676.77        54.60811
677.20        54.91242
677.62        55.19453
678.05        55.40076
678.47        55.50724
678.90        55.64398
679.32        55.66175
679.75        55.66495
680.17        55.83473
680.60        55.98583
681.02        56.14428
681.45        56.22006
681.87         56.2107
682.30        56.15673
682.72        56.12128
683.15         56.1783
683.57        56.38726
684.00         56.7091
684.42        57.24794
684.85        57.53267
685.27        57.57594
685.70        57.50608
686.12        57.39477
686.54        57.38815
686.97        57.52077
687.39        57.67736
687.82        57.86818
688.24        58.13015
688.66        58.38742
689.09        58.37296
689.51          58.179
689.94        58.20824
690.36        58.50884
690.78        58.81561
691.21        59.06762
691.63         59.3769
692.06        59.65983
692.48        59.65903
692.90        59.46893
693.33        59.46198
693.75         59.6817
694.17        59.94808
694.60        60.20525
695.02        60.42709
695.44         60.5581
695.87        60.72993
696.29        60.96991
696.71        60.90529
697.14        60.68036
697.56        61.19205
697.98        62.21208
698.41        62.12257
698.83        61.56507
699.25         61.2235
699.68        61.34981
700.10        61.37155
700.52        61.30862
700.94        61.49298
701.37        61.86998
701.79        62.24608
702.21        62.55066
702.64        62.86605
703.06         63.1227
703.48        63.17826
703.90        63.03446
704.33        62.74086
704.75        62.41193
705.17         62.3072
705.59        62.49549
706.01        62.80928
706.44        63.11648
706.86         63.7453
707.28        63.78819
707.70         63.9444
708.12        63.99881
708.55         64.0194
708.97        64.00957
709.39        63.96006
709.81        63.91199
710.23        63.92711
710.66        64.01888
711.08        64.19838
711.50        64.38482
711.92        64.45898
712.34        64.39804
712.76        64.23096
713.19        64.05229
713.61        64.04081
714.03        64.22406
714.45        64.55212
714.87        64.90083
715.29         65.0722
715.71        65.02431
716.13        64.82152
716.56        64.58385
716.98        64.53161
717.40        64.70953
717.82        65.04652
718.24        65.43228
718.66        65.67033
719.08         65.7048
719.50        65.62916
719.92         65.5046
720.34        65.37064
720.76        65.30643
721.19        65.34284
721.61        65.63922
722.03        65.83807
722.45        65.96353
722.87         66.1258
723.29        66.32587
723.71        66.49477
724.13        66.60282
724.55        66.71519
724.97        66.85132
725.39        66.83733
725.81        66.63395
726.23        67.06848
726.65        66.80041
727.07        66.76128
727.49        66.84995
727.91        66.87028
728.33        66.90424
728.75        66.96645
729.17        67.06509
729.59        67.15946
730.01         67.2579
730.43        67.37935
730.85        67.52849
731.27        67.72929
731.69        67.92274
732.10        67.99548
732.52        67.92223
732.94        67.76505
733.36        67.67793
733.78        67.73151
734.20         67.9371
734.62        68.69352
735.04        69.70784
735.46        69.46254
735.88        68.33968
736.30        68.67003
736.72        70.34523
737.13        71.00984
737.55        70.35615
737.97        70.13156
738.39        70.42448
738.81        69.71939
739.23        68.50343
739.65        69.42191
740.06        71.91614
740.48        72.30852
740.90        70.64589
741.32        69.82158
741.74        70.14851
742.16        70.32618
742.57        70.42503
742.99        71.21175
743.41        72.41936
743.83        73.08077
744.25        73.08289
744.67        72.88727
745.08        72.68692
745.50        72.58121
745.92        72.66988
746.34        72.96596
746.75        73.36523
747.17        73.59931
747.59        73.63112
748.01        73.63403
748.42        73.71072
748.84        73.82215
749.26        74.10111
749.68        74.83187
750.09        75.81704
750.51        76.52079
750.93        76.76383
751.35        76.40672
751.76        75.68855
752.18        75.42029
752.60        75.62204
753.01        75.63195
753.43        75.46741
753.85        75.62538
754.27        76.12167
754.68        76.80925
755.10        77.51355
755.52         77.9409
755.93        78.07465
756.35        78.23844
756.77        78.53714
757.18        78.67059
757.60        78.64894
758.02        79.13314
758.43        79.76318
758.85        79.03388
759.26        77.09267
759.68        76.91545
760.10        78.27262
760.51        79.08476
760.93        78.84568
761.34        78.00803
761.76        76.97071
762.18        76.29592
762.59        76.27314
763.01        76.91163
763.42        78.03487
763.84        78.81509
764.26        79.10555
764.67        79.07858
765.09        78.82078
765.50        78.84563
765.92        79.00662
766.33        77.89691
766.75        75.97787
767.16        75.92093
767.58        76.68198
768.00        78.24759
768.41         79.8769
768.83        81.32059
769.24        81.94311
769.66        81.04921
770.07        79.25986
770.49        77.53349
770.90        76.38914
771.32        77.40612
771.73        79.84275
772.15        79.54488
772.56        76.92537
772.97        76.38441
773.39         77.9122
773.80         78.6541
774.22        78.32473
774.63        78.32724
775.05         78.6316
775.46        78.82173
775.88        78.82399
776.29        78.61666
776.70        78.29327
777.12        78.16776
777.53        78.30593
777.95         78.5592
778.36        78.79892
778.77        78.80199
779.19        78.56138
779.60        78.15542
780.02        77.76923
780.43        77.78069
780.84        78.31205
781.26        78.77612
781.67        79.12289
782.09           80.28
782.50        81.65175
782.91        80.62283
783.33        77.97009
783.74        77.07217
784.15        78.10021
784.57        79.09622
784.98        79.60233
785.39        79.42339
785.81        78.68842
786.22        78.36675
786.63        78.63172
787.04        78.86539
787.46        79.09382
787.87        79.80933
788.28        80.75852
788.70        81.18361
789.11         80.9751
789.52         80.3991
789.93        79.71472
790.35        79.26691
790.76        79.15743
791.17        79.31464
791.58         79.6391
792.00        79.86543
792.41        79.89887
792.82        79.99551
793.23        80.21183
793.65         79.8867
794.06        79.36564
794.47        80.41097
794.88        82.23345
795.29        82.10225
795.71        79.46798
796.12         77.4026
796.53        76.33988
796.94        76.10963
797.35        76.78143
797.76        78.17117
798.18        79.66737
798.59        80.63504
799.00        80.71789
799.41         79.8376
799.82        78.47293
800.23        77.63454
800.64        77.55441
801.06        77.84856
801.47        78.40427
801.88         78.9317
802.29        79.28558
802.70        79.59083
803.11        79.83677
803.52        79.86115
803.93        79.66226
804.34        79.44202
804.75        79.36726
805.17        78.76643
805.58        79.49097
805.99        79.63754
806.40        79.65311
806.81        80.40105
807.22        81.34165
807.63        80.18457
808.04        77.56245
808.45        76.49183
808.86        77.21813
809.27        78.20706
809.68        79.03147
810.09        79.59073
810.50        79.67311
810.91        79.33415
811.32        78.80278
811.73         78.4515
812.14         78.3873
812.55        78.45979
812.96        78.64088
813.37        78.87374
813.78        79.10762
814.19        79.42528
814.60        79.62568
815.01        79.37596
815.42        78.65257
815.83        77.51849
816.24        76.40915
816.65        76.09394
817.05        76.79269
817.46        78.24963
817.87        79.88503
818.28        80.65364
818.69        80.27402
819.10        79.00516
819.51        77.49136
819.92        76.86433
820.33        77.41775
820.74        78.70569
821.14        80.13076
821.55        80.86372
821.96        80.55787
822.37        79.06575
822.78        77.05507
823.19        75.95945
823.60        76.05125
824.00        76.80537
824.41        77.76765
824.82        78.42741
825.23        78.52531
825.64        78.24997
826.04        77.84761
826.45        77.67491
826.86        77.81608
827.27        78.09892
827.68        78.39918
828.08         78.5664
828.49        78.47667
828.90        78.26788
829.31        77.92964
829.72        77.43316
830.12        76.86142
830.53        76.22623
830.94        75.76001
831.35        75.76484
831.75        76.31785
832.16         77.2816
832.57        78.41967
832.97        79.21677
833.38        79.42201
833.79        79.15749
834.20        78.68651
834.60        78.42819
835.01        78.51733
835.42        78.82119
835.82        79.13716
836.23        79.04604
836.64        78.50555
837.04        77.69904
837.45        76.90625
837.86        76.55823
838.26        76.76326
838.67        77.33437
839.08        78.07972
839.48        78.64486
839.89        78.85593
840.29        78.83636
840.70        78.60603
841.11        78.18023
841.51        77.61884
841.92        76.89248
842.33        76.20786
842.73        75.92454
843.14        76.08064
843.54         76.6355
843.95        77.27824
844.35        77.53509
844.76        77.27494
845.17        76.65723
845.57        75.95904
845.98        75.61825
846.38        75.74242
846.79        76.16731
847.19        76.73428
847.60        77.07384
848.00        77.10377
848.41        76.91483
848.81        76.64996
849.22        76.44107
849.62        76.38882
850.03        76.44931
850.43        76.62503
850.84        76.83897
851.24        77.10158
851.65        77.25997
852.05        77.49842
852.46        77.93204
852.86        78.55955
853.27        79.35679
853.67        79.79587
854.07         79.1972
854.48        77.59147
854.88        75.23524
855.29        72.97006
855.69        72.00739
856.10        72.58241
856.50        74.53892
856.90        77.15849
857.31        78.76379
857.71        78.81161
858.12        77.70862
858.52        76.18946
858.92        75.23092
859.33        75.05537
859.73        75.38789
860.13        76.05869
860.54        76.72353
860.94        77.28348
861.34        77.81756
861.75        78.27348
862.15        78.64259
862.55        78.88628
862.96        78.96942
863.36         78.9423
863.76        78.87947
864.17        78.82174
864.57        78.81262
864.97         78.8971
865.38        79.12764
865.78        79.54163
866.18        80.03733
866.58        80.55116
866.99        80.95621
867.39        81.26257
867.79        81.53571
868.19        81.61165
868.60         81.1992
869.00        80.30068
869.40        79.00475
869.80        77.97205
870.21        78.20999
870.61        79.97764
871.01        82.97768
871.41        86.22126
871.81        88.01123
872.22        87.90282
872.62        86.36797
873.02        84.42104
873.42        83.81563
873.82        84.76909
874.22        86.49002
874.63        88.38705
875.03        89.16077
875.43        88.26067
875.83        87.03771
876.23        84.72832
876.63        83.64395
877.03        83.84023
877.44        85.47173
877.84        103.3552
878.24        93.62733
878.64         94.3103
879.04        94.07413
879.44        90.79179
879.84        89.02925
880.24        91.94154
880.64        93.46104
881.04        94.09357
881.44        94.22948
881.84        93.46346
882.24        92.07912
882.65        90.81798
883.05        90.31055
883.45        90.66143
883.85        91.87435
884.25        93.47716
884.65         94.4232
885.05        94.39137
885.45        93.73492
885.85        92.93736
886.25        92.67399
886.65        93.09909
887.05        93.95819
887.45        95.02908
887.85        95.92145
888.25        96.44299
888.65        96.72546
889.04        96.75211
889.44        96.53799
889.84        96.12679
890.24        95.51443
890.64        94.89627
891.04        94.58724
891.44        94.63903
891.84        94.98516
892.24          95.431
892.64        95.58937
893.04        95.39318
893.44        95.03624
893.83        94.66879
894.23        94.52588
894.63        94.64377
895.03        94.85984
895.43         95.2825
895.83        96.10072
896.23          97.257
896.63        98.69705
897.02        99.81596
897.42        99.63447
897.82        98.05643
898.22        95.46629
898.62        92.81726
899.01        91.49783
899.41        91.81069
899.81        93.28561
900.21        95.22029
900.61        96.46262
901.00          96.661
901.40        96.18226
901.80         95.4074
902.20        94.92985
902.59        94.93084
902.99        95.17082
903.39         95.4847
903.79        95.61992
904.18        95.50753
904.58        95.34635
904.98        95.21332
905.38        95.19965
905.77         95.3163
906.17        95.46457
906.57        95.70854
906.96        96.21717
907.36        96.89951
907.76        97.70809
908.15        98.30961
908.55        98.03999
908.95        96.85705
909.34        94.96552
909.74        92.97361
910.14        91.65789
910.53        91.28051
910.93        91.70184
911.33        92.67032
911.72        93.69911
912.12        94.46365
912.52        94.99191
912.91        95.41353
913.31        95.93998
913.70        96.66955
914.10        97.54317
914.49        98.17945
914.89        97.66306
915.29        95.88481
915.68        93.27647
916.08        91.02396
916.47        90.18711
916.87        90.82867
917.26        92.60548
917.66        94.61196
918.05        95.36375
918.45        94.48281
918.84        92.50001
919.24        90.35162
919.64        89.40695
920.03        90.03472
920.42        91.79275
920.82        94.05778
921.21        95.86929
921.61        96.66449
922.00        96.75237
922.40        96.29908
922.79        95.53471
923.19        94.63937
923.58        93.47282
923.98        92.07478
924.37        90.92322
924.77         90.4488
925.16        88.64932
925.55        89.44408
925.95        90.11971
926.34        91.78191
926.74        93.95798
927.13         96.1502
927.52        97.26727
927.92        97.15616
928.31        96.16302
928.70        94.62679
929.10        93.17059
929.49        91.99731
929.89        90.95369
930.28        90.40398
930.67        90.96198
931.07        92.52692
931.46        94.98283
931.85        97.30659
932.24        97.93472
932.64        96.58945
933.03        93.59328
933.42         89.8148
933.82        87.23607
934.21        86.49307
934.60        87.03141
934.99        88.08709
935.39         88.8592
935.78        89.19885
936.17        89.13517
936.56        88.36926
936.96        88.75984
937.35         86.9467
937.74        85.94682
938.13        85.28919
938.53        85.71203
938.92        87.20805
939.31        89.75288
939.70        92.66155
940.09        93.91788
940.49        92.82201
940.88         90.1927
941.27        87.35968
941.66        85.90333
942.05        86.05342
942.44        87.27497
942.84         89.1051
943.23        90.81746
943.62        91.96036
944.01        92.72043
944.40        93.06472
944.79        92.93536
945.18        92.33255
945.57        91.13508
945.97         89.4213
946.36        87.70157
946.75        86.44807
947.14        85.75672
947.53        85.53855
947.92        85.55614
948.31        85.72359
948.70        86.11662
949.09        86.70934
949.48         87.3775
949.87        87.98579
950.26        88.40602
950.65        88.67572
951.04        88.94629
951.43        89.23038
951.82        89.48331
952.21        89.43925
952.60        88.71055
952.99        87.29227
953.38        85.36353
953.77        83.46521
954.16        82.34721
954.55        82.16283
954.94        82.79632
955.33        83.64996
955.72         83.6897
956.11        82.69037
956.50        80.91377
956.89        79.24364
957.28        79.29629
957.66        81.51721
958.05        85.08283
958.44        88.81552
958.83        91.00288
959.22        91.20386
959.61        89.88011
960.00        87.70922
960.39        85.80735
960.78        84.59201
961.16        83.82659
961.55        83.21593
961.94         82.2962
962.33        81.02378
962.72        79.71983
963.11        78.76868
963.49        78.59674
963.88        79.24006
964.27        80.57513
964.66        82.18297
965.04        83.17838
965.43        83.10702
965.82        82.26474
966.21        81.23091
966.60        80.79381
966.98        81.12525
967.37        81.95505
967.76         82.9341
968.15        83.38258
968.53        83.07746
968.92        82.22256
969.31        81.21416
969.69         80.5322
970.08        80.28745
970.47        80.37032
970.86        80.45731
971.24        79.99788
971.63          78.866
972.02        77.24285
972.40        75.72165
972.79        75.32326
973.17        76.44283
973.56        78.69939
973.95        81.39263
974.33        83.11119
974.72         83.2625
975.11        82.23273
975.49        80.74535
975.88        79.85956
976.26        79.76711
976.65        80.21689
977.04        80.67092
977.42        79.94875
977.81        77.79271
978.19        74.82327
978.58        72.51633
978.96        72.23415
979.35        74.13252
979.74        77.93654
980.12        82.84021
980.51        85.85891
980.89        86.08329
981.28        84.25607
981.66         81.6723
982.05         80.0135
982.43        79.58828
982.82        79.81689
983.20        80.57465
983.59        81.78519
983.97        83.42231
984.35        85.65592
984.74        87.83167
985.12        88.72864
985.51        87.57628
985.89        84.56649
986.28        80.67793
986.66        77.52213
987.04        75.91489
987.43        75.58221
987.81        75.84003
988.20        75.78899
988.58        75.12812
988.96        73.78229
989.35        72.26918
989.73        72.78848
990.12         76.1461
990.50        81.06128
990.88        84.55682
991.27        84.63715
991.65        81.79173
992.03        76.66316
992.42        71.16591
992.80        68.74477
993.18        70.38924
993.56        74.19135
993.95        78.31081
994.33        81.17426
994.71        82.37357
995.10        82.75896
995.48        82.34135
995.86         80.8977
996.24        78.48568
996.63        74.79685
997.01        70.80766
997.39        69.57272
997.77        72.29162
998.15        78.18277
998.54         84.3151
998.92        86.78713
999.30        84.42559
999.68        78.28789
1000.06        69.86176
1000.45        63.05222
1000.83        59.76764
1001.21        58.94961
1001.59        60.00961
1001.97        62.36871
1002.35        65.73717
1002.73        70.89771
1003.12        76.61617
1003.50         78.4541
1003.88        74.41495
1004.26        66.60278
1004.64        58.89305
1005.02         54.5751
1005.40        53.84328
1005.78        56.14104
1006.16        62.57927
1006.54        71.71816
1006.92        78.48154
1007.30        81.85548
1007.69        82.94644
1008.07        83.37455
1008.45         83.6667
1008.83        83.15788
1009.21         79.7096
1009.59        64.60838
1009.97        16.47345
1010.35       -57.65382
1010.73       -53.48758
1011.11       -13.18394
1011.49        17.14095
1011.86        39.97396
1012.24        53.16164
1012.62         58.7048
1013.00        59.61367
1013.38        56.91568
1013.76        53.21121
1014.14         57.2596
1014.52        76.27711
1014.90        112.5684
1015.28        156.4199
1015.66        179.5251
1016.04        164.7314
1016.41        117.1933
1016.79        63.82907
1017.17         34.6976
1017.55        29.28861
1017.93        33.70909
1018.31        40.78082
1018.69        47.12139
1019.06        52.95613
1019.44        60.00325
1019.82        70.86852
1020.20        88.14839
1020.58         114.891
1020.95        157.5603
1021.33         234.688
1021.71       -745.0925
1022.09        53.55339
1022.46        101.9824
1022.84        120.7759
1023.22        133.7064
1023.60        153.7061
1023.97        318.5711
1024.35        45.72978
1024.73        79.76521
