SpectraSmart Spectrum 2.9.0.0
--------- Device Information -----------
Spectrum Name :  反射率_0
Saving Time :  2024/04/26 00:50:11
Spectro-Module Model Name : SE2030-DUVN
Spectro-Module Serial Number : OS361AC55029948
Wavelength Start : 200
Wavelength End : 1025
Wavelength Unit : Wavelength(nm)
Spectrum Unit : Reflectance(%)
-----------Spectrum Setting ------------
Integration Time : 20ms
Average : 10
Boxcar : 0
Background removal :  enabled
linearity correction :  enabled
SC :  disabled
Intensity correction :  disabled
DWT denoise :  enabled
savitzky-golay :  disabled
FFT :  disabled
Running average :  disabled
Kalman :  disabled
High pass :  disabled
---------------BEGIN--------------------
Wavelength(nm)             Reflectance(%)
200.29               0
200.75        78.17831
201.21        74.19284
201.67        69.69891
202.13        66.94333
202.58        66.17462
203.04        67.20699
203.50        68.94653
203.96        69.55266
204.42        68.66711
204.88        66.91823
205.34        65.43836
205.80        65.44804
206.26        67.47473
206.72         72.8561
207.18        83.08781
207.64        89.33314
208.10        78.33933
208.55        62.81256
209.01        54.15676
209.47        52.23843
209.93        54.22989
210.39        59.10315
210.85        64.32725
211.31        64.39626
211.77        57.85542
212.23         46.9539
212.69        36.29874
213.14        32.96851
213.60        38.15437
214.06        49.94218
214.52        64.00662
214.98        73.58707
215.44        76.64594
215.90        75.04888
216.36        71.29471
216.81        68.80914
217.27         68.6748
217.73        69.65431
218.19        69.97954
218.65        67.24918
219.11         60.4479
219.57        48.83233
220.02        33.77835
220.48         24.1903
220.94         25.4868
221.40        35.73841
221.86        46.56536
222.32        48.99026
222.77        43.61624
223.23        34.91956
223.69        27.47643
224.15        25.95997
224.61        29.82383
225.06         36.6813
225.52        43.14583
225.98        45.00699
226.44        41.64646
226.90        35.11731
227.36        27.92428
227.81        23.35289
228.27        22.50967
228.73        24.16097
229.19        27.32821
229.65        30.53477
230.10        33.06025
230.56        35.08455
231.02        36.75146
231.48        38.21991
231.93        39.52047
232.39        40.57184
232.85        41.08423
233.31        40.68626
233.77        39.35001
234.22        37.18844
234.68        34.81703
235.14        33.37561
235.60        33.29623
236.05        34.38727
236.51        35.91379
236.97        36.71289
237.43        36.52074
237.88        35.57579
238.34         34.4831
238.80        34.91798
239.26        37.59452
239.71        42.00745
240.17        46.80503
240.63        50.08234
241.08        51.27877
241.54        50.90439
242.00        49.67572
242.46        48.48295
242.91        47.59188
243.37        46.09929
243.83        45.00591
244.28        58.61625
244.74        105.4838
245.20        119.5153
245.66        112.7072
246.11        109.0033
246.57        108.0039
247.03        106.9726
247.48        92.58868
247.94        54.30619
248.40         58.4199
248.85        65.00184
249.31        69.42593
249.77        73.04544
250.22        77.14896
250.68        83.22173
251.14        91.15825
251.59        95.35333
252.05        90.95113
252.51        80.82896
252.96        70.40726
253.42        64.85423
253.88        63.56316
254.33        64.54571
254.79        67.67603
255.25        72.07802
255.70        76.55314
256.16         81.0983
256.62        83.66988
257.07        82.16364
257.53        77.65401
257.99        71.09077
258.44        64.90034
258.90        62.72462
259.35         63.4939
259.81        65.53503
260.27        66.48109
260.72        64.09437
261.18        59.22093
261.63        52.99846
262.09        47.24585
262.55        43.39838
263.00        41.44551
263.46        40.73512
263.91        40.33046
264.37        39.48442
264.83        38.01234
265.28        36.10419
265.74        34.30143
266.19        33.16948
266.65        32.87429
267.11         33.0462
267.56        33.19475
268.02        32.73582
268.47        31.57282
268.93        29.92696
269.38        28.10169
269.84        26.84139
270.30        26.35545
270.75        26.44501
271.21        26.76114
271.66        26.78178
272.12         26.3546
272.57         25.6476
273.03        24.90706
273.48        24.42068
273.94        24.27803
274.39        24.32626
274.85        24.39473
275.31        24.24338
275.76         23.8128
276.22        23.21543
276.67        22.57625
277.13        22.15166
277.58        21.94437
278.04        21.89617
278.49        21.83393
278.95        21.56391
279.40        21.03672
279.86        20.37932
280.31        19.70011
280.77        19.25915
281.22        19.06551
281.68         19.0502
282.13         19.0981
282.59        19.07072
283.04         18.9341
283.50        18.77076
283.95        18.59217
284.41        18.42671
284.86        18.28569
285.32        18.15349
285.77        18.09726
286.22        18.27805
286.68        18.67307
287.13         19.2019
287.59        19.66078
288.04        19.74322
288.50        19.42906
288.95        18.81947
289.41        18.14205
289.86        17.64245
290.32        17.44015
290.77         17.4449
291.22        17.61602
291.68        17.85124
292.13        18.11714
292.59        18.44703
293.04        18.84046
293.50        19.29088
293.95          19.778
294.40        20.26089
294.86        20.71522
295.31        21.12631
295.77        21.49584
296.22        21.83666
296.68        22.14597
297.13        22.39031
297.58        22.59071
298.04        22.77603
298.49        23.01806
298.95        23.45928
299.40        24.10883
299.85        24.91864
300.31        25.76581
300.76        26.46607
301.21        26.95308
301.67        27.29636
302.12        27.53626
302.58        27.78987
303.03        28.06912
303.48        28.34264
303.94        28.64095
304.39        28.97916
304.84        29.35728
305.30        29.77156
305.75        30.12587
306.20        30.27888
306.66        30.23834
307.11        30.04736
307.57        29.84604
308.02        29.77177
308.47         29.8833
308.93        30.12431
309.38        30.43852
309.83        30.76652
310.29        31.05853
310.74        31.31444
311.19        31.48713
311.65         31.5051
312.10        31.36223
312.55        31.08493
313.00        30.72415
313.46        30.38061
313.91        30.08863
314.36        29.84669
314.82        29.68328
315.27        29.61839
315.72         29.6497
316.18        29.76593
316.63        29.90505
317.08        29.94035
317.53        29.83835
317.99        29.61982
318.44        29.36091
318.89        29.19196
319.35        29.13424
319.80        29.15108
320.25         29.1577
320.70        29.01708
321.16        28.70294
321.61        28.27047
322.06        27.79949
322.51        27.40477
322.97        27.10941
323.42        26.88679
323.87         26.6967
324.32        26.47846
324.78        26.21225
325.23        25.92337
325.68         25.6263
326.13        25.34324
326.59         25.0773
327.04           24.84
327.49        24.61475
327.94         24.3807
328.39        24.13782
328.85        23.88254
329.30        23.68126
329.75        23.61092
330.20        23.68125
330.66        23.84618
331.11        24.03164
331.56        24.07186
332.01        23.92117
332.46        23.60794
332.92        23.20859
333.37        22.89787
333.82        22.73293
334.27        22.68821
334.72        22.69146
335.17          22.614
335.63        22.41932
336.08        22.15065
336.53        21.90133
336.98        21.81926
337.43        21.92816
337.88         22.1771
338.34        22.40908
338.79        22.41869
339.24        22.13592
339.69        21.62316
340.14        21.06255
340.59          20.772
341.05        20.82216
341.50        21.11688
341.95        21.46926
342.40         21.6002
342.85        21.44681
343.30        21.10912
343.75        20.69023
344.20        20.37357
344.66        20.22078
345.11        20.13192
345.56         20.1005
346.01        20.11694
346.46        20.15137
346.91        20.22943
347.36        20.22128
347.81         19.9116
348.26        19.30054
348.72         18.4977
349.17        17.71991
349.62        17.40866
350.07        17.65685
350.52        18.30552
350.97         19.1196
351.42        19.73554
351.87        20.03499
352.32        20.11688
352.77        20.01564
353.22        19.79465
353.67        19.50164
354.13        19.11726
354.58        18.71904
355.03        18.47442
355.48        18.41718
355.93        18.52665
356.38        18.68727
356.83        18.69525
357.28        18.50232
357.73        18.16325
358.18        17.79219
358.63        17.57159
359.08        17.54336
359.53        17.64966
359.98        17.77691
360.43        17.75251
360.88         17.5402
361.33        17.19627
361.78        16.83956
362.23        16.65928
362.68        16.69185
363.13        16.86314
363.58        17.04892
364.03        17.05912
364.48        16.85081
364.93        16.49712
365.38        16.08375
365.83        15.74497
366.28        15.52984
366.73         15.3963
367.18        15.33477
367.63        15.33135
368.08        15.36377
368.53        15.43302
368.98        15.49662
369.43         15.4815
369.88        15.37726
370.33        15.20951
370.78        15.00841
371.23        14.83342
371.68        14.70928
372.13        14.61271
372.58        14.57662
373.03         14.6519
373.48        14.82888
373.93        15.08701
374.38        15.31679
374.83        15.34931
375.28        15.15808
375.72        14.78475
376.17         14.3762
376.62         14.1343
377.07        14.11562
377.52        14.25505
377.97        14.46524
378.42        14.60165
378.87        14.61741
379.32        14.56209
379.77        14.46444
380.22        14.36197
380.67        14.27104
381.11         14.1755
381.56        14.08151
382.01        14.01328
382.46        13.97448
382.91        13.96203
383.36        13.96187
383.81         13.9458
384.26        13.90561
384.71        13.85005
385.15        13.77782
385.60        13.69507
386.05        13.60106
386.50        13.49139
386.95        13.38339
387.40        13.30963
387.85        13.27978
388.29        13.28696
388.74        13.30398
389.19        13.28152
389.64        13.21187
390.09        13.10212
390.54        12.99535
390.98        12.96182
391.43        13.02231
391.88        13.14636
392.33        13.26414
392.78        13.27369
393.23        13.16561
393.67        12.97054
394.12        12.78599
394.57         12.7024
395.02        12.73782
395.47        12.85952
395.91        13.00994
396.36        13.06845
396.81        13.00387
397.26        12.84251
397.71        12.65029
398.15        12.51122
398.60        12.46435
399.05         12.4876
399.50        12.51244
399.95        12.40666
400.39        12.21051
400.84         11.9177
401.29        11.64589
401.74        11.58382
402.18        11.78143
402.63        12.15558
403.08        12.56243
403.53         12.7735
403.97         12.7313
404.42        12.50641
404.87        12.19856
405.32        11.98384
405.76        11.91921
406.21        11.94847
406.66        12.02625
407.11        12.09357
407.55        12.13261
408.00        12.16567
408.45        12.18238
408.90        12.14999
409.34        12.06698
409.79        11.94025
410.24        11.81761
410.68        11.76967
411.13        11.81106
411.58        11.92852
412.03        12.07274
412.47        12.15474
412.92        12.14001
413.37        12.05206
413.81        11.95071
414.26        11.94281
414.71        12.04012
415.15        12.21155
415.60        12.36777
416.05        12.38671
416.49        12.24145
416.94        11.98485
417.39        11.69781
417.83        11.51829
418.28        11.49312
418.73         11.5687
419.17         11.6952
419.62        11.78755
420.07        11.82125
420.51        11.82426
420.96        11.78997
421.41        11.70267
421.85        11.56909
422.30        11.41178
422.74        11.26684
423.19        11.21654
423.64         11.2604
424.08        11.38078
424.53        11.52568
424.98        11.62491
425.42        11.65655
425.87        11.63508
426.31        11.56779
426.76        11.50589
427.21        11.44396
427.65        11.29119
428.10         11.1363
428.54        11.18772
428.99        11.46063
429.44        11.87056
429.88        12.24542
430.33        12.35196
430.77        12.15418
431.22        11.72906
431.66        11.26978
432.11        11.11194
432.56        11.29204
433.00        11.65328
433.45        12.02485
433.89        12.25774
434.34        12.24786
434.78        11.94337
435.23        11.56122
435.67        11.50836
436.12        11.75599
436.57        11.88135
437.01        11.82712
437.46        11.79709
437.90        11.80418
438.35        11.79004
438.79        11.74959
439.24        11.70998
439.68         11.6804
440.13        11.60471
440.57        11.51306
441.02        11.60714
441.46        11.79934
441.91          11.676
442.35        11.30344
442.80        11.12048
443.24        11.10756
443.69            11.1
444.13        11.05572
444.58        10.91402
445.02         10.7199
445.47        10.70814
445.91         10.8353
446.36        10.83723
446.80        10.69543
447.24        10.55978
447.69        10.46703
448.13        10.40012
448.58        10.37446
449.02        10.39286
449.47        10.42763
449.91        10.43212
450.36        10.39799
450.80        10.33213
451.25        10.27304
451.69        10.27131
452.13        10.33642
452.58        10.43823
453.02         10.5361
453.47        10.56078
453.91        10.50285
454.36        10.39055
454.80        10.25416
455.24        10.14639
455.69        10.09353
456.13         10.0732
456.58        10.09956
457.02        10.17682
457.46        10.30226
457.91        10.46753
458.35        10.62969
458.79        10.70964
459.24        10.70082
459.68        10.61172
460.13        10.51082
460.57        10.47418
461.01        10.53277
461.46        10.65503
461.90        10.79338
462.34        10.85834
462.79        10.82895
463.23        10.72678
463.68        10.61544
464.12        10.59843
464.56        10.70168
465.01        10.89219
465.45         11.0724
465.89        11.13878
466.34        11.08278
466.78         10.8818
467.22        10.64736
467.67        10.66542
468.11        10.91299
468.55        11.05347
468.99        11.04313
469.44        11.03647
469.88        11.06707
470.32        11.17816
470.77        11.32561
471.21        11.35767
471.65        11.25817
472.10        11.14371
472.54        11.05929
472.98        11.04665
473.42        11.12279
473.87        11.27901
474.31        11.45683
474.75        11.55576
475.20        11.55872
475.64          11.489
476.08        11.40954
476.52        11.41847
476.97        11.53601
477.41        11.73314
477.85        11.94206
478.29        12.07594
478.74        12.11319
479.18        12.02213
479.62        11.87022
480.06        11.96319
480.50        12.07245
480.95        12.20385
481.39        12.23816
481.83        12.24673
482.27        12.22602
482.72        12.09163
483.16        11.90832
483.60        11.95555
484.04         12.2515
484.48        12.39641
484.93        12.55849
485.37        12.99885
485.81        13.58337
486.25        13.75196
486.69        17.91515
487.14          14.174
487.58         9.62999
488.02        11.75847
488.46        13.23003
488.90        13.24767
489.34        13.41767
489.79        13.38189
490.23        14.04023
490.67        14.50792
491.11        14.56324
491.55        14.47214
491.99        14.23255
492.43        14.06053
492.88        14.03254
493.32        14.11012
493.76        14.20378
494.20         14.4535
494.64        14.81019
495.08        15.23085
495.52        15.65643
495.96        16.01814
496.41        16.25087
496.85        16.35024
497.29        16.35615
497.73        16.17735
498.17        16.02584
498.61        16.28606
499.05        16.93053
499.49        17.10642
499.93        17.20373
500.37        17.26911
500.82        17.29152
501.26        17.49924
501.70        17.81546
502.14        18.07321
502.58        18.21587
503.02        18.33001
503.46        18.40674
503.90        18.36987
504.34        18.27009
504.78        18.23385
505.22        18.28721
505.66        18.40202
506.10        18.53578
506.54        18.61501
506.98         18.6228
507.42        18.58659
507.86        18.56112
508.30        18.62889
508.74         18.8011
509.18        19.04054
509.62        19.28701
510.06        19.44293
510.50        19.48542
510.94        19.45761
511.38        19.39143
511.82        19.33645
512.26        19.31566
512.70        19.30642
513.14        19.34282
513.58        19.48103
514.02        19.70725
514.46        19.99495
514.90          20.249
515.34        20.28316
515.78        20.04071
516.22        19.73693
516.66         19.4918
517.10        19.04564
517.54        18.44248
517.98        19.29293
518.42         19.1578
518.86        19.53974
519.30        19.68707
519.74         19.8485
520.18        19.98155
520.62        19.98621
521.06        19.88281
521.50        19.67256
521.93        19.42899
522.37        19.28828
522.81        19.28124
523.25        19.37278
523.69        19.50195
524.13        19.56998
524.57        19.54857
525.01        19.46678
525.45        19.35579
525.89        19.26627
526.32        19.21171
526.76        19.17372
527.20        19.13186
527.64        19.06435
528.08        18.96932
528.52        18.84093
528.96        18.69215
529.40        18.59111
529.83        18.55702
530.27        18.38488
530.71        18.41945
531.15        18.33854
531.59         18.2472
532.03        18.14044
532.46          18.066
532.90        18.10204
533.34        18.24547
533.78        18.46235
534.22        18.66344
534.66        18.71882
535.09        18.60163
535.53        18.36362
535.97        18.08075
536.41        17.87841
536.85        17.79763
537.28        17.80808
537.72        17.87434
538.16        17.93661
538.60        17.97516
539.04        17.99599
539.47        18.02035
539.91        18.12351
540.35        18.29058
540.79        18.42923
541.22        18.52235
541.66         18.6201
542.10        18.71852
542.54        18.77798
542.97        18.82531
543.41        18.93431
543.85        19.11277
544.29        19.35109
544.72        19.59615
545.16        19.77266
545.60        19.86512
546.04        19.88986
546.47        19.92788
546.91        20.11742
547.35        20.46862
547.79        20.93767
548.22        21.39551
548.66        21.62172
549.10        21.59153
549.53        21.41301
549.97        21.22762
550.41        21.19719
550.84        21.37469
551.28         21.7207
551.72        22.16751
552.15         22.5878
552.59        22.92341
553.03        23.20203
553.46        23.42061
553.90        23.59688
554.34        23.74601
554.77        23.83232
555.21        23.86845
555.65         23.9518
556.08        24.10536
556.52        24.01797
556.96        24.24695
557.39        24.32821
557.83        24.43398
558.27        24.54574
558.70        24.67708
559.14        24.83235
559.57        24.99798
560.01        25.17948
560.45        25.33891
560.88        25.41766
561.32        25.42972
561.75        25.38154
562.19         25.3364
562.63        25.35632
563.06        25.45285
563.50          25.611
563.93        25.79946
564.37        25.98012
564.80        26.12895
565.24         26.2671
565.68        26.38799
566.11        26.48372
566.55        26.57687
566.98        26.66175
567.42        26.77053
567.85        26.94768
568.29        27.21514
568.72        27.47604
569.16        27.73608
569.60        28.11769
570.03         28.4931
570.47        28.52947
570.90        28.35278
571.34           28.11
571.77        28.45766
572.21        28.58713
572.64        28.73755
573.08        28.33599
573.51        27.55286
573.95        28.80912
574.38        30.66411
574.82          30.146
575.25        29.87647
575.69        28.82417
576.12        28.29763
576.56        28.15478
576.99        28.70018
577.42        30.16339
577.86        30.07108
578.29        29.70469
578.73        31.37548
579.16        28.85191
579.60        26.37217
580.03        27.51763
580.47        29.28007
580.90        29.66522
581.33        29.08161
581.77        28.59443
582.20        31.02517
582.64        30.80471
583.07        26.41029
583.51        25.82399
583.94        25.05894
584.37        25.95306
584.81        27.19369
585.24        28.51727
585.68        29.03134
586.11        28.51669
586.54        26.26589
586.98        25.60392
587.41         25.9493
587.85        27.02625
588.28        27.73836
588.71          26.293
589.15        25.51475
589.58        26.02667
590.01        26.27436
590.45        26.78627
590.88        26.71633
591.31        26.38007
591.75        26.32029
592.18        26.43369
592.61        26.99961
593.05         27.4065
593.48        28.78004
593.91        28.56995
594.35         26.4827
594.78        26.11002
595.21        26.37102
595.65        27.73507
596.08        28.71813
596.51        27.71058
596.94        27.19405
597.38         27.6739
597.81        28.90559
598.24        30.05457
598.68        29.67395
599.11        29.64806
599.54        30.88664
599.97         31.8387
600.41        30.40443
600.84        30.92516
601.27        31.82247
601.70        31.82468
602.14        32.21645
602.57        32.19472
603.00        32.85486
603.43        34.11305
603.87         35.4907
604.30        35.66003
604.73        34.84034
605.16        34.87742
605.60        35.86789
606.03        37.04668
606.46         37.9846
606.89        38.30983
607.32        37.72653
607.76        38.04073
608.19        39.65669
608.62        39.46951
609.05        39.12899
609.48        39.71394
609.92        39.96642
610.35        40.10682
610.78        41.82654
611.21        42.84662
611.64        41.11306
612.07        41.86134
612.50        42.42041
612.94        43.03079
613.37        43.05268
613.80        43.41545
614.23        44.15213
614.66        44.37849
615.09        44.89809
615.52        45.22746
615.96        45.46551
616.39        45.87911
616.82        45.72364
617.25        45.44152
617.68        46.38784
618.11        47.02058
618.54        47.56092
618.97        47.38015
619.40        46.81736
619.84        46.71923
620.27        47.74269
620.70        48.39473
621.13        48.73487
621.56        48.28327
621.99        47.96918
622.42        48.56096
622.85        49.90494
623.28        49.85727
623.71        49.49534
624.14        49.31528
624.57        49.42299
625.00        48.94436
625.43        49.22097
625.86        48.60167
626.29        48.42049
626.72        48.80636
627.15        48.32635
627.58        48.33702
628.01        48.27802
628.44        48.17717
628.87        48.02705
629.30        47.73746
629.73        47.55061
630.16        47.33994
630.59         46.7803
631.02        46.27702
631.45        45.75248
631.88        45.25053
632.31        44.77969
632.74        44.33616
633.17         43.9171
633.60         43.4989
634.03        43.07358
634.46        42.66935
634.89        42.26028
635.32        41.75458
635.75        41.17323
636.18        40.64181
636.61         40.1755
637.04        39.69774
637.47        39.20948
637.89         38.7693
638.32         38.3606
638.75        37.95072
639.18        37.54289
639.61        37.15778
640.04        36.79946
640.47         36.4667
640.90        36.16109
641.33        35.87748
641.76        35.61611
642.18        35.43287
642.61        35.33147
643.04         35.2164
643.47        35.05373
643.90        35.24252
644.33        35.05109
644.76        35.07843
645.18        35.10906
645.61        35.16214
646.04         35.2317
646.47        35.30907
646.90        35.44809
647.33        35.70666
647.75        36.10708
648.18        36.66029
648.61        37.23261
649.04        37.62343
649.47        37.80516
649.89        37.72099
650.32        37.65134
650.75        38.21306
651.18        39.36435
651.61        40.49535
652.03        41.32713
652.46        41.85064
652.89        42.28491
653.32        42.41907
653.74        42.56598
654.17         44.2486
654.60        45.14645
655.03        44.71189
655.46         45.6695
655.88        48.66989
656.31        52.78907
656.74        119.9338
657.16        78.22291
657.59        27.61472
658.02        21.14846
658.45        36.89221
658.87        47.96012
659.30        50.73404
659.73         50.5086
660.15        48.89985
660.58         51.4581
661.01        53.18408
661.44        51.84397
661.86        51.56305
662.29        51.81991
662.72        52.71813
663.14        54.06858
663.57        54.36422
664.00        53.75949
664.42        53.82977
664.85        54.64405
665.27        55.18794
665.70        55.30857
666.13        55.34908
666.55        55.30634
666.98        55.09085
667.41        54.84326
667.83        54.83084
668.26        55.10699
668.69         55.5645
669.11        56.03153
669.54        56.47525
669.96        56.30679
670.39         56.1184
670.82        55.89321
671.24        55.71801
671.67        55.76257
672.09        56.28408
672.52        57.02225
672.94        57.70893
673.37        57.30806
673.80        57.24052
674.22        57.28283
674.65        57.37877
675.07         57.3205
675.50        57.25759
675.92        57.18604
676.35        57.25992
676.77        57.49522
677.20        57.78408
677.62        58.08869
678.05          58.345
678.47        58.51569
678.90        58.63168
679.32        58.71017
679.75        58.66446
680.17        58.73881
680.60        58.76808
681.02        58.81197
681.45        58.76585
681.87         58.6694
682.30         58.6957
682.72        58.85116
683.15        58.98246
683.57        59.12244
684.00        59.35505
684.42        59.80279
684.85         60.0037
685.27        59.97982
685.70        59.86145
686.12        59.70257
686.54        59.62661
686.97        59.67054
687.39        59.73987
687.82        59.77151
688.24        60.02512
688.66        60.15646
689.09        60.00124
689.51        59.99253
689.94        60.03973
690.36        60.30282
690.78        60.63296
691.21        60.95417
691.63        61.18098
692.06         61.2789
692.48        61.28463
692.90        61.25198
693.33        61.25446
693.75         61.3167
694.17        61.42459
694.60        61.56597
695.02        61.66708
695.44        61.67708
695.87        61.84406
696.29        62.17591
696.71        61.85081
697.14        61.53587
697.56        62.00894
697.98        63.16692
698.41        63.12996
698.83        62.54094
699.25        62.21352
699.68        62.39083
700.10        62.42538
700.52         62.3302
700.94        62.45638
701.37        62.75776
701.79        63.06755
702.21        63.31709
702.64        63.55792
703.06        63.72836
703.48        63.72269
703.90        63.54543
704.33        63.22935
704.75        62.87977
705.17        62.74825
705.59        62.89675
706.01        63.15543
706.44        63.40172
706.86        63.97246
707.28        63.96031
707.70        64.10057
708.12        64.15677
708.55        64.08961
708.97        63.93364
709.39        63.85583
709.81        63.89375
710.23        63.94376
710.66        64.01054
711.08        64.21031
711.50        64.44253
711.92        64.50918
712.34        64.38146
712.76        64.10266
713.19        63.81871
713.61        63.79491
714.03        64.07019
714.45        64.56307
714.87        65.06403
715.29        65.24063
715.71        65.02555
716.13        64.52998
716.56        63.96444
716.98        63.69651
717.40         63.8161
717.82        64.21055
718.24         64.7142
718.66        65.04549
719.08        65.11466
719.50        65.00803
719.92        64.81022
720.34        64.67126
720.76        64.64474
721.19        64.57723
721.61        64.65256
722.03        64.72156
722.45        64.82796
722.87         64.9744
723.29        65.15244
723.71        65.32882
724.13        65.47657
724.55        65.61542
724.97        65.73277
725.39        65.73402
725.81        65.60133
726.23        65.68525
726.65        65.43272
727.07        65.36037
727.49        65.31612
727.91        65.31616
728.33         65.3475
728.75         65.3951
729.17        65.45415
729.59        65.51437
730.01        65.59718
730.43        65.72955
730.85        65.91433
731.27        66.15453
731.69        66.37395
732.10        66.45472
732.52        66.36781
732.94        66.13637
733.36        65.91331
733.78        65.89784
734.20        66.13756
734.62        66.68141
735.04        67.54162
735.46        67.51773
735.88        66.91102
736.30        66.99215
736.72         68.1601
737.13        68.53094
737.55        68.02193
737.97        67.92514
738.39        68.26211
738.81         67.6002
739.23        66.38486
739.65        67.19859
740.06        69.52596
740.48        69.83302
740.90        68.17931
741.32        67.35532
741.74        67.65677
742.16        67.82738
742.57        67.93462
742.99        68.68702
743.41        69.81604
743.83        70.46908
744.25         70.4892
744.67        70.09608
745.08        69.56848
745.50        69.36332
745.92        69.61765
746.34        70.17226
746.75        70.81316
747.17        71.18583
747.59        71.21848
748.01        71.03009
748.42        70.82741
748.84        70.94234
749.26         71.4545
749.68        72.15336
750.09        72.86118
750.51        73.45721
750.93        73.78622
751.35        73.52259
751.76        72.85435
752.18        72.54906
752.60        72.61793
753.01        72.47244
753.43        72.19202
753.85        72.19242
754.27        72.77213
754.68        73.51743
755.10        74.30214
755.52        74.82409
755.93        75.15394
756.35        75.10666
756.77        74.89046
757.18         74.8614
757.60         75.1231
758.02        75.61707
758.43        75.80119
758.85        76.32561
759.26        73.55711
759.68        73.49136
760.10        74.83279
760.51        75.64002
760.93        75.41086
761.34        74.63906
761.76        73.71016
762.18        73.08021
762.59        73.00871
763.01        73.46549
763.42        74.34982
763.84        75.01651
764.26        75.34317
764.67        75.54359
765.09        75.60303
765.50        75.50349
765.92        75.17654
766.33        74.18234
766.75        72.92657
767.16        72.31284
767.58        72.59493
768.00        74.09316
768.41        76.38358
768.83         77.5979
769.24         77.2815
769.66        76.55681
770.07        75.80322
770.49        74.36808
770.90         72.7767
771.32         73.5319
771.73        75.96394
772.15        75.61658
772.56        72.89259
772.97        72.20787
773.39        73.55315
773.80        74.12144
774.22        73.67887
774.63        73.67821
775.05        74.04966
775.46        74.24125
775.88        74.16542
776.29        73.86241
776.70        73.49541
777.12        73.46132
777.53        73.83274
777.95        74.42548
778.36        74.98937
778.77        75.10538
779.19        74.72648
779.60        74.00164
780.02        73.23481
780.43        73.00513
780.84        73.48564
781.26        73.98404
781.67        74.41155
782.09        75.74827
782.50         77.3182
782.91         76.2825
783.33        73.44949
783.74        72.52604
784.15        73.72218
784.57        74.71075
784.98        75.05834
785.39        75.22472
785.81         75.1068
786.22        74.40108
786.63        73.50612
787.04        73.34923
787.46        74.06267
787.87        74.57462
788.28        75.96716
788.70        76.47074
789.11        76.33872
789.52        75.91135
789.93        75.39132
790.35        74.66977
790.76         73.9978
791.17        74.12435
791.58        74.89605
792.00        75.26125
792.41        75.08338
792.82        75.02784
793.23        75.21017
793.65         75.0052
794.06        74.66014
794.47        75.55999
794.88        77.04447
795.29        76.70281
795.71         74.4866
796.12        72.70036
796.53        71.82306
796.94        71.60876
797.35        72.12918
797.76        73.37057
798.18        74.75067
798.59         75.5346
799.00        75.39444
799.41        74.32363
799.82        72.89987
800.23        72.08054
800.64         72.1097
801.06        72.61585
801.47        73.39037
801.88        73.97475
802.29        74.19106
802.70         74.2045
803.11        74.09608
803.52        73.97523
803.93        73.90976
804.34        73.82065
804.75        73.74331
805.17        73.85647
805.58         74.2171
805.99        74.46755
806.40        74.51651
806.81        75.00405
807.22        75.50838
807.63        74.28618
808.04        71.95076
808.45        70.99619
808.86        71.64357
809.27         72.6581
809.68        73.59959
810.09        74.18224
810.50        74.17706
810.91        73.69552
811.32        72.99731
811.73        72.50526
812.14        72.34837
812.55        72.36059
812.96        72.52918
813.37        72.82367
813.78        73.18768
814.19        73.68979
814.60        74.08029
815.01        73.95615
815.42        73.27679
815.83        72.11604
816.24        70.94102
816.65        70.58234
817.05        71.27637
817.46        72.75443
817.87        74.40678
818.28        75.13847
818.69        74.65363
819.10        73.23727
819.51          71.564
819.92        70.77908
820.33         71.1858
820.74        72.42734
821.14         73.8989
821.55        74.52077
821.96         74.0525
822.37        72.88197
822.78        71.51466
823.19        70.68364
823.60        70.59715
824.00        71.05454
824.41        71.76357
824.82        72.34781
825.23        72.61243
825.64        72.69233
826.04        72.64236
826.45        72.52532
826.86        72.37205
827.27        72.11498
827.68        71.79419
828.08        71.53568
828.49        71.32434
828.90        71.21873
829.31        71.15292
829.72        70.98199
830.12        70.71684
830.53        70.39268
830.94        70.19544
831.35        70.37138
831.75        70.98803
832.16        71.89263
832.57        72.90247
832.97        73.62072
833.38        73.84011
833.79        73.67181
834.20        73.28706
834.60        72.95364
835.01        72.78764
835.42        72.70564
835.82        72.65891
836.23        72.49352
836.64        72.21556
837.04          71.911
837.45        71.65681
837.86        71.56672
838.26        71.66927
838.67        71.87808
839.08        72.14427
839.48        72.37489
839.89        72.49776
840.29        72.55237
840.70        72.50224
841.11        72.28227
841.51        71.90918
841.92        71.37967
842.33        70.85898
842.73        70.62956
843.14         70.7145
843.54        71.07762
843.95        71.46545
844.35        71.50928
844.76        71.12037
845.17        70.45158
845.57        69.74133
845.98         69.3562
846.38        69.38557
846.79        69.67796
847.19        70.13945
847.60        70.51797
848.00        70.74359
848.41        70.86756
848.81        70.89078
849.22        70.73627
849.62        70.46524
850.03        70.08456
850.43        69.76929
850.84        69.78247
851.24        70.22554
851.65        70.86575
852.05        71.65829
852.46        72.33938
852.86        72.81507
853.27        73.19442
853.67        73.15555
854.07        72.32419
854.48        70.79808
854.88        68.72034
855.29        66.80899
855.69        66.10692
856.10        66.79846
856.50        68.77585
856.90        71.34502
857.31        72.86885
857.71        72.83015
858.12        71.62654
858.52        70.01648
858.92        69.00436
859.33        68.81589
859.73        69.16157
860.13        69.87872
860.54        70.62198
860.94        71.27075
861.34        71.92158
861.75         72.4539
862.15        72.75475
862.55        72.77023
862.96        72.47541
863.36        72.06962
863.76        71.89793
864.17        72.05457
864.57        72.51415
864.97        73.07978
865.38        73.42562
865.78        73.52335
866.18        73.38388
866.58        73.21619
866.99        73.36515
867.39        73.95911
867.79        74.92913
868.19        75.85181
868.60        75.94922
869.00        75.04288
869.40        73.37714
869.80        71.79051
870.21        71.58427
870.61        73.12881
871.01        76.03315
871.41        79.31732
871.81        81.30267
872.22        81.52103
872.62        80.43916
873.02        78.93101
873.42        78.58505
873.82        79.52969
874.22        80.86096
874.63        82.16017
875.03        82.58588
875.43        81.75167
875.83        81.15253
876.23        78.92384
876.63        77.67645
877.03        77.21013
877.44        77.64009
877.84        106.2483
878.24        84.87063
878.64        85.81116
879.04        86.98997
879.44        82.07259
879.84        79.58528
880.24        84.82001
880.64        87.00813
881.04        87.21537
881.44        86.99975
881.84        86.09756
882.24        84.60901
882.65        83.34908
883.05        82.91453
883.45         83.4061
883.85        84.98886
884.25        87.03796
884.65        88.10741
885.05        87.78585
885.45        86.52892
885.85        85.10181
886.25        84.56781
886.65        85.13986
887.05        86.47314
887.45        88.03146
887.85        88.86857
888.25        88.67927
888.65        87.79508
889.04        86.66799
889.44        86.03131
889.84        86.06002
890.24        86.48063
890.64        87.03568
891.04        87.36707
891.44          87.353
891.84         87.1349
892.24        86.77073
892.64        86.32433
893.04        85.91148
893.44        85.59481
893.83        85.41335
894.23        85.44508
894.63        85.67477
895.03        85.98006
895.43        86.52632
895.83        87.57459
896.23        89.06124
896.63        90.89054
897.02        92.27715
897.42        91.97092
897.82         89.8681
898.22        86.50304
898.62        83.12659
899.01        81.56203
899.41        82.17946
899.81        84.33404
900.21        87.14127
900.61        89.15548
901.00        89.88351
901.40        89.74938
901.80        89.07504
902.20        88.35904
902.59        87.81375
902.99         87.2617
903.39        86.70851
903.79        86.22494
904.18        85.85966
904.58        85.72816
904.98         85.8987
905.38        86.41261
905.77        87.19378
906.17        88.12505
906.57        89.01534
906.96        89.65347
907.36        89.91074
907.76        89.85394
908.15          89.492
908.55        88.75524
908.95        87.75154
909.34        86.51127
909.74        85.33936
910.14        84.51141
910.53        84.13246
910.93        84.21323
911.33        84.65021
911.72        85.23908
912.12        85.78065
912.52        86.22248
912.91        86.62678
913.31         87.0982
913.70        87.70061
914.10         88.4073
914.49         88.8985
914.89        88.44143
915.29        86.94779
915.68        84.78303
916.08         82.8997
916.47        82.13744
916.87        82.54417
917.26        83.84708
917.66        85.38181
918.05         86.0796
918.45         85.6517
918.84        84.49459
919.24        83.21717
919.64        82.69013
920.03        83.16347
920.42        84.32146
920.82        85.84457
921.21        87.32779
921.61        88.36223
922.00        89.05281
922.40        89.24659
922.79        88.78214
923.19        87.78406
923.58        86.15898
923.98        84.06401
924.37         82.5992
924.77        82.42446
925.16        79.76347
925.55        81.37232
925.95        82.05593
926.34        83.74437
926.74        85.97035
927.13        88.17268
927.52        89.09298
927.92        88.55339
928.31        86.95393
928.70        84.85955
929.10         83.2792
929.49        82.47993
929.89        82.20042
930.28        82.47816
930.67        83.37299
931.07        84.65652
931.46         86.3935
931.85        87.87819
932.24        88.04863
932.64        86.74857
933.03        84.09116
933.42        80.80938
933.82        78.58479
934.21        77.92996
934.60        78.47034
934.99         79.3177
935.39        79.59606
935.78        79.18113
936.17        77.65196
936.56        74.91061
936.96        76.59872
937.35          75.661
937.74        77.37099
938.13        78.91311
938.53        80.22611
938.92        81.38639
939.31        82.64177
939.70         83.7067
940.09        83.63367
940.49        82.29702
940.88        80.18542
941.27        78.20399
941.66        77.41055
942.05        77.90497
942.44        79.32751
942.84        81.27327
943.23        83.05196
943.62        84.22394
944.01        84.90761
944.40         85.0256
944.79        84.47469
945.18        83.25288
945.57        81.28543
945.97        78.80342
946.36        76.62807
946.75        75.40144
947.14        75.05934
947.53        75.35913
947.92        75.94607
948.31        76.70667
948.70        77.77091
949.09        78.96326
949.48        79.78767
949.87        79.99477
950.26        79.58599
950.65        78.93105
951.04        78.68977
951.43        79.01141
951.82        79.72158
952.21        80.42288
952.60        80.46768
952.99        79.70734
953.38        78.37021
953.77        76.91735
954.16        75.98335
954.55        75.72387
954.94        76.03503
955.33         76.4519
955.72        76.19255
956.11        75.10323
956.50        73.39314
956.89        71.86139
957.28        71.93999
957.66        74.02277
958.05        77.38655
958.44        80.88531
958.83        82.83957
959.22        82.84108
959.61        81.33109
960.00        79.08229
960.39        77.37758
960.78        76.64565
961.16        76.58518
961.55        76.71653
961.94        76.22272
962.33        74.95099
962.72        73.31647
963.11        71.87764
963.49        71.30269
963.88        71.68171
964.27        72.82408
964.66        74.25783
965.04        75.00816
965.43        74.63399
965.82        73.51522
966.21        72.27176
966.60        71.70573
966.98        71.97829
967.37        72.78634
967.76        73.79931
968.15        74.37409
968.53        74.27273
968.92         73.6742
969.31        72.86639
969.69        72.18539
970.08        71.72573
970.47        71.41393
970.86        71.07834
971.24        70.43736
971.63        69.46519
972.02        68.28369
972.40        67.28636
972.79        67.15028
973.17        68.12508
973.56        69.90198
973.95        71.98222
974.33        73.36098
974.72        73.55501
975.11        72.81824
975.49        71.61996
975.88        70.66007
976.26        70.07102
976.65         69.7098
977.04        69.26009
977.42        68.11205
977.81        66.29099
978.19        64.18586
978.58         62.9197
978.96        63.50843
979.35        66.05532
979.74         70.3776
980.12        75.67047
980.51        78.95453
980.89        79.27324
981.28        77.34754
981.66        74.49308
982.05        72.40885
982.43        71.46667
982.82        71.11981
983.20         71.3417
983.59        72.15103
983.97          73.535
984.35        75.64571
984.74        77.80959
985.12         78.6563
985.51        77.40189
985.89        74.23796
986.28        70.22686
986.66        67.09143
987.04        65.64527
987.43        65.50292
987.81        65.90543
988.20        65.83677
988.58        64.94636
988.96        63.12739
989.35        60.88717
989.73        60.48337
990.12        63.18473
990.50        67.83317
990.88        71.45543
991.27        71.86684
991.65        69.57185
992.03        65.26263
992.42        60.73211
992.80        59.07834
993.18        61.11778
993.56        64.94154
993.95        68.96741
994.33        72.01254
994.71        73.66484
995.10        74.68656
995.48        74.72455
995.86        72.94395
996.24        69.23316
996.63        63.33293
997.01        56.69851
997.39        53.83873
997.77        56.72523
998.15        64.38214
998.54        72.83061
998.92        76.51096
999.30        73.83401
999.68        66.20895
1000.06        55.86607
1000.45        48.35848
1000.83        46.02108
1001.21        46.95519
1001.59        49.71537
1001.97        52.84516
1002.35        55.89071
1002.73        59.93261
1003.12        63.63291
1003.50        62.69817
1003.88         55.9983
1004.26        46.03779
1004.64        37.12011
1005.02        32.65265
1005.40        32.72237
1005.78        37.00994
1006.16        46.74057
1006.54        58.60317
1006.92        65.60283
1007.30        67.54547
1007.69        66.70026
1008.07         65.2683
1008.45        63.18688
1008.83        58.42223
1009.21         45.3545
1009.59        7.009864
1009.97       -85.13389
1010.35       -190.7964
1010.73       -148.7424
1011.11       -69.51527
1011.49       -18.34482
1011.86          15.944
1012.24        35.01699
1012.62        43.83839
1013.00        46.80228
1013.38        45.65204
1013.76        42.45637
1014.14        43.63968
1014.52        54.47213
1014.90        76.62953
1015.28        103.1759
1015.66        113.9101
1016.04        97.87344
1016.41        60.54563
1016.79        25.28642
1017.17           14.39
1017.55        21.92699
1017.93         34.6811
1018.31        45.94131
1018.69        52.38127
1019.06        54.70928
1019.44        53.82113
1019.82        50.03908
1020.20        44.87555
1020.58        39.68837
1020.95         34.2742
1021.33        8.133758
1021.71        746.1638
1022.09        178.7152
1022.46        156.8658
1022.84        155.1229
1023.22        163.3114
1023.60        191.1463
1023.97        479.7806
1024.35       -10.99714
1024.73         43.5411
