SpectraSmart Spectrum 2.9.0.0
--------- Device Information -----------
Spectrum Name :  反射率_0
Saving Time :  2024/04/25 22:51:12
Spectro-Module Model Name : SE2030-DUVN
Spectro-Module Serial Number : OS361AC55029948
Wavelength Start : 200
Wavelength End : 1025
Wavelength Unit : Wavelength(nm)
Spectrum Unit : Reflectance(%)
-----------Spectrum Setting ------------
Integration Time : 20ms
Average : 10
Boxcar : 0
Background removal :  enabled
linearity correction :  enabled
SC :  disabled
Intensity correction :  disabled
DWT denoise :  enabled
savitzky-golay :  disabled
FFT :  disabled
Running average :  disabled
Kalman :  disabled
High pass :  disabled
---------------BEGIN--------------------
Wavelength(nm)             Reflectance(%)
200.29               0
200.75        75.26641
201.21        75.14511
201.67         73.9325
202.13        72.08602
202.58        69.78313
203.04        67.35727
203.50        64.83405
203.96         62.5821
204.42         60.9348
204.88         59.8074
205.34        59.20422
205.80        59.05041
206.26        59.29623
206.72        60.33665
207.18        62.23137
207.64        62.25609
208.10        58.14039
208.55        53.93843
209.01        52.01367
209.47        52.31872
209.93        54.10761
210.39        57.29314
210.85        60.84984
211.31         62.2781
211.77        60.69246
212.23        56.84587
212.69        52.98549
213.14         52.7503
213.60        56.47028
214.06        63.30197
214.52        70.33537
214.98        73.14892
215.44        70.92812
215.90        65.22147
216.36         59.0082
216.81        56.41018
217.27        58.14642
217.73        62.46004
218.19        66.57712
218.65        66.96937
219.11        62.50957
219.57        52.73222
220.02        38.95623
220.48         29.8278
220.94        30.61582
221.40        39.50989
221.86        48.77355
222.32        50.10958
222.77        44.24935
223.23        35.54573
223.69        28.60165
224.15        28.11681
224.61        33.43958
225.06        42.11584
225.52        50.43983
225.98        53.65994
226.44        51.05685
226.90        44.80869
227.36        37.74857
227.81         33.6967
228.27        33.78524
228.73         36.4595
229.19        40.38201
229.65        43.57059
230.10         45.3154
230.56         46.2628
231.02        46.69278
231.48        46.86324
231.93        46.86895
232.39         46.5767
232.85        46.01794
233.31        45.35188
233.77        44.61538
234.22        43.82691
234.68         42.9829
235.14        42.01637
235.60        41.01122
236.05        40.10877
236.51        39.43001
236.97         39.0213
237.43        38.92782
237.88        39.26818
238.34        40.06583
238.80        41.35718
239.26         42.9872
239.71        44.74426
240.17        46.51564
240.63        48.71704
241.08        51.35884
241.54        54.15235
242.00        56.34195
242.46        56.85799
242.91        55.18285
243.37        49.19885
243.83         33.6979
244.28        9.003452
244.74        28.88475
245.20        76.76669
245.66        92.73866
246.11        97.68007
246.57        100.4826
247.03         103.406
247.48        98.49866
247.94        63.33624
248.40        59.84943
248.85        62.79008
249.31        65.34853
249.77         67.7274
250.22        70.57256
250.68        74.95758
251.14        80.74874
251.59        83.50353
252.05        79.71298
252.51          71.766
252.96        63.67882
253.42        59.34829
253.88        58.24226
254.33        58.83488
254.79        61.34542
255.25        65.41563
255.70        69.97302
256.16         74.7296
256.62        77.65961
257.07        76.71172
257.53         72.8571
257.99        67.02108
258.44        61.44071
258.90        59.49144
259.35        60.20719
259.81        62.08989
260.27        62.95113
260.72        60.72698
261.18         56.2079
261.63        50.41847
262.09        45.12298
262.55        41.70702
263.00        40.12847
263.46        39.75376
263.91        39.59942
264.37        38.86151
264.83        37.38826
265.28        35.40269
265.74        33.55159
266.19        32.55762
266.65        32.57223
267.11        33.13394
267.56        33.63713
268.02        33.37881
268.47         32.2606
268.93        30.55398
269.38        28.61595
269.84         27.2845
270.30        26.80132
270.75        26.93432
271.21        27.31057
271.66        27.37252
272.12        26.95564
272.57        26.24518
273.03        25.48277
273.48        24.94534
273.94         24.7243
274.39        24.66607
274.85        24.62783
275.31        24.40913
275.76        23.96222
276.22        23.40215
276.67        22.81474
277.13        22.39792
277.58        22.14914
278.04        22.02315
278.49        21.91785
278.95        21.74126
279.40         21.4427
279.86        21.10394
280.31        20.71879
280.77        20.37848
281.22        20.07047
281.68        19.79601
282.13        19.55682
282.59        19.38307
283.04        19.26902
283.50        19.23363
283.95        19.21232
284.41        19.11891
284.86        18.93458
285.32        18.69124
285.77        18.48613
286.22        18.52105
286.68        18.79483
287.13        19.21577
287.59        19.59434
288.04        19.64909
288.50        19.35645
288.95        18.80393
289.41        18.19527
289.86        17.73799
290.32        17.53919
290.77        17.51838
291.22        17.63084
291.68         17.7708
292.13        17.91077
292.59        18.08587
293.04        18.32582
293.50        18.67237
293.95        19.11519
294.40         19.6028
294.86        20.07337
295.31        20.45122
295.77        20.72369
296.22        20.91963
296.68        21.07292
297.13        21.21085
297.58        21.36918
298.04        21.55686
298.49         21.8056
298.95        22.19671
299.40        22.72441
299.85        23.35652
300.31         24.0115
300.76        24.57194
301.21        24.98627
301.67        25.30345
302.12        25.51817
302.58        25.67438
303.03        25.77884
303.48        25.83267
303.94        25.91783
304.39        26.12879
304.84        26.47928
305.30        26.92981
305.75         27.3506
306.20        27.54835
306.66        27.50729
307.11        27.28468
307.57        27.01365
308.02        26.82494
308.47        26.78385
308.93         26.8432
309.38        26.97298
309.83        27.15458
310.29        27.35316
310.74        27.56382
311.19        27.73532
311.65        27.78638
312.10        27.70221
312.55        27.50574
313.00        27.23118
313.46        26.95136
313.91        26.69071
314.36        26.45065
314.82        26.26661
315.27        26.17595
315.72        26.18297
316.18        26.27475
316.63        26.39314
317.08        26.41873
317.53        26.31845
317.99        26.11051
318.44        25.86913
318.89        25.71764
319.35        25.67777
319.80        25.72066
320.25        25.75089
320.70        25.61386
321.16         25.2828
321.61        24.81267
322.06         24.3245
322.51        23.99874
322.97        23.86529
323.42        23.87584
323.87        23.91681
324.32        23.79959
324.78        23.47507
325.23        23.00981
325.68        22.50268
326.13        22.11444
326.59         21.8912
327.04        21.80497
327.49        21.79307
327.94        21.75279
328.39        21.65291
328.85        21.51654
329.30         21.4147
329.75        21.43375
330.20        21.58729
330.66        21.81373
331.11        22.04887
331.56        22.15463
332.01        22.08974
332.46        21.87922
332.92         21.5795
333.37        21.31856
333.82        21.14494
334.27        21.05321
334.72        20.99423
335.17        20.87958
335.63        20.68824
336.08        20.44595
336.53        20.25638
336.98        20.28253
337.43        20.54153
337.88        20.98034
338.34        21.38631
338.79        21.45962
339.24        21.11402
339.69        20.43731
340.14        19.69431
340.59        19.35055
341.05        19.51203
341.50        20.03054
341.95        20.63932
342.40        20.94349
342.85        20.85069
343.30        20.49865
343.75        20.01828
344.20        19.64025
344.66        19.44859
345.11          19.328
345.56        19.28002
346.01        19.30871
346.46          19.386
346.91         19.5421
347.36        19.62774
347.81        19.39367
348.26        18.82943
348.72        18.04311
349.17        17.27709
349.62        17.01659
350.07        17.35996
350.52        18.13732
350.97        19.05907
351.42        19.67933
351.87        19.87351
352.32        19.77186
352.77        19.49477
353.22        19.24078
353.67        19.08194
354.13        18.95066
354.58        18.83405
355.03        18.75544
355.48        18.71123
355.93        18.72736
356.38        18.74651
356.83        18.65858
357.28        18.44597
357.73        18.13217
358.18         17.8146
358.63        17.65099
359.08        17.67237
359.53        17.83523
359.98        18.01813
360.43         18.0315
360.88        17.83732
361.33        17.49096
361.78        17.12893
362.23        16.97311
362.68        17.06407
363.13        17.31588
363.58        17.57995
364.03        17.62722
364.48        17.40854
364.93         17.0146
365.38        16.55174
365.83        16.18687
366.28        15.98063
366.73        15.87994
367.18        15.87563
367.63        15.95278
368.08        16.08226
368.53        16.26397
368.98        16.43167
369.43        16.47717
369.88        16.38263
370.33        16.17693
370.78        15.92104
371.23        15.72806
371.68        15.63611
372.13         15.6122
372.58        15.64653
373.03        15.71646
373.48         15.8006
373.93        15.90676
374.38        15.98844
374.83        15.97109
375.28        15.84516
375.72        15.61854
376.17        15.37962
376.62        15.23444
377.07        15.21319
377.52        15.28401
377.97        15.39398
378.42        15.45529
378.87        15.44014
379.32        15.37465
379.77        15.28767
380.22        15.21876
380.67        15.17884
381.11        15.15689
381.56        15.12718
382.01        15.05932
382.46        14.94718
382.91        14.79877
383.36        14.65531
383.81        14.57864
384.26        14.58011
384.71        14.64615
385.15        14.70491
385.60        14.65832
386.05        14.48599
386.50        14.21121
386.95         13.9335
387.40        13.82465
387.85        13.91642
388.29        14.14175
388.74        14.36899
389.19        14.41591
389.64        14.25775
390.09        13.94495
390.54        13.60395
390.98        13.44678
391.43         13.5326
391.88        13.78388
392.33        14.05175
392.78        14.11827
393.23         13.9552
393.67        13.64081
394.12        13.33381
394.57        13.20424
395.02        13.28444
395.47        13.50897
395.91        13.78393
396.36        13.92421
396.81        13.87486
397.26        13.68654
397.71        13.43927
398.15        13.23648
398.60        13.13168
399.05        13.09808
399.50        13.08334
399.95        12.97811
400.39        12.82588
400.84        12.61283
401.29        12.43454
401.74        12.43381
402.18        12.64562
402.63        12.99794
403.08        13.36559
403.53        13.55266
403.97        13.51032
404.42        13.29547
404.87        13.00367
405.32        12.80389
405.76        12.74924
406.21         12.7924
406.66        12.87646
407.11        12.92311
407.55        12.91499
408.00        12.87751
408.45        12.83187
408.90        12.80457
409.34        12.80444
409.79        12.81349
410.24        12.83098
410.68        12.86113
411.13        12.90545
411.58        12.96915
412.03        13.02872
412.47        13.04455
412.92        13.00031
413.37        12.90454
413.81        12.80667
414.26        12.79778
414.71        12.88343
415.15         13.0419
415.60        13.18251
416.05        13.17694
416.49        13.00075
416.94        12.70999
417.39        12.39466
417.83         12.2097
418.28        12.20453
418.73         12.3151
419.17        12.48774
419.62        12.63361
420.07         12.7218
420.51        12.77972
420.96         12.7791
421.41        12.66986
421.85        12.45797
422.30        12.18432
422.74        11.92065
423.19        11.79774
423.64        11.82408
424.08        11.97079
424.53        12.16624
424.98        12.30297
425.42        12.34609
425.87        12.31962
426.31         12.2435
426.76        12.19161
427.21        12.16112
427.65        12.04316
428.10        11.91709
428.54         11.9842
428.99        12.25656
429.44         12.6567
429.88         13.0076
430.33        13.06997
430.77         12.8131
431.22         12.3189
431.66        11.80675
432.11        11.65193
432.56         11.8958
433.00        12.36907
433.45        12.86549
433.89        13.17334
434.34        13.16075
434.78        12.78251
435.23        12.30117
435.67        12.18987
436.12        12.42539
436.57        12.55478
437.01        12.49875
437.46        12.43959
437.90         12.3872
438.35        12.29397
438.79        12.19209
439.24        12.16384
439.68        12.22443
440.13        12.29214
440.57         12.3474
441.02        12.52948
441.46        12.72509
441.91        12.51077
442.35        12.00617
442.80        11.74157
443.24         11.7078
443.69        11.71238
444.13        11.69084
444.58        11.54381
445.02        11.31258
445.47        11.26318
445.91        11.36391
446.36        11.35837
446.80        11.23212
447.24        11.12848
447.69        11.08161
448.13        11.06932
448.58        11.10072
449.02        11.17908
449.47        11.25806
449.91        11.26055
450.36         11.1772
450.80        11.02906
451.25        10.88536
451.69        10.84466
452.13        10.92852
452.58        11.09135
453.02        11.27556
453.47        11.38582
453.91        11.40102
454.36        11.35474
454.80        11.27006
455.24        11.18721
455.69        11.13155
456.13        11.08263
456.58        11.06851
457.02        11.11498
457.46        11.22565
457.91        11.38779
458.35        11.55388
458.79        11.63602
459.24        11.62587
459.68        11.53711
460.13        11.43729
460.57        11.39882
461.01        11.45354
461.46        11.56892
461.90        11.70534
462.34        11.78823
462.79        11.79667
463.23        11.74598
463.68        11.68358
464.12        11.68572
464.56        11.77281
465.01         11.9264
465.45        12.06105
465.89        12.09299
466.34        12.02106
466.78        11.81225
467.22        11.58531
467.67        11.64813
468.11        11.97318
468.55        12.19169
468.99        12.24302
469.44        12.28085
469.88        12.33683
470.32        12.45948
470.77        12.60612
471.21        12.61935
471.65        12.48877
472.10        12.34613
472.54        12.23785
472.98        12.20254
473.42        12.25873
473.87        12.39708
474.31        12.57202
474.75        12.70193
475.20        12.76807
475.64        12.78609
476.08        12.78215
476.52        12.79846
476.97         12.8476
477.41        12.91715
477.85        12.98964
478.29        13.06438
478.74        13.13968
479.18        13.15237
479.62        13.11738
480.06        13.28239
480.50        13.37417
480.95        13.42968
481.39        13.36319
481.83         13.3222
482.27        13.31709
482.72         13.2269
483.16        13.09664
483.60        13.18961
484.04        13.49293
484.48        13.63119
484.93         13.8213
485.37        14.17657
485.81        14.48227
486.25        14.96922
486.69        19.16404
487.14        14.98887
487.58        10.19952
488.02        12.65154
488.46        14.34505
488.90        14.44228
489.34        14.55216
489.79        14.45782
490.23        15.17011
490.67        15.67784
491.11        15.76039
491.55        15.76434
491.99        15.65018
492.43         15.5326
492.88        15.47122
493.32        15.47507
493.76        15.46934
494.20        15.63459
494.64        15.93325
495.08        16.32045
495.52        16.73872
495.96        17.09656
496.41        17.33522
496.85         17.5103
497.29         17.6271
497.73         17.4704
498.17        17.25475
498.61        17.44046
499.05        18.02826
499.49        18.15727
499.93        18.26215
500.37        18.37722
500.82        18.45478
501.26          18.682
501.70        18.96495
502.14        19.14534
502.58        19.19529
503.02        19.25556
503.46        19.32896
503.90        19.31795
504.34        19.25442
504.78        19.23856
505.22        19.28787
505.66        19.38476
506.10        19.49371
506.54        19.55168
506.98        19.54821
507.42        19.50811
507.86        19.49055
508.30        19.58547
508.74        19.80456
509.18        20.10836
509.62        20.42817
510.06        20.65203
510.50        20.74874
510.94        20.75805
511.38         20.7149
511.82        20.67589
512.26        20.66561
512.70        20.66249
513.14        20.68763
513.58        20.77664
514.02        20.91805
514.46        21.09663
514.90        21.25315
515.34        21.25555
515.78        21.05646
516.22        20.85222
516.66        20.72228
517.10        20.34526
517.54        19.74834
517.98        20.53889
518.42        20.34374
518.86        20.68759
519.30         20.8421
519.74        21.03161
520.18        21.21127
520.62        21.27876
521.06        21.24738
521.50        21.12474
521.93        20.95315
522.37        20.81595
522.81        20.73908
523.25        20.70269
523.69        20.70536
524.13         20.7416
524.57        20.79938
525.01        20.87901
525.45        20.94637
525.89        20.94421
526.32        20.85971
526.76        20.71007
527.20        20.53084
527.64        20.38902
528.08         20.3066
528.52        20.24562
528.96        20.18402
529.40        20.14176
529.83        20.12165
530.27        19.91863
530.71        19.92261
531.15        19.80663
531.59        19.69275
532.03        19.57071
532.46        19.48025
532.90         19.4883
533.34        19.59194
533.78         19.7628
534.22        19.93299
534.66        20.00257
535.09         19.9458
535.53        19.80278
535.97        19.61413
536.41        19.45044
536.85        19.34144
537.28        19.27349
537.72        19.24641
538.16        19.25927
538.60        19.30714
539.04        19.37541
539.47        19.45817
539.91        19.59373
540.35        19.75499
540.79        19.85835
541.22        19.90203
541.66        19.96439
542.10         20.0492
542.54        20.10612
542.97        20.15636
543.41        20.26868
543.85        20.44732
544.29        20.68384
544.72        20.92801
545.16        21.10805
545.60        21.20862
546.04        21.24599
546.47        21.29152
546.91        21.46952
547.35        21.78897
547.79        22.21012
548.22         22.6233
548.66        22.83852
549.10        22.83469
549.53        22.70969
549.97        22.57749
550.41        22.55464
550.84          22.685
551.28         22.9445
551.72        23.29007
552.15         23.6362
552.59        23.93947
553.03        24.21666
553.46        24.45106
553.90        24.63975
554.34        24.79299
554.77        24.88405
555.21        24.92975
555.65        25.03656
556.08        25.22783
556.52        25.16718
556.96        25.44015
557.39        25.56656
557.83         25.7236
558.27        25.88907
558.70        26.05522
559.14        26.19254
559.57         26.2844
560.01        26.35109
560.45        26.38855
560.88        26.39097
561.32        26.38477
561.75        26.35942
562.19        26.35285
562.63        26.38605
563.06        26.45955
563.50        26.57265
563.93        26.70556
564.37         26.8387
564.80        26.95558
565.24        27.07172
565.68        27.17877
566.11        27.26803
566.55        27.35974
566.98        27.44551
567.42         27.5575
567.85        27.73914
568.29        28.00901
568.72        28.26999
569.16        28.52582
569.60        28.86626
570.03        29.15773
570.47        29.13193
570.90        28.95106
571.34        28.51974
571.77        28.99858
572.21        29.13153
572.64        29.29833
573.08        28.93673
573.51        28.17517
573.95        29.38406
574.38        31.14935
574.82        30.40499
575.25        30.24252
575.69        29.24058
576.12         28.8083
576.56        28.54701
576.99        29.57588
577.42        30.62119
577.86        30.43859
578.29        30.25994
578.73        31.36682
579.16        28.90333
579.60        26.63257
580.03        27.92969
580.47        29.72495
580.90        30.09411
581.33         29.5033
581.77        29.21186
582.20        31.43197
582.64        30.82752
583.07        26.30764
583.51        25.80373
583.94        25.43675
584.37        26.59922
584.81        27.81019
585.24        29.13453
585.68        29.76016
586.11        28.79063
586.54        26.71935
586.98         26.0596
587.41        26.54343
587.85         27.6528
588.28        28.24042
588.71        26.84307
589.15         26.2885
589.58        26.41226
590.01        26.87874
590.45        27.44177
590.88        27.65443
591.31         27.3611
591.75        27.17723
592.18        27.27283
592.61        27.88898
593.05        28.40491
593.48        29.50656
593.91        29.18757
594.35        26.99254
594.78        26.64683
595.21        26.99857
595.65        28.35345
596.08        29.24465
596.51        28.24824
596.94         27.8264
597.38         28.4341
597.81        29.86516
598.24        30.47697
598.68        30.10149
599.11        30.34755
599.54        31.62561
599.97         32.5106
600.41        30.96708
600.84        31.43413
601.27        32.38584
601.70        32.34502
602.14        32.64338
602.57         32.6782
603.00        33.52995
603.43        34.78486
603.87        35.96079
604.30        36.12365
604.73        35.53122
605.16        35.28798
605.60        36.43143
606.03        37.59814
606.46        38.71529
606.89        38.84103
607.32        38.40984
607.76        39.17921
608.19        40.50828
608.62        40.31818
609.05        39.98704
609.48         40.6387
609.92        40.91528
610.35        41.38778
610.78        43.08868
611.21        43.95231
611.64        42.40707
612.07        43.17233
612.50        43.73934
612.94        44.32478
613.37        44.26585
613.80        44.96565
614.23        45.53564
614.66        45.90081
615.09        46.41389
615.52        46.70538
615.96         46.8958
616.39        47.20619
616.82        46.84026
617.25        47.21328
617.68        47.98703
618.11        48.68875
618.54        49.10084
618.97        49.02991
619.40        48.75921
619.84        48.84388
620.27        49.85553
620.70        50.52174
621.13        50.87095
621.56        50.77833
621.99        50.54396
622.42        51.07848
622.85        52.07801
623.28        51.97119
623.71        51.84445
624.14        51.58301
624.57        51.48402
625.00        51.16827
625.43        51.39691
625.86        50.86122
626.29        50.71135
626.72         51.2307
627.15          50.642
627.58         50.6235
628.01        50.54595
628.44        50.37198
628.87        50.10639
629.30          49.946
629.73        49.86272
630.16        49.60575
630.59        49.16573
631.02        48.67001
631.45        48.16526
631.88        47.67247
632.31        47.20588
632.74         46.7592
633.17        46.30925
633.60        45.81924
634.03        45.28403
634.46        44.72194
634.89        44.15271
635.32        43.60599
635.75        43.09367
636.18        42.60936
636.61        42.14454
637.04        41.68161
637.47        41.20898
637.89        40.73123
638.32        40.24278
638.75        39.76475
639.18        39.31113
639.61        38.89021
640.04        38.49232
640.47         38.0953
640.90        37.69893
641.33        37.30836
641.76        36.95295
642.18        36.73471
642.61        36.66556
643.04        36.63164
643.47        36.55633
643.90        36.79185
644.33        36.55718
644.76        36.49178
645.18        36.40936
645.61        36.39441
646.04        36.46048
646.47        36.58182
646.90         36.7734
647.33        37.04284
647.75        37.40057
648.18        37.83727
648.61        38.26823
649.04        38.65659
649.47        38.94497
649.89        38.86496
650.32        38.69774
650.75        39.19845
651.18        40.34407
651.61        41.50169
652.03         42.3791
652.46        42.93478
652.89        43.39688
653.32        43.55637
653.74        43.64621
654.17        45.45038
654.60        46.28337
655.03        45.59112
655.46        46.69847
655.88        50.11829
656.31        53.94003
656.74        117.8952
657.16         75.5323
657.59        26.74678
658.02        21.25857
658.45        38.33786
658.87        49.37048
659.30        52.43489
659.73        52.37389
660.15        50.73766
660.58        53.48153
661.01        55.39753
661.44        54.20111
661.86         53.9042
662.29        54.01037
662.72        54.82284
663.14        56.18892
663.57        56.52024
664.00         55.9701
664.42        56.12134
664.85        57.04577
665.27        57.75512
665.70        58.05257
666.13        58.18835
666.55          58.145
666.98        57.86249
667.41        57.53139
667.83         57.4975
668.26          57.834
668.69          58.408
669.11        58.99649
669.54        59.50422
669.96        59.29763
670.39        59.00407
670.82        58.64611
671.24        58.43041
671.67        58.52656
672.09        59.06821
672.52        59.79837
672.94        60.54676
673.37        60.22598
673.80        60.29398
674.22        60.49561
674.65        60.61527
675.07        60.64419
675.50        60.56948
675.92        60.47678
676.35        60.56894
676.77        60.87693
677.20        61.25061
677.62        61.63474
678.05        61.99575
678.47        62.26189
678.90        62.35233
679.32        62.32364
679.75        62.25807
680.17        62.42688
680.60        62.54164
681.02        62.64677
681.45        62.66852
681.87        62.61327
682.30        62.61084
682.72        62.68158
683.15        62.67216
683.57        62.68328
684.00        62.98302
684.42        63.63244
684.85        63.98093
685.27        64.03279
685.70        63.94023
686.12        63.72622
686.54        64.04726
686.97        63.80779
687.39        64.01865
687.82        64.28211
688.24        64.50883
688.66        64.61401
689.09        64.71626
689.51        64.84278
689.94        64.98442
690.36        65.16068
690.78        65.31716
691.21        65.44602
691.63        65.65688
692.06        65.89459
692.48        65.91352
692.90        65.79367
693.33        65.86403
693.75        66.15185
694.17        66.50501
694.60        66.84405
695.02        67.06661
695.44        67.12217
695.87        67.23589
696.29        67.44337
696.71        67.30353
697.14        66.99686
697.56        67.51229
697.98        68.57307
698.41        68.63026
698.83        67.87421
699.25        67.49046
699.68        67.61098
700.10        67.62153
700.52         67.5463
700.94        67.75169
701.37        68.17088
701.79        68.59846
702.21         68.9543
702.64        69.23854
703.06        69.41681
703.48        69.57214
703.90        69.64589
704.33        69.33057
704.75        68.77413
705.17        68.59036
705.59        68.86816
706.01        69.23241
706.44        69.52532
706.86        70.17918
707.28        70.19697
707.70        70.33571
708.12        70.35997
708.55        70.34421
708.97        70.29417
709.39        70.20279
709.81        70.13132
710.23        70.17048
710.66        70.33768
711.08        70.63911
711.50        70.95793
711.92         71.1019
712.34        71.02831
712.76        70.81015
713.19        70.59321
713.61        70.46134
714.03        70.75029
714.45        71.15787
714.87        71.58749
715.29        71.73921
715.71        71.55797
716.13        71.13775
716.56        70.67901
716.98        70.54124
717.40        70.80032
717.82        71.34353
718.24        71.97024
718.66        72.34211
719.08        72.36159
719.50        72.13164
719.92         71.7915
720.34        71.58185
720.76        71.57872
721.19        71.59409
721.61        71.79449
722.03        71.94706
722.45        72.08086
722.87        72.22006
723.29        72.37509
723.71        72.54808
724.13        72.73002
724.55        72.89995
724.97        73.03601
725.39        73.11517
725.81        73.13722
726.23        73.12126
726.65        73.08203
727.07        73.04852
727.49        73.03843
727.91        73.02409
728.33        73.03633
728.75        73.18377
729.17        73.43377
729.59        73.62643
730.01        73.73386
730.43          73.824
730.85        73.89601
731.27        73.91956
731.69        73.89469
732.10        73.84697
732.52        73.78468
732.94        73.71059
733.36        73.70758
733.78        73.82298
734.20        74.07486
734.62         74.5278
735.04        75.48316
735.46        75.26749
735.88        74.36446
736.30        74.56451
736.72        75.87371
737.13         76.6952
737.55        76.63261
737.97        76.73501
738.39        76.99222
738.81        76.04776
739.23        74.50055
739.65        75.31767
740.06        77.94862
740.48        78.30086
740.90        76.44974
741.32         75.6832
741.74        76.27316
742.16        76.58472
742.57        76.65196
742.99        77.34214
743.41        78.43295
743.83        79.09633
744.25        79.19032
744.67        78.91436
745.08        78.50488
745.50        78.35079
745.92        78.57553
746.34        79.04648
746.75         79.5787
747.17        79.86434
747.59        79.84624
748.01         79.6203
748.42        79.40701
748.84        79.54823
749.26        80.12081
749.68         80.9453
750.09        81.77792
750.51        82.33089
750.93        82.46634
751.35        82.00764
751.76        81.22665
752.18        80.95108
752.60        81.20715
753.01        81.36118
753.43        81.37278
753.85        81.64352
754.27        82.16817
754.68        82.75602
755.10        83.29755
755.52        83.77855
755.93        84.12087
756.35        84.23685
756.77        84.27036
757.18        84.26471
757.60        84.26445
758.02         84.8092
758.43         85.4668
758.85         84.4929
759.26        82.64558
759.68        81.92542
760.10        83.89863
760.51        84.93129
760.93        85.03922
761.34        83.41653
761.76        83.07812
762.18        82.12396
762.59        81.72597
763.01        82.43087
763.42        84.06198
763.84        85.12775
764.26        85.34812
764.67        85.31631
765.09        85.11703
765.50        84.85095
765.92        84.49875
766.33        83.37173
766.75        81.90559
767.16        81.48228
767.58        82.27602
768.00        83.72289
768.41        85.48466
768.83        87.09575
769.24         87.8849
769.66        87.04248
770.07        85.21227
770.49        83.61602
770.90        82.70793
771.32        83.78187
771.73        86.08594
772.15         85.5961
772.56        82.79855
772.97        82.22017
773.39        83.82642
773.80         84.5096
774.22        84.00774
774.63        84.08035
775.05        84.65417
775.46        84.91684
775.88        84.79695
776.29        84.60561
776.70        84.43625
777.12        84.37638
777.53        84.48566
777.95        84.73605
778.36        84.97393
778.77        84.87986
779.19        84.45105
779.60        83.79987
780.02         83.1913
780.43        83.12102
780.84        83.73495
781.26        84.39764
781.67        84.98059
782.09        86.29423
782.50        87.69151
782.91        86.52336
783.33        83.65778
783.74        82.70178
784.15        83.85815
784.57        84.96876
784.98        85.52595
785.39        85.48656
785.81        84.86422
786.22        84.23944
786.63        83.95442
787.04        83.93529
787.46        84.29729
787.87        85.40937
788.28        86.86292
788.70        87.58085
789.11         87.3784
789.52        86.68607
789.93        85.85013
790.35        85.28307
790.76        85.12354
791.17        85.29473
791.58        85.67422
792.00        85.89928
792.41        85.85201
792.82        85.94211
793.23        86.21329
793.65        85.65794
794.06        84.72586
794.47         85.8625
794.88        88.21616
795.29         87.8972
795.71        85.12828
796.12         82.9077
796.53        81.90385
796.94        81.41862
797.35        81.65016
797.76        83.16284
798.18        85.24543
798.59        86.45623
799.00        86.35608
799.41        85.28741
799.82        83.85476
800.23        83.07986
800.64        83.22359
801.06        83.88554
801.47        84.81494
801.88        85.48559
802.29        85.69415
802.70        85.61923
803.11        85.38698
803.52        85.17982
803.93        85.09556
804.34        85.04557
804.75        85.00373
805.17        85.09764
805.58        85.38696
805.99        85.37169
806.40        85.08281
806.81          85.768
807.22        86.84986
807.63        85.61914
808.04        82.76646
808.45        81.67757
808.86        82.60887
809.27         83.8203
809.68        84.81109
810.09        85.44846
810.50        85.49046
810.91        84.99596
811.32        84.27594
811.73        83.84212
812.14        83.83737
812.55        84.07641
812.96        84.46719
813.37        84.83031
813.78        85.07174
814.19         85.3143
814.60        85.39978
815.01        85.05514
815.42        84.27968
815.83        83.12208
816.24        82.00416
816.65        81.67596
817.05        82.35239
817.46         83.7771
817.87        85.39588
818.28        86.19707
818.69        85.89414
819.10        84.73199
819.51        83.29423
819.92        82.58276
820.33        82.87084
820.74        83.85688
821.14        85.02573
821.55        85.44298
821.96        84.91946
822.37        83.79439
822.78        82.54672
823.19        81.86906
823.60        81.94411
824.00        82.59657
824.41        83.46434
824.82        84.07165
825.23        84.20433
825.64        84.03284
826.04        83.70519
826.45        83.43478
826.86         83.2878
827.27        83.15656
827.68         83.0407
828.08        82.99381
828.49        82.95543
828.90        83.01543
829.31        83.07851
829.72        82.95036
830.12        82.62991
830.53        82.14442
830.94        81.76171
831.35        81.85202
831.75        82.51015
832.16         83.5677
832.57        84.73284
832.97        85.40223
833.38        85.32121
833.79        84.68404
834.20        83.86308
834.60        83.42142
835.01        83.52857
835.42        84.00572
835.82        84.60433
836.23        84.81353
836.64        84.53588
837.04        83.95883
837.45        83.32197
837.86         83.0026
838.26        83.10723
838.67        83.45742
839.08         83.9155
839.48        84.23427
839.89        84.28754
840.29        84.19153
840.70        83.96417
841.11        83.60191
841.51        83.14537
841.92        82.55997
842.33         82.0263
842.73        81.85882
843.14        82.07584
843.54        82.64581
843.95        83.23993
844.35        83.37224
844.76        82.92307
845.17        82.06023
845.57         81.1301
845.98        80.67539
846.38        80.81757
846.79        81.36622
847.19        82.08118
847.60        82.43137
848.00        82.30544
848.41        81.86256
848.81        81.33171
849.22        80.97294
849.62         80.9239
850.03        81.08866
850.43        81.46551
850.84        81.95446
851.24        82.53018
851.65        83.01841
852.05         83.5143
852.46        83.98177
852.86        84.40408
853.27        84.82619
853.67        84.81585
854.07        83.84745
854.48        82.00992
854.88        79.51944
855.29        77.23737
855.69        76.39964
856.10        77.22841
856.50        79.58217
856.90        82.63345
857.31        84.45004
857.71        84.40573
858.12         82.9737
858.52        81.04782
858.92        79.83163
859.33        79.59363
859.73        80.00971
860.13        80.85947
860.54        81.68277
860.94        82.33537
861.34        82.92429
861.75        83.41529
862.15        83.83026
862.55        84.13118
862.96        84.24256
863.36        84.19718
863.76        84.04716
864.17        83.83384
864.57        83.63077
864.97        83.48645
865.38        83.44496
865.78        83.56338
866.18        83.76272
866.58        84.04363
866.99        84.38364
867.39        84.81669
867.79        85.36437
868.19        85.80532
868.60        85.72853
869.00        85.07938
869.40        83.96762
869.80        83.00203
870.21        83.12379
870.61        84.60563
871.01        87.15894
871.41        89.96118
871.81        91.60461
872.22        91.69032
872.62        90.59954
873.02        89.13938
873.42        88.69247
873.82        89.46091
874.22        90.89285
874.63        92.42522
875.03        92.88909
875.43        91.83456
875.83        90.36494
876.23        88.24207
876.63         87.5366
877.03        88.44375
877.44        91.28616
877.84        101.1438
878.24        99.82348
878.64        99.27252
879.04        97.10759
879.44        93.38998
879.84        91.33104
880.24        93.82301
880.64        95.73076
881.04        97.36887
881.44        98.17834
881.84        97.29688
882.24        95.28008
882.65        93.35719
883.05        92.84144
883.45        93.95202
883.85        96.43394
884.25        99.42872
884.65        101.2306
885.05        101.2683
885.45        100.1463
885.85        98.60899
886.25        97.66967
886.65        97.59164
887.05        97.99369
887.45        98.73356
887.85        99.57483
888.25         100.339
888.65        101.1643
889.04        101.7525
889.44         101.655
889.84        100.8322
890.24        99.38842
890.64        97.90363
891.04         97.2885
891.44        97.71585
891.84        98.97265
892.24         100.435
892.64        100.9542
893.04        100.2966
893.44        98.93394
893.83        97.55457
894.23        97.15617
894.63        97.91798
895.03        99.44083
895.43        101.3966
895.83        103.1745
896.23        104.4248
896.63         105.302
897.02        105.5561
897.42        104.8109
897.82        103.1646
898.22        100.8111
898.62        98.47116
899.01        97.19463
899.41        97.22524
899.81        98.25291
900.21        99.75716
900.61        100.8445
901.00        101.2217
901.40        101.1378
901.80        100.8441
902.20        100.7543
902.59        100.9848
902.99        101.3398
903.39        101.6672
903.79         101.739
904.18        101.5064
904.58        101.1512
904.98        100.7897
905.38         100.583
905.77        100.5587
906.17        100.6221
906.57        100.8089
906.96        101.2266
907.36        101.7872
907.76         102.484
908.15        103.0063
908.55        102.7275
908.95        101.6111
909.34        99.80963
909.74        97.96568
910.14        96.92655
910.53        96.93389
910.93        97.81582
911.33        99.11836
911.72        99.99675
912.12         100.125
912.52        99.75304
912.91        99.30263
913.31        99.32723
913.70        99.98072
914.10        101.0954
914.49        102.3106
914.89        102.6079
915.29        101.6705
915.68        99.83964
916.08        98.07476
916.47        97.19466
916.87        97.31843
917.26        98.18803
917.66        99.14307
918.05        99.17293
918.45        98.06049
918.84        96.20707
919.24        94.41627
919.64        93.82974
920.03        94.72387
920.42        96.73186
920.82        99.15867
921.21        100.9154
921.61         101.444
922.00        101.0989
922.40        100.2135
922.79        99.23996
923.19         98.3861
923.58        97.50026
923.98        96.58013
924.37        95.77161
924.77        95.33394
925.16        94.31748
925.55        94.77926
925.95        95.46649
926.34        96.93468
926.74        98.77302
927.13        100.5731
927.52        101.4227
927.92        101.2247
928.31        100.2768
928.70        98.87164
929.10        97.53809
929.49        96.44876
929.89        95.48383
930.28        95.01124
930.67        95.64525
931.07        97.28757
931.46        99.80104
931.85        102.1911
932.24         102.958
932.64         101.823
933.03        99.09411
933.42        95.56043
933.82        93.04596
934.21        92.15686
934.60        92.43008
934.99        93.21581
935.39         93.7477
935.78        93.88168
936.17          93.765
936.56        93.22073
936.96        93.35286
937.35        92.24468
937.74         91.5878
938.13        91.22931
938.53        91.76855
938.92        93.20981
939.31        95.54921
939.70        98.12999
940.09        99.11462
940.49        97.89252
940.88        95.22349
941.27        92.39226
941.66        90.90907
942.05        90.98354
942.44        92.13184
942.84        93.84582
943.23        95.32538
943.62        96.13333
944.01        96.48827
944.40         96.5154
944.79        96.40682
945.18        96.23054
945.57        95.84098
945.97        95.13292
946.36        94.12541
946.75        93.03532
947.14         92.1097
947.53        91.51868
947.92        91.30904
948.31        91.43432
948.70        91.87559
949.09        92.55006
949.48        93.22213
949.87        93.71402
950.26        93.97739
950.65        94.07198
951.04        94.14804
951.43        94.24242
951.82        94.31692
952.21        94.17591
952.60        93.55656
952.99        92.44466
953.38        90.92478
953.77        89.44573
954.16        88.62722
954.55        88.57847
954.94          89.237
955.33        89.94756
955.72        89.58257
956.11        87.93613
956.50        85.30444
956.89        82.83034
957.28        82.60281
957.66        85.19687
958.05        89.65427
958.44        94.45785
958.83        97.37926
959.22        97.82924
959.61        96.36555
960.00        93.85594
960.39        91.74778
960.78        90.55004
961.16        89.93458
961.55         89.3965
961.94        88.14378
962.33        86.10931
962.72         83.8084
963.11        81.93627
963.49        81.29428
963.88        81.97842
964.27        83.75977
964.66        86.03138
965.04        87.47401
965.43        87.44498
965.82        86.38923
966.21        85.03244
966.60        84.36445
966.98        84.60146
967.37        85.35828
967.76        86.33479
968.15         86.9496
968.53        86.96632
968.92        86.59663
969.31        86.00011
969.69        85.30208
970.08        84.60729
970.47        83.91548
970.86        83.27403
971.24        82.81396
971.63        82.58808
972.02        82.57027
972.40        82.94714
972.79        83.95373
973.17        85.67837
973.56        87.89933
973.95          89.991
974.33        90.77979
974.72        89.90031
975.11        87.71674
975.49        85.24828
975.88        83.89614
976.26        83.85538
976.65        84.88209
977.04        86.10284
977.42        85.47742
977.81        82.49026
978.19        78.11732
978.58        74.49805
978.96        73.79015
979.35        76.26685
979.74        81.43253
980.12        88.16416
980.51           92.58
980.89        93.28262
981.28        91.29488
981.66        88.11288
982.05        85.69646
982.43        84.51492
982.82         83.9586
983.20        84.10342
983.59        85.22072
983.97        87.36041
984.35         90.6692
984.74        94.33855
985.12         96.6431
985.51        96.41498
985.89         93.8848
986.28        89.89938
986.66         86.0528
987.04        83.34788
987.43        81.65913
987.81        80.65969
988.20        79.81849
988.58        78.83618
988.96        77.60128
989.35        76.58795
989.73        77.60587
990.12        81.06948
990.50         85.8932
990.88        89.21693
991.27         89.1937
991.65        86.35006
992.03        81.23883
992.42        75.97006
992.80        74.34162
993.18        77.18674
993.56        82.30081
993.95        87.47468
994.33        90.66516
994.71        91.51536
995.10        91.11552
995.48        89.65633
995.86        87.20395
996.24        83.91684
996.63        79.33077
997.01         74.6578
997.39        73.45485
997.77        77.09213
998.15        84.72504
998.54        92.65694
998.92        95.85876
999.30        92.91267
999.68        85.01215
1000.06        74.33045
1000.45        66.40822
1000.83        63.67881
1001.21        64.45683
1001.59        67.22256
1001.97        70.34226
1002.35        73.37929
1002.73        77.41512
1003.12        81.47476
1003.50        82.25914
1003.88        78.38693
1004.26        71.33507
1004.64        64.61907
1005.02        61.34381
1005.40         61.7349
1005.78        65.73665
1006.16        73.66233
1006.54        81.09174
1006.92        83.08054
1007.30        81.32645
1007.69        78.96156
1008.07        78.19592
1008.45        79.27794
1008.83        82.51817
1009.21        89.04422
1009.59        95.63525
1009.97        80.78257
1010.35        17.49256
1010.73       -12.30992
1011.11        10.46855
1011.49        37.51276
1011.86         59.6883
1012.24        72.50796
1012.62         76.5141
1013.00        74.47073
1013.38        67.51675
1013.76        58.01225
1014.14        55.89125
1014.52         70.2205
1014.90        104.1068
1015.28        148.4655
1015.66        173.4933
1016.04        161.0138
1016.41        116.7725
1016.79        66.96671
1017.17        40.77906
1017.55        37.18497
1017.93        42.18689
1018.31        49.29913
1018.69        55.66777
1019.06        61.59494
1019.44        68.93322
1019.82        79.48257
1020.20        92.81356
1020.58        107.1439
1020.95        119.6474
1021.33         121.304
1021.71        181.5394
1022.09        134.1294
1022.46         133.539
1022.84         135.694
1023.22        142.8932
1023.60        163.8332
1023.97        370.0164
1024.35        23.39006
1024.73        66.89951
