SpectraSmart Spectrum 2.9.0.0
--------- Device Information -----------
Spectrum Name :  反射率_0
Saving Time :  2024/04/26 00:35:53
Spectro-Module Model Name : SE2030-DUVN
Spectro-Module Serial Number : OS361AC55029948
Wavelength Start : 200
Wavelength End : 1025
Wavelength Unit : Wavelength(nm)
Spectrum Unit : Reflectance(%)
-----------Spectrum Setting ------------
Integration Time : 20ms
Average : 10
Boxcar : 0
Background removal :  enabled
linearity correction :  enabled
SC :  disabled
Intensity correction :  disabled
DWT denoise :  enabled
savitzky-golay :  disabled
FFT :  disabled
Running average :  disabled
Kalman :  disabled
High pass :  disabled
---------------BEGIN--------------------
Wavelength(nm)             Reflectance(%)
200.29               0
200.75        70.47697
201.21        65.68991
201.67         60.2848
202.13        57.14114
202.58        56.52857
203.04        57.83508
203.50         60.3846
203.96        62.78884
204.42        64.29208
204.88        65.27308
205.34        65.59236
205.80         64.9608
206.26         63.0985
206.72        58.72729
207.18        49.47676
207.64          39.177
208.10        40.27514
208.55        48.22526
209.01         54.1325
209.47        56.88807
209.93        57.83193
210.39        58.25666
210.85        57.73608
211.31        55.33108
211.77        51.31429
212.23        46.06905
212.69        41.80331
213.14        42.13591
213.60        47.28716
214.06        56.46367
214.52        66.59277
214.98        72.85236
215.44        73.92708
215.90        71.05924
216.36        66.51441
216.81        63.49461
217.27        62.94617
217.73        63.82196
218.19        64.17652
218.65        61.26118
219.11        53.97892
219.57        41.54036
220.02        25.47659
220.48        15.54903
220.94        17.62111
221.40        29.40027
221.86        41.95085
222.32        45.77041
222.77        41.44697
223.23        33.67136
223.69        27.05817
224.15        26.32466
224.61        31.02881
225.06        38.81315
225.52        46.53381
225.98        50.27997
226.44        49.37263
226.90        45.64496
227.36        41.15678
227.81        38.62521
228.27        38.98422
228.73        41.02312
229.19        43.98432
229.65        46.76179
230.10         48.8004
230.56         50.4274
231.02         51.5622
231.48        52.05732
231.93        52.01599
232.39        51.54424
232.85        50.90318
233.31        50.59901
233.77        50.72777
234.22        51.12183
234.68        51.64014
235.14         51.9168
235.60         51.8158
236.05        51.53753
236.51        51.01598
236.97        50.04226
237.43        48.58985
237.88        46.62163
238.34         44.5722
238.80        43.96738
239.26        45.54855
239.71        49.11842
240.17        53.46129
240.63        56.72185
241.08        58.24764
241.54        58.34919
242.00        57.53824
242.46        56.47633
242.91        55.31696
243.37        52.85414
243.83        47.91963
244.28        45.77592
244.74         67.7707
245.20        86.43462
245.66        88.79784
246.11        89.10036
246.57        89.83405
247.03        91.37051
247.48        86.36488
247.94        57.12096
248.40        54.73437
248.85        57.43509
249.31         59.9483
249.77        62.83158
250.22        66.80406
250.68        73.18438
251.14         81.8829
251.59        86.97583
252.05        83.12228
252.51        72.97219
252.96        62.62691
253.42        57.99211
253.88         58.4566
254.33        61.83882
254.79        66.70918
255.25         70.5239
255.70        72.55278
256.16        73.98489
256.62        74.49793
257.07         73.6393
257.53        71.98078
257.99        69.35121
258.44        66.76895
258.90        66.29501
259.35        66.98996
259.81        68.15432
260.27        68.17423
260.72        65.49428
261.18        60.93209
261.63        55.22657
262.09        50.02473
262.55         46.5798
263.00        44.81132
263.46        44.16616
263.91        43.67747
264.37        42.55947
264.83        40.65676
265.28        38.21707
265.74        35.87276
266.19        34.34858
266.65        33.87294
267.11        34.01653
267.56        34.26733
268.02        34.02754
268.47         33.1738
268.93        31.92544
269.38        30.50334
269.84        29.48957
270.30        29.03944
270.75        28.98535
271.21        29.06798
271.66          28.915
272.12        28.41639
272.57        27.70095
273.03        26.97067
273.48        26.43755
273.94        26.18367
274.39        26.10034
274.85        26.05472
275.31         25.8509
275.76        25.43764
276.22        24.89996
276.67        24.35097
277.13        24.03936
277.58        23.94751
278.04        24.01266
278.49        24.02783
278.95        23.75833
279.40        23.15471
279.86        22.37167
280.31        21.55034
280.77        21.00682
281.22        20.76389
281.68        20.73366
282.13        20.79582
282.59        20.81017
283.04        20.72508
283.50        20.61579
283.95        20.45753
284.41        20.22554
284.86        19.92728
285.32        19.57806
285.77         19.2757
286.22        19.23064
286.68        19.44101
287.13        19.81254
287.59        20.16253
288.04        20.21262
288.50        19.93255
288.95        19.40577
289.41        18.79922
289.86        18.26504
290.32        17.91154
290.77        17.68395
291.22         17.5962
291.68        17.63184
292.13        17.77974
292.59        18.04123
293.04        18.40168
293.50         18.8321
293.95        19.29596
294.40        19.76004
294.86        20.17029
295.31        20.46293
295.77        20.63683
296.22        20.72258
296.68        20.76822
297.13        20.82552
297.58        20.94266
298.04        21.13017
298.49        21.42454
298.95        21.90938
299.40        22.57209
299.85        23.37066
300.31        24.20174
300.76         24.9145
301.21         25.4426
301.67        25.83817
302.12        26.10088
302.58         26.2865
303.03        26.41249
303.48         26.4872
303.94        26.60093
304.39         26.8591
304.84        27.28019
305.30        27.82049
305.75        28.35993
306.20        28.71778
306.66           28.87
307.11        28.86041
307.57        28.78318
308.02         28.7116
308.47        28.70494
308.93        28.73547
309.38        28.81338
309.83        28.98676
310.29        29.23698
310.74        29.53662
311.19        29.80869
311.65         29.9312
312.10        29.87702
312.55        29.68526
313.00        29.39661
313.46        29.09303
313.91        28.80658
314.36        28.53699
314.82        28.32974
315.27        28.23704
315.72        28.26639
316.18        28.40132
316.63        28.57479
317.08        28.64996
317.53        28.58619
317.99        28.40307
318.44         28.1757
318.89        28.03152
319.35         27.9919
319.80        28.02458
320.25        28.03252
320.70         27.8603
321.16        27.48387
321.61         26.9648
322.06        26.42556
322.51        26.04603
322.97        25.85821
323.42        25.81619
323.87         25.8189
324.32        25.69808
324.78        25.40694
325.23        25.00471
325.68        24.56685
326.13        24.21789
326.59        23.99086
327.04          23.862
327.49        23.78459
327.94        23.68677
328.39        23.54525
328.85        23.37469
329.30        23.22784
329.75        23.15685
330.20        23.17382
330.66        23.23877
331.11        23.31938
331.56        23.32192
332.01        23.21854
332.46        23.02151
332.92         22.7748
333.37        22.58504
333.82        22.48337
334.27        22.46312
334.72        22.46033
335.17        22.36438
335.63        22.15027
336.08          21.851
336.53        21.58135
336.98        21.52645
337.43        21.71456
337.88        22.08886
338.34        22.45409
338.79        22.53673
339.24        22.25159
339.69        21.68097
340.14        21.04863
340.59        20.74666
341.05        20.86473
341.50        21.27688
341.95        21.76405
342.40        22.00385
342.85        21.91934
343.30        21.62411
343.75        21.22093
344.20        20.89115
344.66        20.70211
345.11        20.55753
345.56        20.46711
346.01        20.44605
346.46          20.473
346.91         20.5714
347.36        20.60587
347.81        20.35057
348.26        19.79756
348.72        19.05107
349.17        18.32645
349.62        18.06276
350.07        18.34902
350.52        19.02807
350.97        19.84609
351.42        20.41245
351.87        20.61295
352.32        20.56065
352.77        20.33886
353.22        20.08734
353.67         19.8663
354.13        19.62955
354.58        19.40112
355.03         19.2618
355.48        19.22215
355.93        19.28849
356.38        19.37429
356.83        19.32437
357.28        19.10688
357.73        18.75722
358.18        18.38945
358.63        18.18791
359.08        18.18949
359.53         18.3399
359.98        18.50387
360.43        18.47066
360.88         18.2014
361.33        17.76724
361.78        17.31941
362.23         17.1011
362.68        17.16122
363.13        17.40446
363.58        17.68498
364.03        17.77969
364.48         17.6293
364.93        17.31183
365.38        16.90443
365.83        16.52858
366.28        16.23522
366.73        15.98937
367.18        15.80022
367.63        15.68581
368.08         15.6405
368.53         15.6667
368.98        15.72292
369.43        15.73316
369.88        15.68137
370.33        15.58728
370.78        15.47564
371.23        15.39708
371.68        15.36609
372.13        15.35436
372.58        15.37077
373.03        15.43158
373.48        15.52554
373.93        15.64845
374.38        15.73198
374.83        15.66881
375.28        15.44885
375.72        15.10022
376.17        14.74707
376.62         14.5498
377.07        14.55122
377.52        14.69834
377.97        14.91067
378.42        15.05549
378.87        15.08669
379.32        15.04114
379.77        14.94647
380.22        14.84178
380.67        14.74264
381.11        14.63719
381.56        14.51894
382.01        14.39121
382.46        14.25804
382.91        14.12379
383.36        14.00991
383.81        13.94349
384.26        13.92677
384.71        13.95407
385.15        13.97604
385.60         13.9269
386.05        13.79222
386.50        13.58664
386.95         13.3779
387.40         13.2854
387.85        13.33306
388.29        13.47528
388.74        13.62683
389.19        13.66638
389.64        13.57731
390.09        13.39369
390.54        13.19549
390.98        13.11491
391.43        13.19047
391.88        13.36769
392.33        13.55323
392.78        13.61155
393.23        13.52362
393.67        13.33406
394.12        13.14508
394.57        13.05054
395.02         13.0722
395.47        13.17451
395.91        13.30939
396.36        13.37426
396.81        13.34101
397.26        13.23008
397.71        13.09136
398.15        12.98384
398.60        12.94202
399.05        12.95144
399.50        12.95622
399.95         12.8407
400.39        12.65187
400.84        12.37878
401.29         12.1324
401.74         12.0877
402.18        12.29164
402.63        12.66589
403.08        13.07876
403.53        13.32073
403.97        13.33644
404.42        13.18697
404.87        12.95591
405.32        12.79183
405.76        12.74393
406.21        12.76762
406.66        12.82678
407.11        12.87644
407.55         12.9045
408.00        12.92688
408.45        12.94276
408.90        12.93538
409.34        12.90274
409.79        12.84713
410.24         12.7899
410.68        12.76347
411.13        12.77899
411.58        12.83414
412.03         12.9095
412.47        12.97191
412.92        12.99942
413.37        12.99308
413.81        12.98353
414.26        13.03407
414.71        13.14294
415.15        13.29466
415.60        13.40384
416.05        13.35372
416.49        13.12716
416.94        12.77856
417.39        12.41119
417.83        12.20139
418.28        12.20315
418.73        12.34958
419.17        12.56792
419.62        12.73786
420.07        12.82384
420.51        12.86419
420.96        12.84798
421.41        12.75478
421.85         12.5948
422.30        12.39143
422.74        12.20517
423.19        12.15575
423.64        12.24715
424.08         12.4557
424.53        12.69674
424.98        12.83936
425.42        12.84516
425.87        12.74414
426.31        12.58652
426.76        12.49325
427.21        12.47423
427.65         12.4129
428.10        12.35972
428.54        12.46854
428.99        12.73834
429.44        13.10042
429.88        13.41195
430.33        13.48742
430.77        13.29941
431.22        12.90587
431.66        12.47945
432.11         12.3353
432.56        12.50179
433.00        12.82173
433.45        13.13469
433.89        13.33174
434.34        13.31892
434.78        13.01901
435.23        12.64571
435.67        12.61701
436.12        12.89431
436.57        13.02651
437.01        12.94853
437.46         12.8788
437.90        12.83652
438.35        12.75988
438.79         12.6671
439.24         12.6238
439.68        12.64445
440.13        12.65623
440.57        12.66154
441.02        12.83504
441.46        13.06734
441.91        12.91131
442.35        12.46323
442.80        12.23889
443.24        12.22431
443.69        12.22802
444.13        12.19316
444.58        12.03412
445.02        11.79845
445.47        11.75436
445.91        11.86489
446.36        11.85672
446.80        11.71334
447.24        11.59058
447.69        11.52045
448.13        11.47303
448.58        11.45984
449.02        11.48734
449.47        11.52353
449.91        11.51473
450.36        11.45416
450.80        11.35268
451.25        11.26055
451.69        11.24652
452.13        11.32402
452.58        11.45685
453.02        11.59648
453.47         11.6619
453.91        11.63894
454.36         11.5592
454.80        11.45002
455.24        11.35868
455.69        11.31168
456.13        11.28656
456.58        11.30718
457.02        11.39157
457.46        11.53972
457.91        11.73892
458.35        11.93584
458.79        12.03537
459.24        12.02756
459.68        11.92573
460.13        11.80705
460.57         11.7587
461.01        11.81599
461.46        11.94516
461.90        12.09376
462.34        12.16607
462.79        12.13918
463.23        12.03668
463.68        11.92789
464.12        11.92693
464.56         12.0588
465.01        12.28502
465.45        12.49462
465.89         12.5713
466.34        12.50614
466.78        12.27527
467.22        12.00178
467.67        12.00316
468.11        12.25378
468.55        12.37669
468.99        12.33652
469.44        12.32666
469.88        12.38567
470.32        12.55385
470.77        12.76476
471.21        12.81718
471.65        12.68689
472.10        12.51711
472.54        12.36978
472.98        12.30883
473.42        12.36052
473.87         12.5077
474.31        12.69338
474.75        12.81958
475.20        12.86482
475.64        12.85136
476.08        12.81995
476.52        12.83349
476.97        12.90791
477.41         13.0237
477.85        13.14402
478.29        13.23766
478.74        13.29504
479.18        13.26006
479.62        13.16943
480.06        13.30383
480.50        13.39605
480.95        13.47496
481.39        13.43183
481.83        13.37886
482.27        13.32038
482.72        13.15101
483.16        12.94442
483.60        12.99463
484.04        13.29808
484.48        13.48794
484.93        13.72992
485.37        14.11564
485.81        14.48471
486.25        14.97058
486.69        19.05515
487.14        15.29777
487.58        10.19739
488.02        12.48229
488.46         14.1874
488.90        14.26524
489.34        14.40791
489.79        14.37324
490.23        15.13382
490.67        15.57702
491.11         15.5022
491.55        15.39414
491.99        15.22805
492.43        15.03742
492.88        14.89413
493.32         14.8726
493.76         14.8964
494.20        15.09538
494.64        15.42361
495.08        15.83616
495.52        16.27115
495.96        16.65446
496.41        16.91326
496.85        17.04487
497.29        17.06293
497.73        16.82969
498.17         16.5644
498.61         16.6731
499.05        17.16993
499.49        17.28106
499.93        17.42459
500.37        17.61558
500.82        17.77447
501.26        18.02883
501.70        18.27636
502.14        18.38359
502.58        18.34254
503.02        18.31874
503.46        18.32951
503.90        18.27468
504.34        18.19742
504.78        18.21258
505.22        18.33499
505.66        18.54062
506.10        18.76497
506.54        18.89356
506.98        18.89968
507.42        18.81951
507.86        18.73073
508.30        18.75569
508.74        18.91892
509.18        19.17432
509.62        19.45433
510.06        19.64862
510.50        19.72544
510.94        19.72628
511.38        19.68267
511.82        19.64291
512.26        19.62755
512.70        19.61485
513.14         19.6226
513.58        19.68252
514.02        19.78525
514.46        19.92055
514.90        20.03658
515.34        20.01188
515.78        19.80247
516.22         19.6037
516.66         19.4978
517.10        19.16013
517.54        18.61328
517.98        19.48133
518.42        19.34189
518.86        19.71543
519.30        19.86069
519.74        20.01454
520.18         20.1444
520.62        20.16863
521.06        20.10943
521.50        19.96808
521.93        19.79368
522.37        19.67919
522.81        19.64802
523.25        19.67753
523.69        19.74258
524.13        19.80048
524.57        19.83337
525.01        19.85208
525.45         19.8503
525.89        19.81776
526.32        19.75281
526.76        19.65715
527.20        19.54322
527.64        19.44046
528.08        19.36115
528.52        19.28293
528.96        19.19577
529.40         19.1347
529.83        19.10894
530.27         18.9172
530.71        18.93202
531.15        18.84771
531.59        18.77801
532.03        18.71063
532.46        18.67174
532.90        18.70527
533.34        18.80314
533.78        18.94454
534.22        19.07388
534.66        19.11038
535.09        19.03546
535.53         18.8851
535.97        18.69877
536.41        18.54455
536.85         18.4496
537.28        18.39987
537.72        18.39295
538.16         18.4233
538.60        18.48314
539.04        18.55812
539.47        18.63867
539.91        18.75607
540.35        18.88576
540.79        18.95209
541.22        18.96194
541.66        19.00313
542.10         19.0826
542.54        19.14725
542.97        19.21481
543.41        19.34659
543.85        19.54225
544.29         19.7935
544.72        20.04282
545.16        20.20735
545.60          20.271
546.04        20.25376
546.47        20.23823
546.91        20.36658
547.35        20.65402
547.79        21.05779
548.22        21.46208
548.66        21.66672
549.10         21.6467
549.53        21.50013
549.97        21.34697
550.41        21.31461
550.84        21.44841
551.28        21.72149
551.72        22.07689
552.15        22.40868
552.59         22.6696
553.03        22.88066
553.46        23.05068
553.90        23.21239
554.34        23.37983
554.77        23.51703
555.21        23.60523
555.65        23.68851
556.08        23.78133
556.52        23.59215
556.96        23.71636
557.39        23.77144
557.83        23.93748
558.27        24.17002
558.70        24.43022
559.14        24.63928
559.57        24.76324
560.01        24.83493
560.45        24.85873
560.88        24.84205
561.32        24.81741
561.75        24.77102
562.19         24.7413
562.63         24.7546
563.06        24.81293
563.50        24.91421
563.93        25.04451
564.37        25.19051
564.80        25.33646
565.24        25.49468
565.68        25.63959
566.11         25.7458
566.55         25.8311
566.98        25.86553
567.42        25.90679
567.85        26.10618
568.29        26.45643
568.72        26.70239
569.16        26.85513
569.60        27.16469
570.03        27.51252
570.47         27.5039
570.90        27.26813
571.34        27.00263
571.77        27.35001
572.21        27.45796
572.64        27.55945
573.08        27.22386
573.51         26.5646
573.95        27.65428
574.38        29.13887
574.82        28.61051
575.25        28.37527
575.69        27.44131
576.12        26.95873
576.56        27.01264
576.99        27.88443
577.42        29.00058
577.86        28.95102
578.29        28.61273
578.73        29.93403
579.16        27.54556
579.60        25.27849
580.03        26.47581
580.47        28.26552
580.90        28.50641
581.33        28.01754
581.77        27.76755
582.20        30.09356
582.64        29.50311
583.07        25.28961
583.51        24.71342
583.94        24.23323
584.37        25.28478
584.81        26.51228
585.24        27.69247
585.68        28.07416
586.11        27.25123
586.54        25.49978
586.98        24.81295
587.41        25.06335
587.85         26.1261
588.28        27.02913
588.71        25.49719
589.15        24.90635
589.58        25.45494
590.01        25.65123
590.45        26.23351
590.88        26.29329
591.31         25.9375
591.75        25.72401
592.18        25.78936
592.61        26.39997
593.05        26.92444
593.48        28.03145
593.91        27.93651
594.35         25.8301
594.78        25.41835
595.21        25.57222
595.65        26.84303
596.08        27.83314
596.51        26.87675
596.94         26.3439
597.38        26.85578
597.81        28.20839
598.24        28.86119
598.68        28.65444
599.11        28.61479
599.54        29.75648
599.97        30.79105
600.41        29.24432
600.84        29.73454
601.27        30.60691
601.70        30.60115
602.14        30.94438
602.57        30.87659
603.00        31.46786
603.43        32.65361
603.87        33.94348
604.30        34.11525
604.73        33.39266
605.16        33.27488
605.60        34.32585
606.03        35.48497
606.46         36.4894
606.89        36.67091
607.32        36.14102
607.76        36.52794
608.19        38.05665
608.62        37.86777
609.05        37.47882
609.48         38.1965
609.92          38.777
610.35        38.69996
610.78        40.45486
611.21        41.24712
611.64        39.70649
612.07        40.41632
612.50        40.91187
612.94        41.49544
613.37        41.54752
613.80        42.00269
614.23        42.70818
614.66        43.03176
615.09        43.50662
615.52        43.76738
615.96        43.92983
616.39        44.20229
616.82        43.83811
617.25        44.12661
617.68        44.83629
618.11        45.45943
618.54        45.82733
618.97        45.73951
619.40         45.4516
619.84        45.58544
620.27        46.46212
620.70        47.01459
621.13        47.22384
621.56        46.97799
621.99        46.50463
622.42        47.10651
622.85        48.41705
623.28        48.37139
623.71        47.98354
624.14        47.89695
624.57        47.81781
625.00        47.72836
625.43        47.83257
625.86        47.32362
626.29        47.21719
626.72        47.47316
627.15        47.08223
627.58        47.04612
628.01        46.95908
628.44        46.82669
628.87         46.6586
629.30        46.43703
629.73        46.36313
630.16        46.14833
630.59        45.77929
631.02        45.25464
631.45        44.63713
631.88        44.12383
632.31        43.73853
632.74        43.38329
633.17        43.02123
633.60        42.62915
634.03        42.19059
634.46        41.71889
634.89        41.21727
635.32        40.68915
635.75        40.14719
636.18        39.59844
636.61        39.06804
637.04        38.59154
637.47        38.17147
637.89        37.79747
638.32        37.44595
638.75        37.10034
639.18         36.7569
639.61        36.43141
640.04        36.10877
640.47         35.7606
640.90        35.38922
641.33        34.99969
641.76        34.63784
642.18        34.43239
642.61         34.4023
643.04        34.43264
643.47        34.43411
643.90        34.70867
644.33         34.5118
644.76        34.45676
645.18        34.37423
645.61         34.3556
646.04        34.41592
646.47        34.52459
646.90        34.70172
647.33        34.95296
647.75        35.28827
648.18         35.7382
648.61        36.20172
649.04        36.53061
649.47        36.70916
649.89        36.65505
650.32        36.61676
650.75        37.18055
651.18        38.28274
651.61        39.29246
652.03        39.96814
652.46        40.38517
652.89        40.80076
653.32        40.97607
653.74        41.13449
654.17        42.81843
654.60        43.94532
655.03         43.0653
655.46        44.28462
655.88        47.65313
656.31        51.06218
656.74        114.1982
657.16        73.75906
657.59        26.30716
658.02        20.40706
658.45        36.36065
658.87        47.05417
659.30        49.86081
659.73        49.76815
660.15        48.52896
660.58         50.6192
661.01        52.33913
661.44        51.20979
661.86        51.11535
662.29        51.49806
662.72        52.45016
663.14        53.79009
663.57        54.05798
664.00        53.45351
664.42        53.56242
664.85        54.47041
665.27        55.18957
665.70        55.51527
666.13         55.6852
666.55         55.6771
666.98        55.43628
667.41        55.15216
667.83         55.1657
668.26        55.54923
668.69        56.16976
669.11        56.80625
669.54        57.35783
669.96        57.20623
670.39        56.95647
670.82        56.63495
671.24        56.42937
671.67        56.51103
672.09        57.06271
672.52        57.80494
672.94        58.45576
673.37        57.98392
673.80        57.92422
674.22        58.07247
674.65        58.19072
675.07        58.26584
675.50         58.3509
675.92        58.46778
676.35          58.573
676.77        58.64547
677.20        59.05536
677.62        59.03164
678.05        59.23288
678.47        59.40969
678.90        59.59006
679.32        59.74874
679.75        59.72619
680.17        59.75978
680.60        59.78151
681.02        59.68581
681.45        59.59952
681.87        59.48946
682.30        59.38268
682.72        59.34909
683.15        59.45769
683.57         59.7656
684.00        60.27403
684.42        60.99376
684.85        61.29943
685.27        61.17135
685.70        60.80601
686.12        60.37962
686.54        60.15981
686.97        60.21372
687.39        60.48787
687.82        60.84412
688.24        61.08815
688.66        61.14052
689.09        61.06607
689.51        60.96771
689.94        60.99074
690.36        61.17118
690.78        61.43564
691.21        61.70025
691.63        61.84135
692.06        61.82758
692.48        61.78632
692.90        61.66008
693.33        61.67307
693.75        61.80874
694.17        62.07849
694.60        62.41752
695.02        62.58881
695.44        62.57501
695.87        62.83414
696.29        63.31773
696.71        63.17448
697.14        62.58712
697.56        62.91763
697.98        63.96194
698.41        63.81167
698.83         63.1338
699.25        62.77396
699.68        62.96037
700.10        62.98769
700.52        62.85867
700.94        62.93982
701.37        63.20311
701.79        63.51159
702.21        63.80169
702.64        64.11026
703.06        64.34827
703.48          64.372
703.90        64.17574
704.33        63.80039
704.75        63.38008
705.17        63.21319
705.59        63.37501
706.01         63.6851
706.44        63.98505
706.86        64.56816
707.28        64.50974
707.70         64.5356
708.12        64.46083
708.55        64.40048
708.97        64.36589
709.39        64.33138
709.81        64.31425
710.23        64.33459
710.66         64.3949
711.08        64.52448
711.50        64.65295
711.92        64.67768
712.34        64.58205
712.76        64.38201
713.19        64.18634
713.61        64.19965
714.03        64.44574
714.45        64.86452
714.87        65.28329
715.29        65.42566
715.71         65.2363
716.13        64.81141
716.56        64.34303
716.98        64.11313
717.40        64.18575
717.82        64.57381
718.24        65.16016
718.66        65.16487
719.08        65.41731
719.50        65.27008
719.92        65.06872
720.34        64.91198
720.76        64.86121
721.19         64.7908
721.61        64.87461
722.03        64.93999
722.45        65.02815
722.87        65.16067
723.29        65.32745
723.71        65.48779
724.13        65.62505
724.55        65.74014
724.97        65.82344
725.39        65.86808
725.81        65.87529
726.23        65.84729
726.65        65.80283
727.07        65.77065
727.49        65.76014
727.91        65.77413
728.33         65.8019
728.75        65.80212
729.17        65.76456
729.59        65.75497
730.01        65.79612
730.43        65.77715
730.85        65.77155
731.27        66.09709
731.69        66.62482
732.10        66.85112
732.52        66.71788
732.94        66.49965
733.36        66.35451
733.78        66.32327
734.20        66.44503
734.62        66.98685
735.04        67.74111
735.46        67.69627
735.88         67.0743
736.30        67.38765
736.72        68.57788
737.13        69.07645
737.55        68.64441
737.97        68.59423
738.39         68.9334
738.81        68.20345
739.23        66.87376
739.65        67.57684
740.06        69.83888
740.48        70.14499
740.90        68.56432
741.32        67.90598
741.74         68.4077
742.16        68.67463
742.57        68.74103
742.99        69.36404
743.41        70.32988
743.83        70.87623
744.25        70.87852
744.67        70.52818
745.08        70.08259
745.50         69.9634
745.92        70.28907
746.34        70.90919
746.75         71.5983
747.17        71.98118
747.59        71.97706
748.01        71.70519
748.42         71.3883
748.84        71.36182
749.26         71.7217
749.68        72.34397
750.09        73.03175
750.51         73.4828
750.93        73.60672
751.35        73.38324
751.76         72.9813
752.18        72.90707
752.60        73.14967
753.01        73.23228
753.43         73.1804
753.85        73.37957
754.27        73.83488
754.68        74.47682
755.10        75.15086
755.52        75.34606
755.93        75.41992
756.35        75.49514
756.77        75.76319
757.18        75.82784
757.60        75.69397
758.02        76.03821
758.43        76.57088
758.85        75.77808
759.26        74.17574
759.68        73.99814
760.10        75.09548
760.51        75.74168
760.93        75.66606
761.34        74.33401
761.76         74.2714
762.18        73.78866
762.59        73.72959
763.01        74.08014
763.42        74.81615
763.84        75.44087
764.26        75.85054
764.67        76.14542
765.09        76.25832
765.50        76.25519
765.92         76.0489
766.33        74.94752
766.75        73.44798
767.16        73.03575
767.58        73.84711
768.00        75.25067
768.41        76.91796
768.83        77.93265
769.24        78.52948
769.66        77.75668
770.07        76.34483
770.49        74.90392
770.90        73.86133
771.32         74.7066
771.73         76.7718
772.15        76.31203
772.56        73.77037
772.97        73.18114
773.39        74.53404
773.80        75.27627
774.22        75.08924
774.63        75.05832
775.05        75.17754
775.46        75.30402
775.88        75.38458
776.29        75.24711
776.70        74.96615
777.12        74.89175
777.53        75.07783
777.95        75.35828
778.36        75.60819
778.77        75.61321
779.19        75.36725
779.60        74.95502
780.02        74.53288
780.43        74.43927
780.84        74.79168
781.26        75.00638
781.67        75.11145
782.09        76.18483
782.50        77.66687
782.91         76.8941
783.33        74.50795
783.74        73.76672
784.15        74.82127
784.57        75.54136
784.98        75.63131
785.39        75.69811
785.81        75.67202
786.22        75.25466
786.63        74.73511
787.04        74.67653
787.46        75.13745
787.87        75.94347
788.28        76.82177
788.70        77.27022
789.11        77.16416
789.52        76.75836
789.93        76.25901
790.35        75.76858
790.76        75.46138
791.17        75.67996
791.58        76.28445
792.00        76.61633
792.41        76.56638
792.82        76.51468
793.23        76.57905
793.65        76.42155
794.06        76.26817
794.47        77.13169
794.88        78.29652
795.29        78.22315
795.71        75.47031
796.12        73.56371
796.53        72.57275
796.94        72.00603
797.35        72.08029
797.76        73.52864
798.18        75.69189
798.59        76.92152
799.00        76.78229
799.41        75.77163
799.82        74.43816
800.23        73.62369
800.64        73.57369
801.06         73.9558
801.47        74.59499
801.88        75.09994
802.29        75.31468
802.70        75.38573
803.11        75.37406
803.52        75.34923
803.93        75.36123
804.34        75.34337
804.75        75.31305
805.17        75.42268
805.58        75.72758
805.99        75.86797
806.40        75.80427
806.81        76.26411
807.22        76.84502
807.63        75.79218
808.04        73.63281
808.45        72.71445
808.86        73.23544
809.27        74.01214
809.68         74.6954
810.09        75.16402
810.50        75.24029
810.91        74.97797
811.32        74.56227
811.73         74.2985
812.14        74.27248
812.55        74.35246
812.96        74.51943
813.37        74.73668
813.78        74.96165
814.19         75.2606
814.60        75.44675
815.01        75.21432
815.42        74.54063
815.83        73.48597
816.24        72.44722
816.65        72.12333
817.05        72.71827
817.46        73.99947
817.87        75.44147
818.28        76.09267
818.69        75.69339
819.10        74.47887
819.51        73.04408
819.92         72.4034
820.33        72.81883
820.74        73.97572
821.14        75.31042
821.55        75.81211
821.96        75.26915
822.37        74.04522
822.78        72.64844
823.19        71.81779
823.60        71.75832
824.00        72.27972
824.41        73.06073
824.82        73.66653
825.23         73.8885
825.64        73.87617
826.04        73.73384
826.45        73.60317
826.86        73.53104
827.27         73.4272
827.68        73.28392
828.08        73.14584
828.49        72.96832
828.90        72.82726
829.31        72.69043
829.72        72.47942
830.12        72.22031
830.53        71.91812
830.94        71.72619
831.35        71.84066
831.75        72.32278
832.16        73.05365
832.57        73.86346
832.97        74.38351
833.38        74.43471
833.79        74.11871
834.20        73.66497
834.60        73.42699
835.01        73.51577
835.42        73.81694
835.82         74.1464
836.23        74.11435
836.64        73.67419
837.04        72.98756
837.45        72.28388
837.86        71.92152
838.26        72.00045
838.67        72.36819
839.08        72.89912
839.48        73.35818
839.89        73.60836
840.29         73.7254
840.70        73.69205
841.11        73.46683
841.51        73.08427
841.92        72.54045
842.33        71.98856
842.73        71.70137
843.14         71.7105
843.54        71.98351
843.95        72.34261
844.35        72.53916
844.76         72.4816
845.17        72.25932
845.57         71.9599
845.98        71.72781
846.38        71.60897
846.79        71.52473
847.19        71.49301
847.60        71.47095
848.00        71.48221
848.41        71.53012
848.81         71.5972
849.22        71.57072
849.62        71.48502
850.03         71.3623
850.43        71.32366
850.84        71.51865
851.24        72.00541
851.65        72.54723
852.05         73.1486
852.46        73.65064
852.86        73.99431
853.27         74.2701
853.67        74.12186
854.07        73.11589
854.48        71.35252
854.88        69.02171
855.29        66.88598
855.69        66.04244
856.10        66.69164
856.50        68.70458
856.90        71.39348
857.31        73.12119
857.71        73.32918
858.12        72.37675
858.52        70.95898
858.92        70.01348
859.33        69.76423
859.73        69.94946
860.13        70.42599
860.54        70.91183
860.94        71.33942
861.34          71.798
861.75        72.24744
862.15        72.68433
862.55        73.06417
862.96        73.34686
863.36        73.54794
863.76         73.6894
864.17        73.77975
864.57         73.8611
864.97        73.97276
865.38        74.16609
865.78        74.49245
866.18        74.86258
866.58        75.23637
866.99        75.53297
867.39        75.77022
867.79        75.99661
868.19        76.07365
868.60        75.74448
869.00        75.00321
869.40        73.95084
869.80        73.12487
870.21        73.34029
870.61        74.82159
871.01        77.30346
871.41        80.03232
871.81        81.71104
872.22        81.98071
872.62        81.18869
873.02        79.99645
873.42        79.67136
873.82         80.3041
874.22        81.12009
874.63        81.88509
875.03        82.19703
875.43        81.80248
875.83        81.92011
876.23        80.51529
876.63        79.95839
877.03         80.0767
877.44        81.08866
877.84        105.0653
878.24        87.91704
878.64         88.1703
879.04        88.45333
879.44        83.38436
879.84         80.7281
880.24        85.64159
880.64        87.84932
881.04        88.35559
881.44         88.5229
881.84        87.95834
882.24         86.7718
882.65        85.68849
883.05        85.27676
883.45        85.64763
883.85         86.8954
884.25        88.54321
884.65        89.46859
885.05        89.35046
885.45        88.58047
885.85        87.67825
886.25        87.36065
886.65        87.78352
887.05        88.66961
887.45        89.76472
887.85        90.62574
888.25        91.03992
888.65        91.15241
889.04        90.95327
889.44        90.47002
889.84        89.75787
890.24         88.8158
890.64        87.86643
891.04        87.25379
891.44        87.04523
891.84        87.19534
892.24        87.49538
892.64        87.53081
893.04         87.2431
893.44        86.83063
893.83        86.51851
894.23        86.64614
894.63        87.25788
895.03        88.14999
895.43        89.28799
895.83        90.59124
896.23         91.9112
896.63        93.26157
897.02        94.17449
897.42        93.91857
897.82        92.47773
898.22        90.15945
898.62        87.84903
899.01        86.84479
899.41        87.39892
899.81         89.0511
900.21        91.09541
900.61        92.36678
901.00        92.50588
901.40        91.88634
901.80        90.84966
902.20        89.92155
902.59        89.30949
902.99        88.84594
903.39        88.51038
903.79         88.2998
904.18        88.20258
904.58        88.29942
904.98        88.59382
905.38        89.05228
905.77        89.59901
906.17        90.16663
906.57        90.62165
906.96        90.83827
907.36        90.73531
907.76        90.37542
908.15        89.83247
908.55        89.13126
908.95        88.38658
909.34        87.59711
909.74        86.93877
910.14        86.48501
910.53        86.27339
910.93        86.33028
911.33        86.63209
911.72        87.13416
912.12        87.69152
912.52        88.22189
912.91        88.68924
913.31        89.06898
913.70        89.40445
914.10        89.68317
914.49        89.75529
914.89        89.27851
915.29        88.26511
915.68        86.87978
916.08        85.73031
916.47         85.2695
916.87        85.54032
917.26        86.42876
917.66        87.43217
918.05        87.77757
918.45        87.27377
918.84        86.17278
919.24        85.09174
919.64        84.92683
920.03         85.8799
920.42        87.65497
920.82        89.62402
921.21        90.83035
921.61        90.82431
922.00        89.97618
922.40        88.66447
922.79        87.42186
923.19        86.50506
923.58         85.6194
923.98        84.67334
924.37        84.16489
924.77        84.40916
925.16        82.20084
925.55        83.64125
925.95        84.38255
926.34         86.1792
926.74        88.46188
927.13        90.64864
927.52        91.50702
927.92        90.86887
928.31        89.16946
928.70        86.94769
929.10        85.13589
929.49        84.01259
929.89         83.3615
930.28        83.32343
930.67          84.126
931.07        85.57639
931.46        87.67262
931.85        89.61546
932.24        90.20617
932.64        89.23618
933.03         86.8551
933.42        83.75861
933.82        81.56429
934.21        80.78811
934.60        81.08263
934.99        81.68961
935.39        81.85413
935.78        81.46781
936.17        80.17675
936.56        77.88017
936.96        79.44383
937.35        78.63219
937.74         80.1147
938.13        81.47789
938.53        82.74079
938.92        83.98392
939.31        85.39874
939.70        86.72224
940.09        87.03629
940.49        86.13279
940.88         84.4369
941.27        82.69252
941.66        81.77991
942.05        81.79816
942.44        82.43427
942.84        83.45658
943.23        84.52029
943.62         85.3408
944.01        86.02018
944.40        86.30835
944.79        85.80202
945.18         84.4163
945.57        82.10645
945.97        79.41299
946.36        77.76073
946.75        77.77408
947.14        78.95747
947.53        80.45358
947.92        81.36295
948.31        81.59396
948.70        81.43334
949.09        81.06404
949.48        80.87801
949.87         81.0248
950.26        81.25215
950.65        81.50155
951.04        81.74774
951.43        81.93654
951.82        82.13245
952.21        82.07534
952.60        81.33447
952.99        79.90868
953.38        77.97062
953.77         76.0796
954.16        75.04202
954.55        75.01472
954.94        75.83903
955.33        76.92434
955.72        77.25456
956.11         76.5801
956.50        75.14619
956.89        73.70889
957.28        73.65954
957.66        75.41463
958.05        78.26392
958.44        81.22762
958.83        82.87547
959.22        82.85136
959.61        81.55608
960.00         79.6172
960.39        78.05476
960.78        77.22671
961.16        76.90053
961.55        76.72398
961.94        76.11446
962.33        74.97098
962.72        73.59973
963.11        72.42886
963.49        71.96159
963.88        72.24512
964.27        73.14019
964.66        74.21719
965.04        74.61062
965.43        73.97704
965.82        72.70885
966.21        71.43101
966.60        70.93816
966.98         71.3875
967.37        72.48217
967.76        73.91502
968.15        75.04315
968.53        75.56293
968.92        75.59212
969.31        75.31487
969.69        74.95721
970.08        74.61584
970.47        74.24989
970.86        73.76644
971.24        73.04137
971.63        72.08943
972.02        70.98007
972.40        70.08685
972.79        70.01797
973.17         71.0139
973.56        72.85358
973.95        74.93861
974.33        76.08086
974.72        75.81889
975.11        74.45778
975.49        72.81904
975.88        72.07951
976.26        72.41904
976.65        73.62147
977.04        74.88008
977.42        74.33897
977.81        71.53817
978.19        67.35149
978.58        63.77351
978.96        62.78278
979.35        64.62809
979.74        68.89272
980.12        74.53856
980.51        78.05972
980.89        78.27544
981.28        76.10927
981.66        73.08871
982.05        71.15299
982.43         70.6819
982.82        70.98274
983.20        71.84029
983.59        73.03043
983.97        74.50768
984.35        76.51353
984.74        78.54845
985.12        79.64092
985.51        79.11176
985.89        76.91217
986.28        73.87696
986.66        71.36998
987.04         70.0872
987.43        69.87287
987.81         69.8462
988.20        68.73377
988.58         66.0281
988.96         61.1695
989.35        55.01095
989.73        52.59763
990.12        57.38795
990.50        67.07265
990.88        75.44022
991.27        77.74389
991.65        74.63909
992.03        67.57573
992.42        59.60945
992.80        56.35907
993.18        59.29876
993.56        65.38313
993.95        71.77341
994.33        75.90427
994.71        77.24829
995.10        77.13968
995.48        75.83926
995.86        73.40897
996.24        70.02449
996.63        65.20465
997.01        60.04172
997.39        58.11396
997.77        60.87895
998.15        67.57475
998.54        74.77951
998.92        77.75438
999.30        75.10709
999.68        68.01394
1000.06        58.29596
1000.45         50.6947
1000.83        47.39632
1001.21        46.99785
1001.59         48.4942
1001.97        50.81907
1002.35        53.53059
1002.73        57.46752
1003.12        61.45285
1003.50        61.43716
1003.88        56.14508
1004.26        47.88172
1004.64        40.18135
1005.02        35.79277
1005.40        34.75727
1005.78        36.43555
1006.16        42.59791
1006.54        53.62022
1006.92        63.88963
1007.30        70.46658
1007.69        73.30338
1008.07        73.77234
1008.45        72.30045
1008.83        67.03376
1009.21        51.68066
1009.59        8.686434
1009.97       -89.10778
1010.35       -196.0382
1010.73       -149.0851
1011.11        -69.1396
1011.49       -19.54311
1011.86        13.78367
1012.24        31.82551
1012.62        38.71774
1013.00        38.71759
1013.38        33.01831
1013.76        23.67027
1014.14         19.7603
1014.52        29.48443
1014.90        55.55892
1015.28        91.07583
1015.66        111.6382
1016.04        102.4129
1016.41        68.39351
1016.79        30.63077
1017.17        11.76653
1017.55        10.42515
1017.93        15.33778
1018.31        21.24712
1018.69        25.76777
1019.06        28.94863
1019.44        31.61849
1019.82        34.21767
1020.20        35.43362
1020.58        32.19104
1020.95        18.37349
1021.33        -38.8187
1021.71        1066.887
1022.09        193.0014
1022.46        152.9017
1022.84        145.3496
1023.22        153.7687
1023.60        189.5785
1023.97        563.9259
1024.35       -77.03849
1024.73       -11.62401
