SpectraSmart Spectrum 2.9.0.0
--------- Device Information -----------
Spectrum Name :  反射率_0
Saving Time :  2024/04/26 00:56:03
Spectro-Module Model Name : SE2030-DUVN
Spectro-Module Serial Number : OS361AC55029948
Wavelength Start : 200
Wavelength End : 1025
Wavelength Unit : Wavelength(nm)
Spectrum Unit : Reflectance(%)
-----------Spectrum Setting ------------
Integration Time : 20ms
Average : 10
Boxcar : 0
Background removal :  enabled
linearity correction :  enabled
SC :  disabled
Intensity correction :  disabled
DWT denoise :  enabled
savitzky-golay :  disabled
FFT :  disabled
Running average :  disabled
Kalman :  disabled
High pass :  disabled
---------------BEGIN--------------------
Wavelength(nm)             Reflectance(%)
200.29               0
200.75        96.93611
201.21        92.79465
201.67        87.30121
202.13        84.09344
202.58        83.74944
203.04         85.7674
203.50        88.52505
203.96        89.30955
204.42        87.73687
204.88        84.96278
205.34        82.79853
205.80        83.23663
206.26         87.2659
206.72        97.31689
207.18        117.3102
207.64        134.4931
208.10        122.3917
208.55        98.44965
209.01        83.65321
209.47        79.04639
209.93        80.50065
210.39        85.92748
210.85        92.99624
211.31        96.53416
211.77        94.61243
212.23        89.10311
212.69        83.57534
213.14         83.6228
213.60        89.89345
214.06        100.3393
214.52         111.028
214.98        116.1659
215.44        114.5103
215.90        108.4732
216.36        100.7233
216.81        94.81322
217.27        92.21815
217.73        91.74957
218.19          92.265
218.65        92.40046
219.11        91.61144
219.57         89.7543
220.02        87.69047
220.48        88.72179
220.94        93.46387
221.40        100.4146
221.86        104.4672
222.32        101.0079
222.77        91.73529
223.23        80.64983
223.69          72.097
224.15        70.64912
224.61        75.60581
225.06        84.60211
225.52        94.15097
225.98        99.57288
226.44         99.9772
226.90        97.18145
227.36        93.58952
227.81        92.50889
228.27         94.8814
228.73        99.09731
229.19        103.6326
229.65        106.3141
230.10        106.6504
230.56         105.964
231.02        104.8694
231.48        104.0465
231.93        103.6104
232.39        103.3246
232.85        103.3305
233.31        104.0538
233.77        105.4607
234.22        107.5477
234.68        109.4619
235.14        109.6019
235.60        107.6193
236.05        104.0833
236.51        100.1988
236.97        97.58002
237.43        96.55222
237.88        96.85213
238.34        97.85131
238.80        98.51736
239.26        98.17465
239.71        97.46986
240.17        96.02834
240.63        93.95818
241.08        91.66279
241.54        89.11746
242.00        87.17877
242.46        86.97501
242.91         89.5859
243.37        97.34126
243.83        121.5159
244.28        194.4406
244.74        264.0526
245.20        208.4665
245.66        166.0681
246.11        155.4072
246.57        163.1002
247.03        197.9114
247.48        301.3065
247.94        243.4948
248.40        131.7511
248.85        98.00999
249.31        88.65421
249.77        89.11377
250.22        95.56921
250.68        108.5131
251.14        127.7777
251.59        141.5254
252.05        137.1917
252.51        119.9389
252.96        100.5984
253.42        89.39768
253.88        86.09915
254.33        87.26705
254.79        92.09126
255.25        98.79427
255.70        105.5005
256.16        112.2301
256.62        117.1955
257.07        118.5281
257.53        117.2242
257.99        113.8357
258.44        109.5517
258.90        107.0296
259.35        105.5006
259.81         104.544
260.27         103.062
260.72        99.95836
261.18        95.99041
261.63        91.40751
262.09        87.18893
262.55        83.56701
263.00        80.54096
263.46        78.21088
263.91        76.26559
264.37         74.8988
264.83        73.77823
265.28        72.70238
265.74        71.59899
266.19        69.97643
266.65        68.13065
267.11        66.24926
267.56        64.47832
268.02        63.02748
268.47        61.76226
268.93        60.62774
269.38         59.6213
269.84        58.94606
270.30        58.61031
270.75        58.57747
271.21        58.58892
271.66        58.23858
272.12        57.45181
272.57        56.30613
273.03        55.14111
273.48        54.36932
273.94        54.11234
274.39        54.16589
274.85        54.25528
275.31        53.91312
275.76        53.04187
276.22        51.86985
276.67         50.6198
277.13        49.76912
277.58        49.32125
278.04        49.16805
278.49        49.03141
278.95        48.66227
279.40        47.94265
279.86        47.06491
280.31        46.08912
280.77        45.26799
281.22        44.60521
281.68        44.08519
282.13        43.64076
282.59        43.27246
283.04        42.92821
283.50        42.66521
283.95        42.40748
284.41        42.09419
284.86        41.68863
285.32        41.21928
285.77        40.75351
286.22        40.48862
286.68        40.42389
287.13        40.45281
287.59        40.40924
288.04        40.00331
288.50        39.24175
288.95         38.2146
289.41           37.14
289.86         36.2017
290.32        35.53127
290.77        35.04307
291.22        34.74633
291.68        34.60842
292.13        34.59387
292.59        34.71028
293.04        34.90285
293.50        35.09449
293.95        35.24129
294.40        35.32803
294.86        35.35986
295.31        35.35729
295.77        35.33835
296.22        35.30495
296.68        35.25263
297.13        35.14822
297.58        35.01507
298.04        34.89069
298.49        34.84545
298.95        35.02166
299.40        35.41681
299.85        35.97286
300.31        36.56056
300.76        36.98825
301.21         37.1891
301.67        37.24327
302.12        37.17347
302.58        37.08644
303.03         36.9913
303.48        36.87526
303.94        36.80314
304.39        36.83403
304.84         36.9795
305.30        37.21732
305.75        37.42656
306.20        37.43525
306.66        37.23894
307.11         36.8829
307.57        36.50654
308.02        36.23126
308.47        36.12437
308.93        36.14378
309.38        36.24549
309.83        36.39707
310.29        36.56102
310.74        36.72503
311.19        36.86034
311.65        36.92052
312.10        36.89001
312.55        36.78226
313.00        36.58319
313.46        36.28979
313.91        35.91388
314.36        35.48314
314.82        35.10319
315.27        34.90931
315.72        34.93222
316.18         35.1344
316.63        35.39644
317.08        35.49458
317.53        35.36827
317.99        35.06256
318.44        34.72038
318.89        34.57554
319.35        34.66838
319.80        34.93554
320.25        35.19296
320.70        35.13929
321.16         34.7167
321.61        34.03603
322.06        33.31371
322.51        32.87645
322.97        32.79057
323.42        32.96535
323.87        33.23346
324.32        33.31159
324.78         33.1119
325.23        32.73416
325.68        32.28316
326.13        31.93334
326.59        31.73677
327.04        31.65263
327.49        31.63759
327.94        31.63275
328.39        31.61397
328.85        31.59679
329.30         31.6162
329.75        31.67183
330.20        31.76463
330.66         31.8673
331.11        31.98141
331.56        32.06818
332.01        32.11709
332.46        32.12239
332.92        32.10361
333.37        32.14256
333.82        32.24071
334.27        32.39349
334.72        32.52242
335.17          32.496
335.63        32.29013
336.08        31.95286
336.53        31.62164
336.98        31.52368
337.43        31.70583
337.88        32.10616
338.34        32.53893
338.79        32.74879
339.24        32.64296
339.69        32.29629
340.14        31.88756
340.59        31.72824
341.05        31.88956
341.50        32.26752
341.95        32.68477
342.40        32.88853
342.85        32.82228
343.30        32.57586
343.75        32.25316
344.20        32.03209
344.66        31.97371
345.11        31.99201
345.56        32.04961
346.01        32.08932
346.46        32.08495
346.91        32.07412
347.36        32.01346
347.81        31.82495
348.26        31.52221
348.72        31.16195
349.17        30.83048
349.62        30.74969
350.07        30.95944
350.52        31.37314
350.97        31.87362
351.42        32.28139
351.87        32.53146
352.32        32.66831
352.77        32.67936
353.22        32.55161
353.67        32.30685
354.13        31.96054
354.58        31.59221
355.03        31.36932
355.48        31.32836
355.93        31.43577
356.38        31.59318
356.83         31.6322
357.28        31.50624
357.73        31.25887
358.18        30.96688
358.63        30.75247
359.08        30.64816
359.53        30.61889
359.98        30.59251
360.43        30.46091
360.88        30.20403
361.33        29.85723
361.78        29.51497
362.23        29.32645
362.68        29.31534
363.13        29.42315
363.58        29.53086
364.03        29.45433
364.48        29.15593
364.93        28.70527
365.38        28.19906
365.83        27.79185
366.28        27.53491
366.73        27.37946
367.18        27.30124
367.63        27.26072
368.08        27.22985
368.53        27.22053
368.98        27.19592
369.43        27.09119
369.88        26.90015
370.33        26.64381
370.78        26.36505
371.23        26.14477
371.68        26.01084
372.13        25.93658
372.58        25.92775
373.03         25.9887
373.48        26.09983
373.93        26.25353
374.38        26.37663
374.83        26.35566
375.28        26.17603
375.72        25.86501
376.17        25.53082
376.62        25.31445
377.07        25.25772
377.52         25.3126
377.97        25.43141
378.42        25.53397
378.87        25.58232
379.32        25.59616
379.77         25.5597
380.22        25.44789
380.67         25.2627
381.11        25.01056
381.56        24.72453
382.01        24.47274
382.46        24.28188
382.91        24.14666
383.36        24.04994
383.81        23.95664
384.26        23.85766
384.71        23.76445
385.15        23.68384
385.60        23.64281
386.05        23.62987
386.50        23.62479
386.95        23.60549
387.40        23.54127
387.85        23.43388
388.29        23.30032
388.74        23.16936
389.19        23.02714
389.64        22.87576
390.09         22.7061
390.54        22.57045
390.98        22.55384
391.43        22.67252
391.88        22.88917
392.33        23.09295
392.78        23.11893
393.23        22.95521
393.67        22.65424
394.12        22.36946
394.57         22.2437
395.02        22.30625
395.47        22.49852
395.91        22.75362
396.36        22.91869
396.81        22.94463
397.26        22.86123
397.71        22.70219
398.15         22.4977
398.60        22.30288
399.05        22.11984
399.50        21.94053
399.95        21.68817
400.39        21.46048
400.84        21.20576
401.29        21.01145
401.74        20.98874
402.18        21.16583
402.63        21.47184
403.08        21.81995
403.53         22.0701
403.97        22.17647
404.42        22.17276
404.87        22.07183
405.32        21.90594
405.76        21.70411
406.21        21.47676
406.66        21.27567
407.11        21.17938
407.55        21.20504
408.00        21.33126
408.45        21.50616
408.90        21.60936
409.34        21.59858
409.79        21.50674
410.24        21.39256
410.68        21.34213
411.13        21.37909
411.58        21.47255
412.03        21.58089
412.47        21.63966
412.92        21.61364
413.37        21.53051
413.81        21.42715
414.26        21.37539
414.71          21.381
415.15        21.42476
415.60        21.45415
416.05        21.40461
416.49        21.26445
416.94        21.07146
417.39        20.86621
417.83        20.71532
418.28        20.65036
418.73         20.6424
419.17        20.69005
419.62        20.78857
420.07          20.923
420.51           21.09
420.96        21.23349
421.41        21.25747
421.85        21.13907
422.30        20.93481
422.74        20.70327
423.19        20.57417
423.64        20.55709
424.08        20.62941
424.53        20.73381
424.98        20.80939
425.42        20.84092
425.87        20.83177
426.31        20.79637
426.76        20.81433
427.21        20.86368
427.65        20.78286
428.10        20.65031
428.54        20.72903
428.99        21.03158
429.44        21.43671
429.88        21.75912
430.33        21.78269
430.77        21.47957
431.22        20.93098
431.66         20.3496
432.11        20.18272
432.56        20.46767
433.00        20.84135
433.45        21.12861
433.89        21.62398
434.34        22.06773
434.78         21.5867
435.23        20.60455
435.67        20.43103
436.12        21.02319
436.57         21.3546
437.01        21.27893
437.46        21.20624
437.90         21.1604
438.35        21.04954
438.79         20.9113
439.24         20.8416
439.68        20.86662
440.13         20.8758
440.57        20.88708
441.02        21.19413
441.46        21.61575
441.91        21.45594
442.35        20.83938
442.80        20.45958
443.24        20.35261
443.69        20.45908
444.13        20.65274
444.58        20.49518
445.02        20.05382
445.47        19.94081
445.91        20.13297
446.36        20.16311
446.80        20.01414
447.24        19.94773
447.69        19.98046
448.13        20.00859
448.58        20.03228
449.02        20.07195
449.47        20.10059
449.91        20.07394
450.36        19.99133
450.80        19.86285
451.25        19.73447
451.69        19.66598
452.13        19.67557
452.58        19.73413
453.02        19.81788
453.47        19.88917
453.91        19.93529
454.36        19.97192
454.80        19.98446
455.24        19.94508
455.69        19.86592
456.13        19.74799
456.58        19.65771
457.02        19.66515
457.46        19.78868
457.91        19.99495
458.35        20.21969
458.79        20.35668
459.24        20.38949
459.68        20.33452
460.13        20.25307
460.57        20.19449
461.01        20.19634
461.46        20.23716
461.90        20.29868
462.34        20.34895
462.79        20.37187
463.23        20.36965
463.68        20.37583
464.12        20.44901
464.56        20.59414
465.01        20.80669
465.45        20.96745
465.89        20.97945
466.34        20.84737
466.78        20.49059
467.22        20.09286
467.67        20.15288
468.11        20.61484
468.55        20.86187
468.99        20.81003
469.44        20.74726
469.88        20.73806
470.32         20.8581
470.77         21.0548
471.21        21.08939
471.65        20.94351
472.10        20.81789
472.54        20.75157
472.98        20.73381
473.42        20.78006
473.87        20.90242
474.31        21.05544
474.75        21.16284
475.20        21.21095
475.64        21.20693
476.08        21.19066
476.52        21.22386
476.97        21.32117
477.41        21.46594
477.85        21.60785
478.29        21.70877
478.74         21.7603
479.18        21.66884
479.62        21.49588
480.06        21.70019
480.50        21.84604
480.95        21.98193
481.39        21.93083
481.83        21.87422
482.27        21.81288
482.72        21.56741
483.16        21.24726
483.60        21.29673
484.04        21.70937
484.48        21.91054
484.93        22.16878
485.37        22.60008
485.81        23.08574
486.25         23.5973
486.69        30.90375
487.14        24.80154
487.58        15.97392
488.02        19.70612
488.46        22.26592
488.90        22.24774
489.34        22.32719
489.79        22.15371
490.23        23.35969
490.67        23.92957
491.11        23.62795
491.55        23.49139
491.99         23.4572
492.43        23.29134
492.88        23.06915
493.32        23.07204
493.76        23.14175
494.20        23.33894
494.64        23.58656
495.08        23.88012
495.52        24.19619
495.96        24.49364
496.41        24.70588
496.85        24.88385
497.29        25.00239
497.73        24.67033
498.17        24.21036
498.61        24.39549
499.05        25.22023
499.49        25.37669
499.93        25.45681
500.37        25.53646
500.82        25.56147
501.26        25.80605
501.70        26.14297
502.14        26.34291
502.58        26.35089
503.02        26.34246
503.46        26.32258
503.90         26.1663
504.34        25.95885
504.78         25.9018
505.22        26.02704
505.66         26.2841
506.10        26.57399
506.54        26.72555
506.98        26.69549
507.42        26.54024
507.86        26.36567
508.30        26.33489
508.74        26.48394
509.18        26.75433
509.62        27.05911
510.06        27.25798
510.50        27.31144
510.94         27.2712
511.38        27.18892
511.82        27.14268
512.26        27.15946
512.70        27.20813
513.14        27.28219
513.58        27.37503
514.02        27.46793
514.46        27.56045
514.90        27.62873
515.34        27.59833
515.78        27.43764
516.22         27.3143
516.66        27.27476
517.10        26.98085
517.54        26.44443
517.98        27.14902
518.42        26.94252
518.86        27.25902
519.30        27.43816
519.74        27.67419
520.18        27.89743
520.62        27.97048
521.06        27.89732
521.50         27.6994
521.93        27.45333
522.37        27.29519
522.81        27.26273
523.25        27.31964
523.69        27.42315
524.13        27.50431
524.57        27.53882
525.01        27.54736
525.45        27.53686
525.89        27.51684
526.32        27.48861
526.76        27.44458
527.20        27.38292
527.64        27.31381
528.08        27.24716
528.52        27.16221
528.96        27.05562
529.40        26.99491
529.83        26.99778
530.27        26.77142
530.71        26.84451
531.15        26.78971
531.59        26.76517
532.03        26.75238
532.46        26.77013
532.90        26.84398
533.34        26.96062
533.78        27.10558
534.22         27.2275
534.66        27.25399
535.09        27.16885
535.53        27.00756
535.97        26.81393
536.41         26.6652
536.85        26.58911
537.28        26.57033
537.72        26.59184
538.16        26.62576
538.60        26.66115
539.04        26.68524
539.47        26.70722
539.91        26.80937
540.35        26.96308
540.79        27.04754
541.22        27.05917
541.66        27.10267
542.10        27.17848
542.54        27.21889
542.97        27.24415
543.41        27.33118
543.85        27.48316
544.29        27.69183
544.72        27.89692
545.16         28.0155
545.60        28.03059
546.04        27.96076
546.47         27.9026
546.91        28.02068
547.35        28.33007
547.79        28.78487
548.22        29.23386
548.66        29.41833
549.10        29.30955
549.53        29.03655
549.97        28.76668
550.41        28.68687
550.84        28.85506
551.28        29.22206
551.72        29.69259
552.15        30.09079
552.59        30.34981
553.03        30.51741
553.46        30.61052
553.90        30.68265
554.34        30.75865
554.77        30.78698
555.21        30.77895
555.65         30.8527
556.08        31.03201
556.52        30.91331
556.96        31.20477
557.39        31.29457
557.83        31.39955
558.27        31.49664
558.70        31.60594
559.14        31.74292
559.57        31.89361
560.01        32.06337
560.45        32.20596
560.88        32.24852
561.32        32.20675
561.75        32.09467
562.19        31.98985
562.63        31.95255
563.06         32.0025
563.50        32.15349
563.93         32.3536
564.37        32.51025
564.80        32.59213
565.24        32.65023
565.68        32.69707
566.11        32.74583
566.55        32.82971
566.98        32.93437
567.42        33.07608
567.85        33.27705
568.29        33.55358
568.72        33.78855
569.16        34.01463
569.60        34.41724
570.03        34.84988
570.47        34.89766
570.90        34.67603
571.34        34.33566
571.77        34.67855
572.21        34.64605
572.64        34.59447
573.08        34.13578
573.51        33.40429
573.95        34.83857
574.38        36.69382
574.82        36.12466
575.25        35.72141
575.69        34.52632
576.12        33.88215
576.56        33.79437
576.99        34.69084
577.42         36.0452
577.86         36.1808
578.29        36.01744
578.73        37.78522
579.16        34.72546
579.60        31.69927
580.03        33.09858
580.47         35.3242
580.90        35.79906
581.33        35.28203
581.77        34.76469
582.20         37.9166
582.64        37.49903
583.07        32.07256
583.51        31.45087
583.94        30.84152
584.37         32.1729
584.81         33.7653
585.24        35.42905
585.68        36.04198
586.11        35.61987
586.54        32.80796
586.98        31.85007
587.41        32.28268
587.85         33.7527
588.28        34.80792
588.71        33.09221
589.15        32.16547
589.58        32.50297
590.01        32.87252
590.45        33.43508
590.88        33.62412
591.31        33.32763
591.75        33.22391
592.18        33.28608
592.61         33.9717
593.05        34.30203
593.48        35.61662
593.91        36.39232
594.35        33.12458
594.78        32.56377
595.21        32.55397
595.65        34.15327
596.08        35.55325
596.51        34.37923
596.94        33.65283
597.38        34.24535
597.81         35.8898
598.24         36.6953
598.68        36.02714
599.11        36.00393
599.54        37.71737
599.97        38.68579
600.41        36.51455
600.84        36.87315
601.27        37.87903
601.70        37.68337
602.14        37.83275
602.57        37.66389
603.00         38.4346
603.43        39.76126
603.87        41.08366
604.30        41.10445
604.73        40.11216
605.16        39.90038
605.60        40.90315
606.03        42.06801
606.46        43.08971
606.89        42.98232
607.32        42.44495
607.76        42.82818
608.19        44.47868
608.62         44.2825
609.05        44.02102
609.48        44.64133
609.92        44.61133
610.35        45.20099
610.78        47.03886
611.21        47.39536
611.64        45.87737
612.07        46.63753
612.50        47.32701
612.94        47.94873
613.37        47.78049
613.80        48.30908
614.23        48.80924
614.66        49.10011
615.09         49.6398
615.52        50.01265
615.96        50.29023
616.39        50.65775
616.82        50.25254
617.25        50.44854
617.68        51.10296
618.11        51.89938
618.54        52.60385
618.97        52.45845
619.40        51.77736
619.84        51.95924
620.27        52.97144
620.70        53.70538
621.13        53.97673
621.56         53.7073
621.99        53.16065
622.42        53.86282
622.85        55.43357
623.28        55.45439
623.71        55.19048
624.14        55.15606
624.57        54.71375
625.00        54.47761
625.43        54.72109
625.86        54.28238
626.29        54.29018
626.72        54.73226
627.15         54.2444
627.58         54.1701
628.01        54.02195
628.44        53.86758
628.87        53.76053
629.30        53.50412
629.73        53.74447
630.16        53.53585
630.59        53.05251
631.02        52.41113
631.45        51.72146
631.88        51.12416
632.31        50.65559
632.74         50.2641
633.17        49.91184
633.60        49.55465
634.03        49.17238
634.46        48.78154
634.89        48.38488
635.32        47.98373
635.75        47.58035
636.18        47.16877
636.61        46.74973
637.04        46.32692
637.47        45.89811
637.89        45.46646
638.32        45.02578
638.75        44.59869
639.18         44.1969
639.61        43.82706
640.04        43.47875
640.47        43.12698
640.90        42.77052
641.33        42.41716
641.76        42.08229
642.18        41.85364
642.61        41.74225
643.04        41.62705
643.47        41.46235
643.90        41.71185
644.33        41.50301
644.76        41.54495
645.18        41.57287
645.61         41.5913
646.04        41.59138
646.47        41.56658
646.90        41.59304
647.33        41.76211
647.75        42.10442
648.18        42.62497
648.61        43.16212
649.04        43.46728
649.47         43.5068
649.89        43.24213
650.32         42.9895
650.75        43.41222
651.18        44.47306
651.61        45.53431
652.03        46.28532
652.46        46.71191
652.89        47.08123
653.32        47.04068
653.74        46.88024
654.17        48.65986
654.60        49.61089
655.03        48.16434
655.46        49.93485
655.88        52.72721
656.31        56.70953
656.74        129.5688
657.16        84.09409
657.59        29.67672
658.02        22.65154
658.45        39.89885
658.87        51.17903
659.30        54.40982
659.73         54.2156
660.15        53.24313
660.58        55.06086
661.01        57.03178
661.44          56.034
661.86          55.714
662.29        55.58255
662.72        56.46813
663.14        58.20425
663.57        58.66141
664.00        57.97591
664.42        58.08903
664.85        59.06993
665.27        59.71168
665.70        59.85618
666.13        59.93208
666.55        59.93969
666.98        59.76525
667.41        59.55698
667.83        59.59568
668.26        59.94232
668.69        60.49329
669.11        61.05396
669.54        61.60341
669.96        61.50489
670.39        61.31144
670.82        61.04309
671.24        61.05899
671.67        61.45016
672.09        62.03008
672.52        62.56794
672.94        63.23701
673.37        62.92848
673.80        62.96321
674.22        63.09735
674.65        63.24103
675.07        63.38851
675.50         63.4826
675.92        63.55823
676.35         63.7338
676.77        64.01859
677.20         64.3101
677.62        64.58516
678.05        64.80786
678.47        64.95901
678.90        65.07301
679.32        65.17809
679.75        65.19707
680.17        65.39587
680.60         65.5517
681.02        65.72144
681.45        65.81803
681.87        65.83496
682.30        65.88763
682.72        65.99619
683.15        65.97629
683.57        65.96108
684.00        66.36635
684.42        67.21116
684.85        67.60339
685.27        67.51782
685.70        67.35403
686.12        67.20232
686.54         67.1311
686.97        67.18336
687.39        67.28831
687.82         67.4242
688.24        67.74899
688.66        68.16716
689.09        68.36143
689.51        68.35722
689.94        68.49454
690.36        68.79949
690.78        68.94935
691.21        68.99358
691.63         69.2781
692.06        69.90366
692.48        69.99957
692.90        69.71151
693.33        69.70788
693.75        70.02766
694.17        70.29819
694.60        70.48587
695.02        70.69289
695.44        70.86909
695.87        71.16106
696.29        71.54739
696.71        71.44129
697.14         71.0467
697.56        71.59614
697.98        72.81071
698.41        72.85664
698.83        72.07291
699.25        71.69492
699.68        71.89628
700.10         71.9954
700.52        72.00999
700.94         72.2881
701.37        72.74031
701.79        73.33678
702.21        73.60253
702.64        73.92235
703.06        74.12569
703.48        74.12643
703.90        73.94311
704.33        73.61275
704.75        73.27671
705.17        73.24577
705.59        73.58988
706.01        74.09785
706.44        74.59909
706.86        75.43671
707.28        75.52125
707.70        75.74702
708.12        75.83397
708.55        75.70311
708.97        75.42522
709.39        75.28204
709.81        75.33823
710.23        75.43286
710.66        75.57413
711.08        75.93217
711.50        76.36564
711.92        76.57932
712.34        76.52368
712.76        76.26585
713.19        75.97102
713.61        75.94511
714.03        76.24094
714.45        76.76679
714.87        77.31112
715.29        77.54025
715.71        77.38559
716.13        76.96073
716.56         76.4781
716.98        76.31083
717.40        76.54444
717.82        77.06123
718.24        77.67871
718.66        78.08736
719.08        78.19456
719.50        78.09911
719.92        77.90292
720.34         77.7905
720.76        77.82446
721.19        77.81307
721.61         77.9891
722.03        78.18633
722.45        78.45368
722.87        78.79278
723.29        79.13906
723.71        79.37022
724.13         79.4557
724.55        79.42043
724.97        79.33851
725.39        79.34277
725.81        79.46553
726.23        79.66563
726.65        79.88407
727.07        80.02443
727.49        80.06695
727.91        80.05748
728.33        80.02998
728.75        80.03719
729.17         80.0973
729.59        80.18192
730.01        80.31097
730.43        80.50822
730.85        80.77468
731.27        81.13396
731.69        81.48669
732.10        81.65891
732.52        81.62425
732.94        81.41644
733.36        81.20724
733.78        81.27881
734.20        81.71406
734.62        82.18987
735.04         83.4818
735.46        83.39215
735.88        82.52667
736.30        82.57006
736.72        83.60999
737.13        84.42905
737.55        84.57767
737.97        84.62249
738.39        84.60512
738.81        83.59975
739.23        82.24521
739.65        83.37984
740.06          86.342
740.48        86.79183
740.90        84.79942
741.32        83.89134
741.74        84.41123
742.16        84.68482
742.57        84.77876
742.99        85.61935
743.41        86.93159
743.83        87.73936
744.25        87.87561
744.67        87.60174
745.08         87.1834
745.50        87.05278
745.92        87.33431
746.34        87.84536
746.75        88.44659
747.17        88.84105
747.59        88.97006
748.01        89.15061
748.42        89.41389
748.84        89.35648
749.26        89.26298
749.68        89.93954
750.09        91.22912
750.51        92.44966
750.93        93.17719
751.35        92.75795
751.76        91.57183
752.18        91.08382
752.60        91.29444
753.01        91.85943
753.43        91.26796
753.85        91.48266
754.27        92.04793
754.68        92.93279
755.10        93.98267
755.52        93.96572
755.93        94.58156
756.35        94.62124
756.77        94.73527
757.18        94.78519
757.60        94.85217
758.02         95.3462
758.43        95.82042
758.85        95.40823
759.26        93.60429
759.68        92.91376
760.10        94.86422
760.51        95.66956
760.93        95.50992
761.34        94.03737
761.76        93.70153
762.18         92.7423
762.59        92.19082
763.01        92.64293
763.42        94.06284
763.84        95.46474
764.26        96.44411
764.67        96.66135
765.09        96.19239
765.50        95.95959
765.92         95.9052
766.33        94.58538
766.75        92.55692
767.16        92.10207
767.58         93.1645
768.00        94.81083
768.41        96.63622
768.83        98.52709
769.24        99.66527
769.66        99.08713
770.07        97.01154
770.49        94.90775
770.90        93.32697
771.32        94.37505
771.73        97.19238
772.15        96.64791
772.56        93.28937
772.97        92.59009
773.39         94.5171
773.80        95.44267
774.22        95.02295
774.63        95.13981
775.05        95.72176
775.46        96.06621
775.88        96.06302
776.29        95.77648
776.70        95.34776
777.12        95.17651
777.53        95.34721
777.95        95.65502
778.36        95.95222
778.77          95.955
779.19        95.65302
779.60        95.22745
780.02        94.82501
780.43        94.65423
780.84        94.94043
781.26        95.24603
781.67         95.6008
782.09         97.2321
782.50        99.30177
782.91        98.16136
783.33        94.75235
783.74        93.68517
784.15        95.16451
784.57        96.32108
784.98        96.69835
785.39        96.71024
785.81        96.23005
786.22        96.11644
786.63         95.1404
787.04        95.09402
787.46        95.63125
787.87        96.90057
788.28        98.45744
788.70        99.22396
789.11        99.00851
789.52        98.40446
789.93        97.70146
790.35        96.86577
790.76        96.18777
791.17        96.38071
791.58        97.29794
792.00        97.78986
792.41        97.68295
792.82        97.92608
793.23        98.47279
793.65        97.86868
794.06        96.69843
794.47        97.74925
794.88        100.0082
795.29        100.5282
795.71        96.68256
796.12        94.39118
796.53        93.48946
796.94        92.89881
797.35        92.85642
797.76        94.44973
798.18         96.9479
798.59        98.39236
799.00        98.28703
799.41        97.21268
799.82        95.78654
800.23        94.96555
800.64        95.01939
801.06        95.54796
801.47        96.34602
801.88        96.95267
802.29        97.18784
802.70        97.23596
803.11        97.15466
803.52        96.99811
803.93        96.83355
804.34        96.60763
804.75        96.43256
805.17        96.56014
805.58        97.18272
805.99        97.75733
806.40        98.12729
806.81        98.87905
807.22        99.48533
807.63        98.00198
808.04        95.17118
808.45        93.90339
808.86         94.4852
809.27        95.50037
809.68        96.47576
810.09        97.13857
810.50        97.23738
810.91        96.88079
811.32        96.33312
811.73        96.02312
812.14        96.06763
812.55        96.27603
812.96        96.58671
813.37        96.89288
813.78        97.12804
814.19        97.40791
814.60        97.53337
815.01        97.16951
815.42        96.30804
815.83        95.01048
816.24        93.78835
816.65        93.54256
817.05        94.51548
817.46        96.39273
817.87        98.46258
818.28        99.44611
818.69        98.99593
819.10        97.42897
819.51        95.50545
819.92        94.57121
820.33        94.99617
820.74        96.25561
821.14        97.70587
821.55        98.50182
821.96        98.23613
822.37           96.63
822.78        94.42224
823.19        93.29176
823.60         93.5316
824.00        94.49559
824.41        95.63461
824.82        96.37743
825.23        96.42691
825.64        96.00288
826.04        95.40334
826.45          95.065
826.86        95.10155
827.27        95.32969
827.68        95.63297
828.08        95.88021
828.49         95.9261
828.90        95.91049
829.31         95.8026
829.72        95.52483
830.12        95.12849
830.53        94.62469
830.94        94.22603
831.35        94.21577
831.75         94.6843
832.16        95.48733
832.57        96.45615
832.97        97.20278
833.38        97.49574
833.79        97.43771
834.20        97.19724
834.60        97.04473
835.01        97.08466
835.42        97.21798
835.82        97.33039
836.23        97.14187
836.64        96.64944
837.04        95.98473
837.45        95.33749
837.86        94.99814
838.26        95.05424
838.67        95.37574
839.08         95.8483
839.48        96.24436
839.89        96.43173
840.29        96.48821
840.70        96.44183
841.11        96.31733
841.51        96.13895
841.92        95.84748
842.33        95.53804
842.73        95.39079
843.14        95.39803
843.54        95.58478
843.95        95.71677
844.35        95.48328
844.76        94.82581
845.17        93.87209
845.57        92.93314
845.98        92.49176
846.38        92.64209
846.79        93.21805
847.19        93.95671
847.60        94.26319
848.00         94.0278
848.41        93.42096
848.81        92.74331
849.22        92.37307
849.62        92.47877
850.03        92.93533
850.43        93.68092
850.84        94.46418
851.24        95.21867
851.65        95.76337
852.05        96.27712
852.46        96.88467
852.86        97.60096
853.27        98.32694
853.67        98.49021
854.07        97.60755
854.48        95.64153
854.88        92.36364
855.29        89.00063
855.69        87.76276
856.10        88.99982
856.50        92.19954
856.90        96.20163
857.31        98.50787
857.71        98.25784
858.12        96.10261
858.52        93.32825
858.92        91.67686
859.33        91.51771
859.73        92.39432
860.13        93.89069
860.54        95.12926
860.94        95.82556
861.34         96.2115
861.75        96.42531
862.15        96.76121
862.55        97.25618
862.96        97.70994
863.36         98.0782
863.76        98.26972
864.17        98.26599
864.57        98.20625
864.97        98.11273
865.38        97.97771
865.78          97.878
866.18        97.74889
866.58         97.7381
866.99        98.07275
867.39        98.85857
867.79        100.0525
868.19        101.2404
868.60        101.6292
869.00        101.0506
869.40        99.69125
869.80        98.31752
870.21        98.14043
870.61        99.53371
871.01        102.1309
871.41        105.0527
871.81        106.7956
872.22        106.9086
872.62        105.8413
873.02        104.4631
873.42        104.0788
873.82        105.0553
874.22        107.2662
874.63        109.9071
875.03        111.1596
875.43         110.295
875.83        107.6577
876.23        105.9249
876.63        105.9936
877.03        108.7081
877.44        114.5697
877.84         92.9313
878.24        123.1042
878.64        120.2908
879.04        113.3958
879.44        112.4549
879.84        111.9045
880.24        110.0014
880.64        111.6728
881.04        116.1047
881.44        118.9318
881.84        118.1269
882.24         114.933
882.65        111.4153
883.05        110.2886
883.45        111.9971
883.85        115.6655
884.25        119.7702
884.65        121.7024
885.05        120.6512
885.45        117.6332
885.85        114.2439
886.25        112.6027
886.65        113.1576
887.05        115.1977
887.45        117.9017
887.85        119.8028
888.25        120.3395
888.65        120.0347
889.04         119.229
889.44        118.4818
889.84        118.0043
890.24        117.5368
890.64        117.2119
891.04        117.3069
891.44         117.806
891.84        118.6918
892.24        119.5815
892.64         119.714
893.04        119.0038
893.44        117.8302
893.83        116.6434
894.23        116.1386
894.63          116.44
895.03        117.2361
895.43        118.5756
895.83        120.5005
896.23        122.8031
896.63         125.428
897.02        127.4898
897.42        127.5513
897.82        125.4759
898.22         121.798
898.62        117.8937
899.01        115.7935
899.41        115.9656
899.81        117.7467
900.21        120.2164
900.61        121.8464
901.00         122.153
901.40        121.6453
901.80        120.7256
902.20        120.0096
902.59        119.7255
902.99        119.6006
903.39         119.569
903.79        119.5759
904.18        119.5802
904.58        119.6838
904.98        119.8699
905.38        120.0713
905.77        120.2207
906.17        120.2952
906.57        120.2773
906.96        120.2038
907.36        120.0538
907.76        119.8842
908.15        119.6118
908.55        118.9889
908.95        118.0682
909.34        116.8734
909.74        115.8817
910.14        115.6575
910.53        116.3411
910.93        117.8466
911.33        119.5817
911.72        120.4649
912.12        120.1821
912.52        119.0405
912.91        117.8696
913.31        117.8172
913.70        119.1179
914.10        121.5229
914.49        124.2475
914.89        124.9949
915.29        123.0685
915.68        119.3288
916.08        115.6549
916.47        113.8005
916.87        114.0104
917.26        115.6831
917.66        117.7827
918.05          118.66
918.45        117.8476
918.84        115.9225
919.24        113.8908
919.64        113.1896
920.03         114.192
920.42         116.432
920.82        119.0168
921.21        120.5932
921.61        120.5774
922.00         119.469
922.40        117.9555
922.79         116.849
923.19        116.3529
923.58        116.4707
923.98         116.979
924.37        116.5869
924.77         115.086
925.16        115.7022
925.55        113.8236
925.95         114.546
926.34        116.4738
926.74        119.1284
927.13        121.6664
927.52        122.6611
927.92        121.9752
928.31        120.0632
928.70        117.5531
929.10        115.4743
929.49        114.1708
929.89        113.3795
930.28        113.3332
930.67        114.4085
931.07        116.3927
931.46        119.1937
931.85        121.8563
932.24        122.9417
932.64        122.1828
933.03        119.9173
933.42        116.7633
933.82        114.2712
934.21        113.0126
934.60        112.6306
934.99         112.965
935.39        113.5446
935.78        114.2361
936.17        115.8602
936.56        118.2163
936.96        116.4473
937.35        115.6646
937.74        112.4282
938.13         109.933
938.53        109.3971
938.92        110.7403
939.31        113.6659
939.70        117.2259
940.09        119.0008
940.49        118.0321
940.88        115.2631
941.27        112.1372
941.66        110.3572
942.05        110.2058
942.44        111.1249
942.84        112.6122
943.23        113.9705
943.62        114.7766
944.01        115.2272
944.40        115.4713
944.79        115.7323
945.18        116.0571
945.57        116.2802
945.97        116.0435
946.36        114.9584
946.75        113.1483
947.14         111.183
947.53        109.5857
947.92        108.6763
948.31        108.4233
948.70        108.7215
949.09        109.5432
949.48         110.746
949.87        112.1075
950.26        113.4806
950.65        114.6969
951.04        115.6152
951.43        116.1767
951.82        116.3499
952.21         115.969
952.60         114.875
952.99        113.1696
953.38        111.0204
953.77        108.9609
954.16        107.7096
954.55        107.4171
954.94        107.9887
955.33         108.878
955.72        109.1226
956.11         108.483
956.50        107.1647
956.89        105.9035
957.28        106.0501
957.66        107.9965
958.05        111.0469
958.44        114.1595
958.83        115.8116
959.22        115.6367
959.61        114.0169
960.00        111.7819
960.39        110.2866
960.78        109.9483
961.16        110.5001
961.55        111.1617
961.94        110.6498
962.33        108.7574
962.72        106.0811
963.11        103.6701
963.49        102.8794
963.88        103.9304
964.27        106.4719
964.66        109.6204
965.04        111.4437
965.43        111.0455
965.82        109.1262
966.21        106.7804
966.60        105.4312
966.98        105.3706
967.37         106.081
967.76        107.0725
968.15        107.4454
968.53        106.8988
968.92        105.8054
969.31        104.5412
969.69        103.4967
970.08        102.8188
970.47        102.3968
970.86        102.1036
971.24        101.7923
971.63         101.376
972.02        100.8966
972.40         100.695
972.79        101.2338
973.17        102.7441
973.56        104.9564
973.95        107.1526
974.33        107.9382
974.72        106.9352
975.11        104.6252
975.49        102.2135
975.88        101.4087
976.26        102.4812
976.65        105.1126
977.04        108.2874
977.42        109.3732
977.81        107.3436
978.19        103.2377
978.58        99.43451
978.96        98.43983
979.35        100.6024
979.74        105.2507
980.12        111.2959
980.51        114.9049
980.89        114.8477
981.28         112.299
981.66        108.5692
982.05         105.321
982.43        102.9964
982.82        101.1752
983.20        100.2308
983.59        100.9261
983.97        103.4272
984.35        107.7861
984.74        112.9174
985.12        116.5028
985.51        116.9262
985.89        114.5728
986.28        110.3998
986.66        106.3639
987.04        103.6172
987.43        101.9385
987.81        101.0718
988.20        100.7143
988.58        100.7169
988.96        101.2862
989.35        102.7966
989.73        106.0837
990.12        110.0327
990.50        113.6421
990.88         115.281
991.27        114.5286
991.65        111.7888
992.03        107.2272
992.42        102.2606
992.80        99.57018
993.18        100.0242
993.56        102.3346
993.95        104.9695
994.33        106.3961
994.71        106.3461
995.10        105.6219
995.48        104.4406
995.86         103.014
996.24        101.4917
996.63        99.45157
997.01        97.72186
997.39        98.47752
997.77        102.3033
998.15         108.445
998.54        114.0528
998.92        115.5147
999.30        111.8536
999.68        104.0349
1000.06        93.97023
1000.45        86.58315
1000.83        84.03619
1001.21        84.81285
1001.59        87.71508
1001.97        91.50428
1002.35        95.90507
1002.73        102.1607
1003.12        108.7159
1003.50        110.6741
1003.88        105.6967
1004.26        95.84424
1004.64        86.70147
1005.02        83.49502
1005.40         86.9327
1005.78        97.64375
1006.16        115.1773
1006.54        127.1787
1006.92        124.5669
1007.30        114.4935
1007.69        105.7571
1008.07        103.1747
1008.45         107.261
1008.83         120.161
1009.21        151.0534
1009.59        211.7397
1009.97        283.2057
1010.35        258.5768
1010.73        140.5428
1011.11        99.05524
1011.49        100.3314
1011.86        110.4212
1012.24        118.1219
1012.62        119.8926
1013.00         117.027
1013.38        110.6639
1013.76        104.2979
1014.14        110.1032
1014.52        138.8013
1014.90        194.2193
1015.28        262.4844
1015.66        302.7259
1016.04        288.5977
1016.41        224.4117
1016.79         146.236
1017.17        98.39437
1017.55        83.56704
1017.93        83.85587
1018.31        89.18813
1018.69        93.94859
1019.06        97.97278
1019.44        103.5349
1019.82        114.2604
1020.20        136.7853
1020.58        181.7077
1020.95        268.1855
1021.33        469.2661
1021.71       -2545.068
1022.09       -119.0383
1022.46        13.57533
1022.84        54.40684
1023.22        64.51654
1023.60        49.53614
1023.97       -187.5226
1024.35        232.1968
1024.73        196.4268
