SpectraSmart Spectrum 2.9.0.0
--------- Device Information -----------
Spectrum Name :  反射率_0
Saving Time :  2024/04/26 00:52:06
Spectro-Module Model Name : SE2030-DUVN
Spectro-Module Serial Number : OS361AC55029948
Wavelength Start : 200
Wavelength End : 1025
Wavelength Unit : Wavelength(nm)
Spectrum Unit : Reflectance(%)
-----------Spectrum Setting ------------
Integration Time : 20ms
Average : 10
Boxcar : 0
Background removal :  enabled
linearity correction :  enabled
SC :  disabled
Intensity correction :  disabled
DWT denoise :  enabled
savitzky-golay :  disabled
FFT :  disabled
Running average :  disabled
Kalman :  disabled
High pass :  disabled
---------------BEGIN--------------------
Wavelength(nm)             Reflectance(%)
200.29               0
200.75        72.37936
201.21        66.90816
201.67        61.14211
202.13        57.07242
202.58        54.86476
203.04        54.39031
203.50        55.21133
203.96        56.47671
204.42        57.63984
204.88        58.62663
205.34        59.51349
205.80         60.6048
206.26        62.25689
206.72        65.21117
207.18        69.80386
207.64        70.93797
208.10        63.23012
208.55        54.54187
209.01        50.10601
209.47        49.38898
209.93        50.85339
210.39         54.2471
210.85        58.00767
211.31        58.59309
211.77        55.05193
212.23        48.67171
212.69        42.74435
213.14        42.49686
213.60        48.55642
214.06        59.40742
214.52        71.21214
214.98         78.1216
215.44        78.64036
215.90        74.60882
216.36        68.76191
216.81        64.88584
217.27        64.10146
217.73        65.08853
218.19        65.86195
218.65        63.71869
219.11        57.59457
219.57        46.87495
220.02        32.85565
220.48        24.04096
220.94        25.46684
221.40        35.15255
221.86        45.20054
222.32        47.23049
222.77        41.88248
223.23        33.46695
223.69         26.3061
224.15        24.79452
224.61        28.43038
225.06        34.98282
225.52         41.3184
225.98        43.57635
226.44         41.1762
226.90        36.00462
227.36        30.24132
227.81        26.76837
228.27        26.52515
228.73         28.2334
229.19        31.15497
229.65        34.17537
230.10        36.65491
230.56         38.8163
231.02        40.34282
231.48        40.80601
231.93        40.33424
232.39        39.10662
232.85        37.69868
233.31        37.08929
233.77         37.4866
234.22        38.63062
234.68        40.06901
235.14         40.7739
235.60        40.41764
236.05        39.39917
236.51        38.13445
236.97        37.12583
237.43        36.57088
237.88        36.38615
238.34        36.70126
238.80         37.8554
239.26        39.84897
239.71        42.58528
240.17        45.54574
240.63        48.27165
241.08        50.53693
241.54        52.18799
242.00        53.08082
242.46        53.06263
242.91        51.97513
243.37        48.44504
243.83        39.57362
244.28        26.24973
244.74        39.80688
245.20        68.44483
245.66        77.47337
246.11        79.89886
246.57        80.85083
247.03        81.03458
247.48        75.38625
247.94        62.18583
248.40        64.38019
248.85        66.56271
249.31        68.25678
249.77        70.19619
250.22        72.85144
250.68        76.97898
251.14        82.11268
251.59        83.37875
252.05        77.51131
252.51        67.62363
252.96        58.48488
253.42        54.19923
253.88        54.02039
254.33        56.28746
254.79        60.54694
255.25         65.4789
255.70          69.973
256.16        74.18466
256.62        76.64512
257.07        75.87044
257.53         72.7373
257.99        67.82092
258.44        63.04221
258.90        61.43737
259.35        62.07313
259.81        63.72014
260.27        64.31216
260.72        61.87784
261.18        57.24796
261.63        51.40455
262.09        46.15851
262.55        42.94942
263.00        41.67514
263.46        41.63004
263.91        41.75249
264.37        41.18061
264.83        39.75883
265.28          37.744
265.74        35.78671
266.19        34.60928
266.65        34.40891
267.11        34.75314
267.56        35.07782
268.02        34.72819
268.47        33.59745
268.93        31.93383
269.38        30.08262
269.84        28.85352
270.30        28.46829
270.75         28.7018
271.21        29.13604
271.66        29.15064
272.12         28.5794
272.57        27.62092
273.03        26.61526
273.48        25.98504
273.94        25.85041
274.39        26.02528
274.85        26.24128
275.31        26.10791
275.76        25.54821
276.22        24.73277
276.67        23.90625
277.13        23.50291
277.58         23.5339
278.04        23.85303
278.49          24.155
278.95        24.07444
279.40        23.52943
279.86        22.71954
280.31        21.82328
280.77        21.20979
281.22         20.9236
281.68        20.86576
282.13         20.9084
282.59         20.9028
283.04        20.80024
283.50        20.68628
283.95        20.55718
284.41        20.41628
284.86        20.26652
285.32        20.10101
285.77        19.98263
286.22        20.07179
286.68        20.35603
287.13        20.76044
287.59         21.1137
288.04        21.15483
288.50        20.86686
288.95         20.3274
289.41        19.73084
289.86        19.26863
290.32        19.04879
290.77         19.0005
291.22        19.09033
291.68        19.22737
292.13         19.3876
292.59        19.59982
293.04        19.89129
293.50        20.30193
293.95        20.81373
294.40        21.36961
294.86         21.8968
295.31         22.3022
295.77        22.57212
296.22        22.74537
296.68        22.85941
297.13        22.94925
297.58        23.05784
298.04        23.19182
298.49        23.40793
298.95        23.82519
299.40        24.43957
299.85         25.2098
300.31        26.00268
300.76        26.61613
301.21        26.98582
301.67        27.19098
302.12        27.29023
302.58        27.42708
303.03        27.62281
303.48        27.84218
303.94        28.11362
304.39        28.44798
304.84        28.84003
305.30        29.28233
305.75        29.67284
306.20        29.86176
306.66        29.84915
307.11        29.67382
307.57        29.46931
308.02        29.36573
308.47        29.42433
308.93        29.59807
309.38        29.83802
309.83        30.09623
310.29        30.33025
310.74         30.5381
311.19        30.68795
311.65        30.72973
312.10        30.65724
312.55        30.49126
313.00        30.24719
313.46        29.96527
313.91        29.66844
314.36        29.37388
314.82        29.15325
315.27        29.09619
315.72        29.21319
316.18        29.46492
316.63         29.7548
317.08        29.89989
317.53        29.84475
317.99        29.62622
318.44        29.32775
318.89        29.08969
319.35        28.94613
319.80        28.86579
320.25        28.77927
320.70        28.57743
321.16        28.24395
321.61        27.82549
322.06        27.40872
322.51        27.11554
322.97        26.96121
323.42        26.91525
323.87        26.88776
324.32         26.7334
324.78        26.41646
325.23         25.9876
325.68        25.53288
326.13        25.19577
326.59        25.01057
327.04         24.9518
327.49        24.94859
327.94         24.8863
328.39        24.72968
328.85        24.50109
329.30        24.27931
329.75        24.16179
330.20        24.17546
330.66        24.27055
331.11        24.38991
331.56        24.39835
332.01        24.25786
332.46        23.99145
332.92        23.67303
333.37        23.46505
333.82        23.41164
334.27        23.48732
334.72        23.58521
335.17        23.52221
335.63         23.2546
336.08        22.84203
336.53        22.43589
336.98         22.2798
337.43        22.42129
337.88         22.7849
338.34        23.16837
338.79         23.2866
339.24         23.0455
339.69        22.53404
340.14        21.95563
340.59        21.66553
341.05        21.74677
341.50        22.08046
341.95        22.48248
342.40        22.68423
342.85        22.61953
343.30        22.38972
343.75        22.06349
344.20        21.76212
344.66        21.53862
345.11         21.3162
345.56        21.14479
346.01        21.10022
346.46        21.17184
346.91        21.36059
347.36        21.49312
347.81        21.28527
348.26         20.7163
348.72        19.91272
349.17        19.11928
349.62        18.82159
350.07        19.12387
350.52        19.85267
350.97        20.74006
351.42        21.37643
351.87        21.63595
352.32         21.6312
352.77        21.44344
353.22        21.20835
353.67        20.98532
354.13        20.73207
354.58        20.46209
355.03        20.24206
355.48        20.08753
355.93        20.01382
356.38        19.97675
356.83         19.8847
357.28        19.71736
357.73        19.49395
358.18        19.27385
358.63        19.15238
359.08        19.14732
359.53        19.22955
359.98        19.31722
360.43        19.28649
360.88        19.11319
361.33        18.83058
361.78        18.54004
362.23        18.40683
362.68        18.45796
363.13        18.63012
363.58        18.80081
364.03        18.77942
364.48        18.52936
364.93        18.12875
365.38        17.67536
365.83        17.32347
366.28        17.12671
366.73        17.03461
367.18        17.03526
367.63        17.10882
368.08        17.22373
368.53         17.3787
368.98        17.50796
369.43        17.50424
369.88        17.35456
370.33        17.09584
370.78        16.79228
371.23         16.5619
371.68        16.44522
372.13        16.40234
372.58        16.44101
373.03        16.56611
373.48        16.75232
373.93        16.99511
374.38        17.19031
374.83        17.17752
375.28        16.93542
375.72        16.49862
376.17        16.03055
376.62        15.76176
377.07        15.75465
377.52        15.94284
377.97        16.20612
378.42        16.34508
378.87        16.30527
379.32          16.153
379.77        15.96673
380.22        15.85758
380.67        15.85076
381.11        15.90278
381.56        15.96076
382.01        15.95343
382.46        15.85881
382.91        15.70175
383.36        15.52199
383.81        15.37784
384.26        15.28826
384.71        15.24223
385.15        15.19572
385.60        15.09234
386.05        14.91637
386.50        14.67976
386.95        14.45222
387.40        14.35192
387.85        14.40045
388.29        14.55421
388.74        14.70709
389.19         14.7061
389.64        14.53341
390.09        14.22845
390.54        13.91543
390.98        13.80395
391.43        13.94453
391.88        14.25302
392.33        14.56986
392.78        14.66179
393.23         14.4976
393.67        14.16269
394.12        13.81605
394.57        13.62512
395.02        13.62747
395.47        13.76223
395.91        13.95903
396.36        14.07482
396.81         14.0642
397.26        13.96093
397.71        13.81741
398.15        13.69469
398.60        13.63161
399.05        13.61048
399.50        13.58248
399.95        13.44201
400.39        13.24026
400.84        12.96255
401.29        12.71391
401.74        12.65662
402.18        12.83472
402.63        13.17341
403.08        13.54926
403.53        13.76503
403.97        13.76707
404.42        13.61132
404.87        13.37289
405.32        13.18703
405.76        13.10062
406.21        13.07622
406.66        13.08462
407.11        13.08812
407.55        13.07761
408.00        13.06848
408.45        13.06119
408.90        13.04281
409.34        13.01096
409.79        12.96223
410.24        12.91811
410.68         12.9124
411.13        12.95212
411.58         13.0323
412.03         13.1147
412.47        13.13452
412.92        13.06899
413.37        12.93804
413.81        12.80402
414.26        12.77627
414.71        12.86578
415.15         13.0435
415.60        13.21417
416.05        13.24401
416.49         13.1022
416.94        12.84128
417.39        12.54621
417.83        12.36347
418.28        12.34124
418.73        12.42279
419.17        12.55155
419.62        12.63301
420.07        12.64223
420.51        12.61282
420.96        12.54715
421.41         12.4449
421.85        12.31568
422.30        12.17452
422.74        12.05166
423.19        12.02348
423.64        12.08589
424.08        12.22439
424.53        12.37813
424.98        12.46245
425.42        12.45558
425.87        12.37742
426.31        12.25513
426.76        12.17234
427.21        12.12903
427.65        12.01975
428.10        11.91911
428.54        12.01587
428.99        12.31566
429.44         12.7384
429.88        13.10724
430.33        13.18566
430.77        12.94173
431.22         12.4553
431.66        11.93873
432.11        11.75806
432.56        11.95296
433.00        12.35575
433.45        12.77683
433.89        13.03854
434.34        13.02237
434.78         12.6764
435.23        12.23952
435.67        12.15379
436.12        12.38948
436.57        12.49923
437.01        12.41795
437.46         12.3506
437.90        12.31303
438.35        12.25245
438.79        12.17947
439.24        12.14454
439.68        12.15885
440.13        12.15109
440.57        12.13744
441.02        12.30834
441.46        12.56217
441.91        12.46231
442.35        12.07214
442.80        11.85361
443.24        11.78998
443.69        11.70795
444.13        11.58497
444.58        11.39494
445.02        11.19381
445.47        11.21602
445.91        11.39656
446.36        11.42309
446.80        11.26656
447.24        11.09696
447.69        10.96289
448.13        10.86389
448.58        10.82039
449.02        10.82485
449.47        10.85002
449.91         10.8513
450.36        10.81849
450.80        10.76215
451.25        10.70474
451.69        10.66945
452.13        10.66672
452.58        10.67902
453.02        10.69869
453.47        10.70772
453.91        10.70489
454.36        10.69875
454.80         10.6893
455.24        10.67635
455.69        10.66777
456.13        10.65726
456.58        10.66722
457.02        10.71488
457.46        10.80668
457.91        10.92913
458.35        11.05671
458.79        11.13939
459.24        11.17277
459.68        11.15635
460.13        11.12994
460.57         11.1231
461.01        11.15768
461.46        11.21607
461.90        11.27616
462.34        11.28902
462.79        11.24463
463.23        11.15399
463.68        11.06471
464.12        11.05285
464.56        11.13817
465.01        11.30107
465.45        11.45765
465.89        11.52328
466.34        11.49229
466.78           11.33
467.22         11.1396
467.67         11.2024
468.11        11.48839
468.55        11.64705
468.99        11.63431
469.44        11.61861
469.88        11.63763
470.32        11.73467
470.77        11.86457
471.21         11.8701
471.65        11.73867
472.10        11.59772
472.54        11.49554
472.98         11.4757
473.42        11.55612
473.87        11.72421
474.31        11.92669
474.75         12.0716
475.20        12.13778
475.64        12.14188
476.08        12.12326
476.52        12.14452
476.97        12.22178
477.41        12.33911
477.85        12.45694
478.29        12.53714
478.74        12.57167
479.18        12.51137
479.62        12.40645
480.06        12.54474
480.50        12.67623
480.95        12.81825
481.39        12.84727
481.83        12.83792
482.27        12.79121
482.72        12.62257
483.16        12.40764
483.60        12.44822
484.04        12.77143
484.48        12.94318
484.93        13.12522
485.37        13.62951
485.81        14.34286
486.25        14.42206
486.69        19.03052
487.14        15.08491
487.58        9.986878
488.02        12.29009
488.46         13.9427
488.90        13.91615
489.34        13.91278
489.79        13.81469
490.23        14.61434
490.67         15.1067
491.11        15.08235
491.55        15.03153
491.99        14.92814
492.43        14.81294
492.88         14.7474
493.32        14.77819
493.76        14.82383
494.20        15.02256
494.64        15.33086
495.08        15.70449
495.52        16.08776
495.96        16.41671
496.41        16.62748
496.85        16.72148
497.29        16.72711
497.73        16.52992
498.17        16.34399
498.61        16.56109
499.05        17.18172
499.49        17.39489
499.93        17.60158
500.37        17.82682
500.82        17.99512
501.26        18.24804
501.70        18.48825
502.14          18.572
502.58        18.51061
503.02        18.50284
503.46        18.56829
503.90        18.59984
504.34        18.59769
504.78        18.60714
505.22        18.63259
505.66        18.67323
506.10        18.72228
506.54        18.76425
506.98        18.79895
507.42         18.8308
507.86        18.88752
508.30         19.0132
508.74        19.20755
509.18        19.44616
509.62         19.6817
510.06        19.83674
510.50        19.89352
510.94        19.88481
511.38        19.83549
511.82        19.78581
512.26        19.75597
512.70        19.72975
513.14        19.74007
513.58        19.84041
514.02         20.0195
514.46        20.25157
514.90        20.45528
515.34        20.46563
515.78        20.22872
516.22        19.95436
516.66        19.74168
517.10        19.29699
517.54        18.65772
517.98        19.44326
518.42        19.24357
518.86        19.59587
519.30        19.75712
519.74        19.96042
520.18        20.14914
520.62        20.20036
521.06        20.12651
521.50        19.93979
521.93        19.70788
522.37        19.55723
522.81        19.52128
523.25         19.5652
523.69        19.65682
524.13        19.74339
524.57        19.80095
525.01        19.84327
525.45        19.85715
525.89        19.81989
526.32        19.72926
526.76        19.59194
527.20        19.43052
527.64        19.29165
528.08         19.1929
528.52        19.10699
528.96         19.0234
529.40        18.97479
529.83        18.96691
530.27        18.80004
530.71        18.83358
531.15        18.74716
531.59        18.65157
532.03        18.53889
532.46        18.44997
532.90        18.45419
533.34        18.55051
533.78        18.71121
534.22        18.86719
534.66        18.91704
535.09        18.83625
535.53        18.66538
535.97        18.45432
536.41        18.28698
536.85        18.19459
537.28        18.15998
537.72        18.16673
538.16        18.18753
538.60        18.21231
539.04        18.23522
539.47          18.272
539.91        18.38951
540.35        18.56989
540.79        18.72808
541.22        18.83835
541.66        18.93749
542.10        19.02035
542.54        19.04561
542.97        19.06516
543.41        19.19462
543.85        19.44364
544.29        19.78609
544.72        20.12375
545.16        20.31067
545.60        20.32061
546.04        20.19864
546.47        20.07249
546.91        20.15408
547.35         20.4751
547.79        20.96836
548.22        21.48486
548.66        21.77174
549.10        21.78813
549.53        21.65002
549.97        21.49026
550.41        21.45583
550.84        21.59897
551.28        21.88241
551.72        22.25201
552.15         22.6081
552.59        22.90259
553.03        23.15823
553.46        23.36841
553.90        23.54202
554.34        23.69126
554.77        23.78633
555.21        23.83406
555.65        23.92127
556.08        24.06983
556.52        23.96907
556.96        24.18998
557.39        24.29384
557.83        24.45376
558.27        24.64103
558.70        24.84484
559.14        25.03064
559.57        25.17679
560.01        25.30295
560.45        25.39256
560.88        25.42117
561.32        25.41232
561.75        25.36024
562.19        25.32047
562.63        25.34373
563.06        25.43581
563.50        25.58628
563.93        25.75887
564.37        25.90619
564.80        26.00762
565.24        26.09114
565.68        26.16312
566.11        26.23831
566.55        26.34469
566.98         26.4567
567.42        26.60738
567.85          26.852
568.29        27.24416
568.72        27.52967
569.16        27.75258
569.60        28.14651
570.03        28.52678
570.47        28.61293
570.90        28.52525
571.34        28.11404
571.77        28.60943
572.21        28.72889
572.64        28.85236
573.08        28.50252
573.51        27.55826
573.95        28.85399
574.38        30.80352
574.82         30.4457
575.25        29.90473
575.69        28.95488
576.12        28.34557
576.56        28.25752
576.99        28.89347
577.42        30.25793
577.86        30.38714
578.29        29.99348
578.73         31.7231
579.16        29.09707
579.60         26.5157
580.03        27.46027
580.47        29.27585
580.90        29.86744
581.33        29.24712
581.77        28.77318
582.20        31.66246
582.64        31.27822
583.07        26.47927
583.51        25.79685
583.94        25.23905
584.37         26.1749
584.81        27.22299
585.24        28.54402
585.68         29.2536
586.11        28.62523
586.54        26.44264
586.98         25.7237
587.41        26.06127
587.85         27.2158
588.28        27.97629
588.71        26.80435
589.15        25.77664
589.58        26.20156
590.01        26.26995
590.45        26.84731
590.88        27.00208
591.31        26.66686
591.75        26.40494
592.18        26.45891
592.61        27.13422
593.05        27.78789
593.48        28.80328
593.91        29.10488
594.35        26.80705
594.78        26.34425
595.21        26.30602
595.65        27.61609
596.08        28.80985
596.51        27.81524
596.94        27.12144
597.38        27.60117
597.81        29.05643
598.24        29.82353
598.68        29.73678
599.11        29.52197
599.54        30.98425
599.97        31.95075
600.41        30.56499
600.84        31.06708
601.27         31.8794
601.70        31.74623
602.14        32.01575
602.57        31.91382
603.00        32.49656
603.43         34.2047
603.87        35.20974
604.30        35.52137
604.73        34.95502
605.16        34.58069
605.60        35.51384
606.03        36.55931
606.46        37.63436
606.89        37.80411
607.32        37.11613
607.76        37.56343
608.19        39.04992
608.62         38.9038
609.05        38.57366
609.48        39.15811
609.92        39.39674
610.35        39.52132
610.78        41.23233
611.21        42.08868
611.64        40.44851
612.07         41.1586
612.50        41.70301
612.94        42.23933
613.37        42.12268
613.80        42.63109
614.23        43.09084
614.66        43.35802
615.09        43.83405
615.52        44.08841
615.96        44.19151
616.39        44.59994
616.82        44.18889
617.25        44.29264
617.68        45.00999
618.11        45.62611
618.54        46.07321
618.97        45.96341
619.40        45.52724
619.84        45.67355
620.27        46.37815
620.70        47.00821
621.13        47.40367
621.56        47.14859
621.99        46.44605
622.42        47.00998
622.85        48.55634
623.28        47.99132
623.71        47.86415
624.14        47.78605
624.57        47.66214
625.00        47.60875
625.43        47.65478
625.86        47.17236
626.29         47.1543
626.72        47.21985
627.15        47.00278
627.58        46.97165
628.01        46.88803
628.44        46.82225
628.87        46.59321
629.30        46.41268
629.73        46.28484
630.16        46.28289
630.59        45.61188
631.02        45.09754
631.45        44.56558
631.88        44.07473
632.31        43.64252
632.74        43.26608
633.17        42.92841
633.60        42.57692
634.03        42.19723
634.46        41.80501
634.89        41.39207
635.32        40.94548
635.75        40.46915
636.18        39.96724
636.61        39.46539
637.04        39.00341
637.47        38.58667
637.89        38.20702
638.32        37.83797
638.75         37.4593
639.18        37.07109
639.61        36.69327
640.04        36.33144
640.47        35.98709
640.90        35.66552
641.33        35.36163
641.76        35.08909
642.18        34.92429
642.61        34.87191
643.04        34.82917
643.47        34.73795
643.90        34.95406
644.33        34.74393
644.76         34.7159
645.18        34.67412
645.61        34.66935
646.04        34.70593
646.47        34.76193
646.90        34.89522
647.33        35.16994
647.75        35.60627
648.18        36.21693
648.61        36.83405
649.04          37.214
649.47        37.32341
649.89        37.07895
650.32        36.81894
650.75        37.33555
651.18        38.55776
651.61        39.65436
652.03        40.32351
652.46        40.70956
652.89        41.07753
653.32         41.1128
653.74         41.0846
654.17        42.84534
654.60        43.62982
655.03        42.78814
655.46        44.01037
655.88        47.22618
656.31        51.14161
656.74        120.2656
657.16        78.33791
657.59        27.45157
658.02        20.53063
658.45        36.05803
658.87         46.1895
659.30        48.70029
659.73        48.19241
660.15        47.02605
660.58        49.00603
661.01        50.68298
661.44        49.47201
661.86        49.17752
662.29        49.30388
662.72        50.20153
663.14         51.6516
663.57        51.82887
664.00        50.95015
664.42        50.91512
664.85        51.80434
665.27        52.44974
665.70        52.64227
666.13        52.70313
666.55        52.60924
666.98        52.27364
667.41         51.8899
667.83        51.81047
668.26        52.11169
668.69        52.66801
669.11        53.24607
669.54        53.71986
669.96        53.50833
670.39        53.14311
670.82        52.69868
671.24        52.54633
671.67        52.79979
672.09        53.33686
672.52        53.90533
672.94        54.48486
673.37        54.11625
673.80        54.08945
674.22        54.19052
674.65        54.23531
675.07        54.22306
675.50        54.16463
675.92        54.11749
676.35        54.19778
676.77        54.41719
677.20        54.69641
677.62        54.99376
678.05        55.20215
678.47        55.27826
678.90         55.4179
679.32        55.37741
679.75        55.34777
680.17        55.48296
680.60        55.59732
681.02        55.70919
681.45        55.73044
681.87        55.66474
682.30         55.5336
682.72        55.42431
683.15        55.50397
683.57        55.81029
684.00         56.1615
684.42        56.66523
684.85        56.96592
685.27        57.07153
685.70        57.03605
686.12        56.91911
686.54         56.8651
686.97        56.90613
687.39         56.9914
687.82        57.08004
688.24        57.21552
688.66        57.33889
689.09        57.31966
689.51        57.22877
689.94        57.28714
690.36        57.52374
690.78         57.8235
691.21        58.10774
691.63        58.29589
692.06        58.36165
692.48        58.33622
692.90        58.30221
693.33        58.35957
693.75        58.52834
694.17        58.83155
694.60        59.19148
695.02        59.30796
695.44        59.16906
695.87        59.34008
696.29        59.79606
696.71        59.57215
697.14        58.91574
697.56        59.45138
697.98        60.87737
698.41        60.91864
698.83        60.17136
699.25         59.6644
699.68        59.69645
700.10        59.65536
700.52        59.58889
700.94        59.80072
701.37        60.20357
701.79        60.64651
702.21        61.05435
702.64        61.17142
703.06        61.48359
703.48        61.47037
703.90        61.30355
704.33        60.99997
704.75        60.65706
705.17        60.50486
705.59        60.59754
706.01        60.77882
706.44        60.96842
706.86        61.53401
707.28        61.60579
707.70        61.92127
708.12         62.1738
708.55        62.10135
708.97        61.77079
709.39         61.6164
709.81         61.7086
710.23        61.78684
710.66        61.86245
711.08        62.16178
711.50        62.54944
711.92        62.71367
712.34        62.62105
712.76        62.31096
713.19        61.93401
713.61        61.90486
714.03        62.30716
714.45          62.471
714.87        63.18964
715.29        63.35458
715.71        63.19331
716.13        62.78896
716.56        62.33044
716.98        62.12854
717.40        62.25137
717.82        62.60402
718.24        63.05086
718.66        63.37075
719.08         63.4859
719.50        63.45463
719.92        63.32878
720.34         63.2189
720.76        63.16734
721.19        63.03051
721.61        63.02505
722.03        63.06881
722.45        63.21935
722.87         63.4631
723.29        63.74459
723.71        63.95776
724.13        64.06851
724.55        64.09763
724.97        64.08252
725.39        64.09364
725.81        64.14912
726.23        64.22301
726.65        64.29295
727.07        64.32362
727.49        64.31223
727.91        64.28874
728.33        64.26382
728.75        64.25026
729.17        64.25558
729.59        64.26682
730.01        64.32254
730.43        64.47492
730.85        64.72951
731.27        65.09542
731.69        65.46117
732.10        65.62556
732.52        65.54606
732.94        65.31148
733.36        65.10647
733.78        65.08688
734.20        65.29295
734.62        66.01098
735.04        66.96252
735.46        66.88393
735.88        66.04719
736.30        66.29345
736.72        67.55918
737.13        68.05266
737.55        67.50732
737.97        67.25024
738.39        67.35347
738.81        66.58142
739.23        65.38834
739.65        66.12871
740.06        68.30855
740.48        68.62748
740.90        67.15018
741.32        66.42818
741.74         66.9148
742.16        67.14169
742.57         67.2135
742.99        67.83769
743.41        68.80453
743.83        69.36423
744.25         69.3883
744.67        69.07646
745.08        68.65352
745.50        68.48569
745.92        68.68584
746.34        69.12223
746.75        69.64115
747.17        69.97213
747.59        70.05991
748.01        70.02548
748.42        70.00136
748.84        70.12206
749.26        70.47958
749.68        71.08561
750.09         71.7974
750.51        72.38557
750.93        72.71155
751.35        72.53317
751.76        72.01917
752.18        71.86852
752.60        72.07295
753.01         72.0371
753.43         71.8084
753.85        71.85107
754.27        72.18596
754.68        72.79105
755.10        73.46207
755.52         73.5695
755.93        73.60424
756.35        73.69127
756.77        74.06609
757.18        74.22804
757.60        74.17163
758.02        74.66653
758.43        75.37439
758.85        74.58443
759.26        72.84184
759.68        72.63814
760.10        73.86362
760.51        74.55657
760.93        74.41303
761.34         73.4054
761.76        73.37822
762.18        72.79858
762.59        72.39307
763.01        72.53801
763.42         73.2575
763.84        73.87584
764.26        74.25968
764.67         74.5547
765.09        74.69601
765.50        74.65916
765.92        74.38806
766.33        73.46611
766.75        72.25765
767.16        71.69441
767.58        72.00819
768.00        73.18155
768.41        74.93768
768.83        76.37139
769.24         76.8806
769.66        76.26129
770.07        74.98309
770.49        73.51789
770.90        72.39928
771.32        73.38907
771.73        75.73904
772.15        75.43987
772.56        72.93571
772.97        71.56969
773.39        73.18624
773.80        73.42021
774.22        72.69364
774.63        72.73671
775.05        73.43502
775.46        73.79665
775.88        73.66449
776.29        73.33703
776.70        72.97554
777.12        72.87415
777.53        73.11224
777.95        73.52882
778.36        73.92722
778.77        73.98163
779.19        73.66459
779.60         73.1003
780.02        72.52167
780.43        72.39085
780.84        72.85489
781.26        73.27211
781.67        73.61022
782.09        74.90009
782.50        76.50362
782.91        75.64886
783.33        73.06169
783.74        72.18915
784.15         73.2046
784.57        74.03879
784.98         74.2906
785.39        74.08807
785.81        73.49782
786.22        73.02177
786.63        72.91254
787.04        73.03674
787.46        73.43218
787.87        74.32434
788.28        75.39377
788.70        75.88313
789.11        75.65294
789.52        74.98714
789.93        74.18078
790.35        73.58967
790.76        73.36463
791.17        73.53807
791.58        73.97279
792.00         74.2652
792.41        74.30913
792.82        74.34406
793.23        74.47791
793.65        74.38341
794.06        74.30271
794.47        75.33205
794.88        76.71918
795.29         76.7246
795.71        74.05815
796.12        72.07287
796.53        70.94701
796.94        70.47562
797.35        70.81833
797.76          72.226
798.18        74.05412
798.59        75.12273
799.00        75.03328
799.41        74.02267
799.82        72.61927
800.23        71.75911
800.64        71.68193
801.06        72.02068
801.47        72.62579
801.88        73.15073
802.29        73.44392
802.70        73.64979
803.11        73.75218
803.52        73.69048
803.93        73.49149
804.34        73.12608
804.75        72.74737
805.17        72.71032
805.58        73.11783
805.99        73.61325
806.40        73.99773
806.81        74.58838
807.22         74.9714
807.63        73.76528
808.04        71.58463
808.45        70.65682
808.86        71.20779
809.27        72.16898
809.68        73.10216
810.09        73.64116
810.50        73.56126
810.91        73.00523
811.32        72.27228
811.73        71.84161
812.14        71.84875
812.55        72.10364
812.96        72.52499
813.37         72.9611
813.78        73.31555
814.19        73.68913
814.60        73.89297
815.01        73.61914
815.42        72.85785
815.83        71.66154
816.24        70.47975
816.65        70.11193
817.05         70.7836
817.46        72.24012
817.87        73.88562
818.28        74.64206
818.69        74.21412
819.10        72.87481
819.51        71.26871
819.92        70.49703
820.33         70.8532
820.74        71.99294
821.14        73.34642
821.55        73.89448
821.96        73.41219
822.37        72.26896
822.78        70.94217
823.19        70.11924
823.60        69.99723
824.00        70.39454
824.41        71.03307
824.82        71.56036
825.23         71.7984
825.64        71.87581
826.04        71.85887
826.45         71.8299
826.86         71.8159
827.27        71.73601
827.68        71.59959
828.08        71.48048
828.49        71.34114
828.90        71.24612
829.31        71.12987
829.72        70.85826
830.12        70.45927
830.53        69.97894
830.94        69.63086
831.35        69.69112
831.75         70.2381
832.16        71.12585
832.57        72.16744
832.97        72.95042
833.38        73.25478
833.79        73.17532
834.20        72.89024
834.60        72.68784
835.01         72.6738
835.42        72.74567
835.82        72.78803
836.23        72.54094
836.64        71.99868
837.04         71.2986
837.45        70.61472
837.86        70.20416
838.26        70.14536
838.67        70.33279
839.08        70.68764
839.48        71.05208
839.89        71.31905
840.29        71.52861
840.70        71.64999
841.11        71.63165
841.51        71.48349
841.92        71.18629
842.33        70.84433
842.73        70.65137
843.14        70.62156
843.54        70.74994
843.95        70.88865
844.35        70.84635
844.76         70.5703
845.17        70.15047
845.57        69.71911
845.98        69.47636
846.38        69.47266
846.79        69.62094
847.19        69.86555
847.60        70.02856
848.00        70.08371
848.41        70.05096
848.81        69.98678
849.22        69.90134
849.62        69.85528
850.03        69.84322
850.43        69.90314
850.84        70.03703
851.24        70.27926
851.65        70.47194
852.05        70.75268
852.46        71.17449
852.86         71.7254
853.27        72.39996
853.67        72.75778
854.07        72.24114
854.48        70.88538
854.88        68.90231
855.29        67.00147
855.69        66.20316
856.10        66.70336
856.50        68.37634
856.90        70.62876
857.31        72.06346
857.71        72.22611
858.12         71.4277
858.52        70.25239
858.92        69.47073
859.33        69.26709
859.73        69.42713
860.13        69.83492
860.54        70.26375
860.94        70.66734
861.34        71.09886
861.75        71.50908
862.15        71.89328
862.55         72.1991
862.96        72.39469
863.36        72.48322
863.76        72.45953
864.17        72.34355
864.57        72.20966
864.97        72.12566
865.38        72.18092
865.78         72.4402
866.18        72.79641
866.58        73.23104
866.99        73.70132
867.39        74.21266
867.79        74.79308
868.19        75.20848
868.60        75.02888
869.00        74.19686
869.40        72.86279
869.80        71.66599
870.21        71.59477
870.61        72.93719
871.01        75.39188
871.41        78.19656
871.81        80.02575
872.22        80.49429
872.62        79.94977
873.02        78.99183
873.42        78.81187
873.82        79.46189
874.22         80.1254
874.63        80.61253
875.03         80.6654
875.43        80.10969
875.83        80.26149
876.23        78.70922
876.63        77.74796
877.03        77.04219
877.44         76.6699
877.84         106.926
878.24        82.51576
878.64        83.98895
879.04        86.16599
879.44        81.89544
879.84        79.92264
880.24        85.18114
880.64        87.25556
881.04        87.27826
881.44        86.91718
881.84         86.0256
882.24        84.64344
882.65        83.48212
883.05        83.01723
883.45        83.32137
883.85        84.59488
884.25        86.32841
884.65        87.26398
885.05         87.0558
885.45        86.11731
885.85        85.04285
886.25        84.67015
886.65        85.16759
887.05        86.21259
887.45        87.48182
887.85        88.40549
888.25        88.74212
888.65        88.70282
889.04        88.32965
889.44        87.72607
889.84        86.98068
890.24         86.0573
890.64        85.21738
891.04        84.87254
891.44        85.07465
891.84        85.74619
892.24        86.53613
892.64        86.77075
893.04        86.33754
893.44        85.53864
893.83        84.74996
894.23        84.52297
894.63        84.95892
895.03         85.7834
895.43        86.95834
895.83        88.39321
896.23        89.90196
896.63        91.49881
897.02        92.59199
897.42        92.24375
897.82         90.4094
898.22         87.4753
898.62        84.49479
899.01        83.01252
899.41        83.35304
899.81        85.01141
900.21        87.20968
900.61        88.66351
901.00        88.96258
901.40        88.48161
901.80         87.6152
902.20        86.97652
902.59        86.76389
902.99         86.7629
903.39        86.77872
903.79        86.52392
904.18        85.95771
904.58        85.30327
904.98        84.82312
905.38         84.8805
905.77        85.49233
906.17        86.43452
906.57        87.45798
906.96        88.26062
907.36        88.66904
907.76        88.79675
908.15        88.58439
908.55         87.8385
908.95        86.65346
909.34        85.08137
909.74        83.57645
910.14        82.66241
910.53        82.50478
910.93         83.0669
911.33        84.07473
911.72        84.99892
912.12         85.5469
912.52        85.76125
912.91        85.90936
913.31        86.36742
913.70        87.25063
914.10        88.47581
914.49        89.54498
914.89        89.27577
915.29        87.42351
915.68        84.56836
916.08        81.96577
916.47        80.77473
916.87        81.07244
917.26        82.46352
917.66        84.20416
918.05        85.09362
918.45        84.77716
918.84        83.69765
919.24        82.42049
919.64        81.74208
920.03        81.90757
920.42        82.59949
920.82        83.62009
921.21        84.80921
921.61        85.83059
922.00        86.73016
922.40        87.19839
922.79        86.85326
923.19        85.78925
923.58        83.96239
923.98        81.62607
924.37        80.18435
924.77        80.37447
925.16        77.93006
925.55        80.17255
925.95        81.30334
926.34        83.35225
926.74         85.8521
927.13        88.19672
927.52        89.06402
927.92        88.28963
928.31        86.31554
928.70        83.78858
929.10        81.85318
929.49        80.83276
929.89        80.44507
930.28         80.7384
930.67        81.77846
931.07        83.30304
931.46        85.34766
931.85        87.12221
932.24        87.43221
932.64        86.09962
933.03         83.2937
933.42        79.75877
933.82         77.2379
934.21        76.31133
934.60        76.58366
934.99        77.29977
935.39        77.79209
935.78        77.96082
936.17        77.38956
936.56        75.79094
936.96         77.7319
937.35        76.18872
937.74        76.66632
938.13        77.09906
938.53        77.94449
938.92        79.26538
939.31        81.12868
939.70        83.12032
940.09        83.86177
940.49        82.93058
940.88        80.93185
941.27        78.79563
941.66        77.61012
942.05        77.53039
942.44        78.17269
942.84        79.30707
943.23        80.60108
943.62        81.74189
944.01        82.79889
944.40        83.49275
944.79        83.38034
945.18        82.36431
945.57        80.42785
945.97         77.9482
946.36        76.04274
946.75        75.36096
947.14        75.61636
947.53        76.34427
947.92        77.00778
948.31        77.50098
948.70        78.02378
949.09        78.50722
949.48        78.73427
949.87        78.62248
950.26        78.12782
950.65        77.53902
951.04        77.36315
951.43        77.68679
951.82        78.37923
952.21        79.05643
952.60        79.07904
952.99        78.30405
953.38        76.95208
953.77        75.45053
954.16        74.39668
954.55        73.95419
954.94        74.03527
955.33        74.27557
955.72        74.05943
956.11        73.26202
956.50        72.03898
956.89         71.0362
957.28        71.39578
957.66        73.41021
958.05        76.43583
958.44        79.44921
958.83         80.9605
959.22        80.62748
959.61        78.84639
960.00        76.37528
960.39        74.47746
960.78        73.56393
961.16        73.33811
961.55        73.33915
961.94        72.75603
962.33        71.44908
962.72        69.86734
963.11        68.48613
963.49        67.85271
963.88        68.05564
964.27        68.91467
964.66        70.19861
965.04        71.39902
965.43        72.11818
965.82        72.45918
966.21        72.57039
966.60        72.71783
966.98        72.99714
967.37        73.26234
967.76        73.40783
968.15        73.25169
968.53        72.77695
968.92         72.0685
969.31         71.3227
969.69        70.73277
970.08        70.33799
970.47        70.11134
970.86        69.91484
971.24        69.49895
971.63        68.82441
972.02        67.97121
972.40        67.20131
972.79        66.97718
973.17        67.52007
973.56        68.63227
973.95        70.03132
974.33        71.10653
974.72        71.49499
975.11        71.27004
975.49        70.80499
975.88        70.74776
976.26        71.18507
976.65        71.98843
977.04        72.55846
977.42        71.56887
977.81        68.81057
978.19        65.03524
978.58        61.84241
978.96        60.68875
979.35        61.74934
979.74         64.7348
980.12        69.12672
980.51        72.57629
980.89        74.22056
981.28        74.44677
981.66        73.86489
982.05        73.36014
982.43        73.16718
982.82        72.89229
983.20        72.83735
983.59        73.54141
983.97        75.14447
984.35        77.73776
984.74        80.30547
985.12        80.75084
985.51        78.03882
985.89        72.58514
986.28          66.377
986.66        62.59631
987.04        62.22921
987.43        64.27601
987.81        66.81219
988.20        67.46742
988.58        65.57543
988.96        60.92048
989.35        54.22998
989.73        50.51445
990.12        53.71461
990.50        61.79648
990.88        69.23794
991.27        71.68568
991.65        69.65765
992.03         64.4959
992.42         58.7908
992.80        57.00026
993.18        60.21659
993.56        65.88651
993.95        71.52327
994.33         74.9711
994.71        75.81316
995.10         75.1676
995.48        73.52298
995.86        71.34649
996.24        68.88465
996.63         65.7366
997.01        62.39732
997.39        60.87838
997.77         61.9982
998.15        65.39997
998.54        69.06301
998.92        70.26812
999.30        68.11673
999.68        63.39398
1000.06         57.1195
1000.45        52.04234
1000.83        49.45048
1001.21        48.54636
1001.59        49.16117
1001.97        51.23578
1002.35        54.60556
1002.73        59.92461
1003.12        65.70618
1003.50        66.85598
1003.88        61.36217
1004.26        51.82559
1004.64        42.79058
1005.02        37.95863
1005.40        37.49575
1005.78         40.8933
1006.16        49.08317
1006.54        59.05937
1006.92        64.81412
1007.30        66.30611
1007.69        65.61047
1008.07        64.76268
1008.45         63.8146
1008.83          61.522
1009.21        53.85685
1009.59         25.5691
1009.97       -56.07541
1010.35       -170.9857
1010.73       -150.9198
1011.11       -76.38442
1011.49       -22.59304
1011.86        15.19951
1012.24        36.61496
1012.62        46.02429
1013.00        48.23809
1013.38        45.31577
1013.76        39.73752
1014.14        39.88898
1014.52        52.85273
1014.90        80.69053
1015.28        114.7193
1015.66        129.0995
1016.04        109.4881
1016.41        63.07345
1016.79        17.67093
1017.17        0.782517
1017.55        6.489911
1017.93        19.02652
1018.31        30.66814
1018.69        37.61139
1019.06        40.38864
1019.44        40.23201
1019.82        36.94001
1020.20        29.61617
1020.58        15.62695
1020.95       -13.27973
1021.33       -101.1103
1021.71        1512.473
1022.09        234.3249
1022.46        171.9779
1022.84        156.8808
1023.22        161.4916
1023.60        193.5643
1023.97        552.1429
1024.35       -61.08632
1024.73        8.236975
