SpectraSmart Spectrum 2.9.0.0
--------- Device Information -----------
Spectrum Name :  反射率_0
Saving Time :  2024/04/26 00:40:03
Spectro-Module Model Name : SE2030-DUVN
Spectro-Module Serial Number : OS361AC55029948
Wavelength Start : 200
Wavelength End : 1025
Wavelength Unit : Wavelength(nm)
Spectrum Unit : Reflectance(%)
-----------Spectrum Setting ------------
Integration Time : 20ms
Average : 10
Boxcar : 0
Background removal :  enabled
linearity correction :  enabled
SC :  disabled
Intensity correction :  disabled
DWT denoise :  enabled
savitzky-golay :  disabled
FFT :  disabled
Running average :  disabled
Kalman :  disabled
High pass :  disabled
---------------BEGIN--------------------
Wavelength(nm)             Reflectance(%)
200.29               0
200.75        86.09692
201.21        79.46458
201.67        72.57373
202.13        68.84875
202.58        68.52235
203.04         71.0922
203.50         74.7374
203.96        76.18629
204.42        74.88028
204.88        72.19528
205.34        69.77892
205.80         69.3591
206.26        71.63878
206.72        77.90531
207.18         91.3146
207.64        105.9457
208.10        103.1014
208.55        90.05972
209.01        80.57288
209.47        76.46418
209.93        75.43161
210.39        76.10152
210.85        77.00182
211.31        75.57148
211.77        71.32491
212.23        65.33955
212.69        60.32078
213.14        60.42747
213.60        65.93983
214.06         75.6786
214.52        85.89532
214.98        90.89355
215.44        89.46223
215.90        83.52042
216.36        76.29507
216.81        72.29005
217.27        72.62643
217.73        75.61884
218.19        78.76559
218.65        78.88888
219.11        74.93881
219.57        66.46581
220.02        55.00399
220.48        48.75748
220.94        52.02736
221.40        62.41428
221.86        71.53471
222.32        70.84054
222.77        61.77924
223.23        49.65083
223.69        39.73785
224.15        37.39024
224.61        41.92689
225.06        50.50871
225.52        59.41304
225.98        63.87719
226.44          62.995
226.90        58.79657
227.36        53.64341
227.81        50.70099
228.27        50.99025
228.73        53.11315
229.19        56.04388
229.65        58.32706
230.10        59.45506
230.56        60.05981
231.02        60.32156
231.48        60.38354
231.93        60.30947
232.39        60.02433
232.85        59.64632
233.31        59.47873
233.77        59.55573
234.22        59.84299
234.68        60.06933
235.14        59.68021
235.60        58.59639
236.05        57.08428
236.51        55.57217
236.97        54.56174
237.43         54.1897
237.88        54.46021
238.34        55.24249
238.80        56.33342
239.26        57.48672
239.71        58.77667
240.17        59.99592
240.63        61.39083
241.08        63.06315
241.54        64.78143
242.00         66.3872
242.46         67.8284
242.91        69.57584
243.37        72.25404
243.83        80.54005
244.28        114.7497
244.74        167.5755
245.20        155.5458
245.66        136.2991
246.11        130.9429
246.57        134.7094
247.03        150.7185
247.48        193.0851
247.94        151.0581
248.40        100.5859
248.85        87.37172
249.31        84.20773
249.77        84.20005
250.22        85.84576
250.68        89.34209
251.14        94.13503
251.59        95.57431
252.05        90.35741
252.51        81.27908
252.96        72.61996
253.42        68.27641
253.88        67.45976
254.33        68.52425
254.79        71.15686
255.25        74.32268
255.70        77.08228
256.16        79.62384
256.62        80.52901
257.07        78.29752
257.53        73.83767
257.99        67.83363
258.44        62.12059
258.90        59.65146
259.35        59.55692
259.81        60.58478
260.27        60.85879
260.72        58.60306
261.18        54.46255
261.63        49.22086
262.09        44.37809
262.55        41.03913
263.00        39.19854
263.46        38.40975
263.91        37.82645
264.37        36.75434
264.83        35.05864
265.28        32.91257
265.74        30.98293
266.19         30.0406
266.65         30.2123
267.11        31.01148
267.56        31.75625
268.02        31.65143
268.47        30.60278
268.93         28.9037
269.38        26.97174
269.84         25.7509
270.30        25.49658
270.75        25.92719
271.21        26.58751
271.66        26.80402
272.12         26.3881
272.57        25.56885
273.03         24.6473
273.48         23.9871
273.94        23.71533
274.39        23.66853
274.85         23.6816
275.31        23.52507
275.76         23.1349
276.22        22.61334
276.67        22.08082
277.13        21.78142
277.58        21.70205
278.04        21.77784
278.49        21.79949
278.95        21.52409
279.40        20.90885
279.86        20.11034
280.31        19.29193
280.77        18.79655
281.22        18.64757
281.68        18.73708
282.13        18.91843
282.59        19.00983
283.04        18.95303
283.50        18.83325
283.95        18.63878
284.41        18.36384
284.86        18.02284
285.32        17.62093
285.77        17.26023
286.22        17.15487
286.68        17.30385
287.13        17.62252
287.59        17.91537
288.04        17.88451
288.50        17.50307
288.95        16.87026
289.41        16.18118
289.86        15.63577
290.32        15.34038
290.77        15.21205
291.22        15.23369
291.68         15.3449
292.13        15.51695
292.59        15.76136
293.04        16.04906
293.50        16.32958
293.95        16.57563
294.40        16.76709
294.86        16.89916
295.31        16.98548
295.77        17.03825
296.22        17.06473
296.68        17.07225
297.13        17.04281
297.58        17.00483
298.04        16.99319
298.49        17.05849
298.95        17.30171
299.40        17.72354
299.85        18.27645
300.31        18.87927
300.76        19.42136
301.21        19.84163
301.67        20.17615
302.12        20.39536
302.58        20.49837
303.03        20.49093
303.48        20.38839
303.94        20.29545
304.39        20.34801
304.84        20.57214
305.30        20.91829
305.75        21.26014
306.20        21.40341
306.66         21.3257
307.11        21.08797
307.57        20.80511
308.02        20.58872
308.47        20.49787
308.93        20.49225
309.38        20.55485
309.83        20.68497
310.29        20.85329
310.74        21.05073
311.19        21.22659
311.65        21.30211
312.10        21.26045
312.55        21.12145
313.00        20.90578
313.46        20.66069
313.91        20.40762
314.36        20.15953
314.82        19.96309
315.27        19.88009
315.72        19.91823
316.18        20.05158
316.63        20.22883
317.08        20.34175
317.53         20.3524
317.99        20.27834
318.44         20.1496
318.89        20.01885
319.35        19.90154
319.80         19.7875
320.25        19.65724
320.70        19.48659
321.16        19.27558
321.61        19.03362
322.06        18.80006
322.51        18.62676
322.97          18.514
323.42        18.45711
323.87        18.38594
324.32        18.18636
324.78         17.8423
325.23        17.39248
325.68        16.94656
326.13        16.68302
326.59        16.64155
327.04        16.78761
327.49        17.00822
327.94        17.11053
328.39        17.03995
328.85        16.84072
329.30        16.62832
329.75        16.58151
330.20        16.74556
330.66        17.03666
331.11        17.36456
331.56        17.54964
332.01        17.53603
332.46        17.36485
332.92        17.10157
333.37        16.87583
333.82        16.73894
334.27        16.67329
334.72        16.62647
335.17         16.5091
335.63        16.30363
336.08        16.04684
336.53        15.83683
336.98        15.82331
337.43        16.02677
337.88        16.39546
338.34         16.7619
338.79         16.8965
339.24        16.72207
339.69        16.30352
340.14        15.82038
340.59        15.58947
341.05        15.68084
341.50        15.99689
341.95        16.36868
342.40        16.54442
342.85        16.46945
343.30        16.24655
343.75        15.95526
344.20        15.73227
344.66        15.62826
345.11        15.55547
345.56        15.55118
346.01        15.67491
346.46        15.90272
346.91        16.22832
347.36        16.46242
347.81        16.30011
348.26        15.71968
348.72        14.86022
349.17        13.98113
349.62        13.59408
350.07        13.82092
350.52        14.49128
350.97        15.35292
351.42        16.01522
351.87        16.35135
352.32        16.46482
352.77        16.41278
353.22        16.29135
353.67        16.14535
354.13        15.93792
354.58         15.6899
355.03        15.48135
355.48          15.336
355.93        15.26893
356.38        15.23862
356.83         15.1589
357.28        15.01124
357.73        14.81233
358.18        14.63053
358.63        14.57281
359.08        14.65409
359.53        14.84077
359.98        15.02056
360.43        15.02235
360.88        14.81765
361.33        14.45761
361.78        14.08668
362.23        13.94064
362.68         14.0615
363.13        14.35921
363.58        14.67659
364.03         14.7692
364.48        14.58132
364.93         14.2063
365.38        13.74696
365.83        13.36494
366.28        13.12442
366.73        12.97834
367.18        12.92845
367.63        12.97939
368.08        13.10583
368.53        13.29706
368.98        13.49002
369.43        13.57901
369.88        13.54393
370.33        13.42051
370.78        13.23407
371.23        13.03925
371.68        12.86605
372.13        12.69114
372.58        12.58423
373.03        12.65798
373.48        12.91304
373.93        13.31176
374.38        13.68895
374.83        13.78794
375.28        13.56557
375.72         13.0918
376.17         12.5661
376.62        12.27625
377.07        12.30334
377.52        12.55527
377.97        12.90598
378.42        13.15013
378.87        13.21862
379.32        13.17429
379.77         13.0685
380.22         12.9712
380.67        12.90592
381.11        12.84733
381.56        12.77149
382.01        12.65744
382.46        12.50307
382.91        12.32126
383.36        12.15488
383.81        12.06298
384.26        12.05559
384.71        12.11945
385.15        12.18039
385.60        12.13364
386.05        11.95931
386.50        11.68334
386.95        11.40644
387.40        11.30326
387.85        11.40606
388.29        11.64659
388.74        11.89467
389.19        11.97931
389.64        11.87721
390.09        11.63925
390.54        11.37352
390.98        11.26045
391.43        11.35011
391.88        11.56875
392.33        11.79874
392.78        11.86992
393.23        11.75639
393.67        11.51954
394.12        11.27133
394.57        11.12109
395.02        11.09454
395.47        11.15093
395.91        11.24358
396.36        11.27684
396.81        11.22546
397.26        11.11331
397.71        10.98485
398.15        10.89076
398.60        10.85953
399.05        10.87406
399.50        10.88573
399.95        10.79704
400.39        10.64485
400.84        10.41955
401.29        10.20913
401.74        10.15251
402.18        10.29016
402.63        10.56092
403.08        10.86145
403.53        11.02486
403.97        11.00772
404.42        10.85937
404.87        10.65518
405.32        10.52828
405.76        10.51701
406.21        10.57678
406.66        10.65937
407.11        10.70118
407.55        10.68762
408.00         10.6395
408.45        10.56987
408.90        10.49475
409.34         10.4267
409.79        10.36058
410.24        10.31085
410.68         10.2981
411.13        10.32613
411.58        10.39561
412.03        10.47939
412.47        10.52909
412.92        10.52294
413.37        10.46737
413.81        10.40334
414.26        10.40979
414.71        10.49067
415.15        10.62562
415.60        10.73298
416.05        10.70113
416.49        10.50957
416.94        10.21079
417.39        9.889033
417.83        9.689061
418.28        9.659112
418.73        9.742874
419.17        9.890056
419.62        10.01216
420.07        10.08196
420.51        10.12687
420.96        10.12646
421.41        10.04344
421.85        9.881449
422.30        9.667029
422.74        9.461581
423.19        9.378555
423.64        9.423895
424.08        9.574491
424.53        9.751614
424.98        9.833945
425.42        9.787836
425.87        9.644938
426.31        9.459275
426.76        9.348615
427.21        9.323705
427.65        9.286042
428.10        9.261371
428.54        9.342175
428.99        9.521472
429.44        9.758945
429.88        9.951359
430.33        9.960739
430.77        9.774204
431.22        9.436255
431.66         9.08992
432.11        8.990581
432.56        9.162188
433.00        9.484573
433.45        9.816637
433.89        10.03305
434.34        10.04193
434.78        9.791746
435.23          9.4623
435.67        9.389223
436.12        9.549353
436.57        9.602817
437.01        9.496678
437.46        9.383202
437.90        9.277884
438.35        9.145266
438.79        9.017506
439.24        8.968779
439.68        9.010412
440.13        9.076464
440.57        9.143051
441.02        9.295625
441.46        9.443558
441.91        9.276744
442.35        8.881508
442.80        8.652156
443.24        8.581105
443.69        8.529202
444.13        8.457447
444.58        8.313986
445.02        8.131419
445.47        8.094575
445.91        8.172904
446.36        8.169346
446.80        8.068495
447.24        7.979597
447.69        7.922541
448.13        7.871187
448.58        7.835435
449.02        7.820326
449.47        7.814498
449.91        7.798265
450.36        7.770525
450.80        7.732773
451.25        7.707121
451.69        7.719248
452.13        7.773243
452.58        7.846444
453.02        7.918259
453.47        7.947131
453.91         7.92938
454.36        7.884353
454.80        7.817616
455.24        7.742831
455.69        7.675673
456.13        7.605686
456.58        7.574745
457.02        7.631345
457.46        7.779963
457.91        8.000289
458.35        8.220412
458.79        8.313745
459.24        8.265912
459.68        8.104616
460.13        7.933017
460.57        7.882764
461.01        7.992506
461.46        8.207958
461.90        8.448248
462.34        8.571256
462.79        8.543478
463.23        8.403811
463.68        8.233216
464.12        8.163897
464.56        8.235748
465.01        8.403471
465.45        8.577518
465.89        8.656596
466.34        8.628663
466.78        8.487062
467.22        8.318378
467.67        8.344127
468.11        8.546595
468.55        8.657945
468.99        8.652815
469.44        8.668839
469.88        8.733212
470.32        8.874523
470.77        9.036301
471.21        9.063751
471.65         8.93771
472.10         8.76622
472.54        8.609931
472.98        8.545981
473.42        8.599405
473.87        8.748564
474.31        8.930698
474.75        9.037271
475.20        9.045567
475.64        8.982533
476.08        8.903688
476.52        8.895273
476.97        8.976413
477.41        9.121511
477.85        9.274608
478.29         9.36517
478.74        9.375401
479.18        9.280697
479.62        9.141609
480.06        9.204444
480.50        9.295009
480.95        9.418417
481.39        9.462715
481.83        9.450838
482.27        9.375239
482.72        9.183546
483.16        8.965261
483.60        8.973722
484.04        9.218536
484.48        9.457035
484.93         9.76792
485.37        10.07746
485.81        10.26868
486.25        10.63615
486.69        13.72192
487.14        10.84861
487.58        7.258576
488.02        8.892316
488.46        10.21834
488.90        10.19335
489.34        10.05918
489.79        9.997843
490.23        10.68358
490.67        11.07893
491.11        10.99712
491.55        10.84059
491.99        10.61217
492.43        10.40301
492.88        10.27942
493.32        10.22782
493.76         10.2083
494.20        10.36501
494.64        10.66743
495.08        11.06501
495.52        11.47826
495.96        11.80175
496.41        11.97159
496.85        12.00005
497.29        11.93381
497.73        11.73936
498.17         11.5847
498.61        11.73744
499.05        12.17877
499.49        12.30092
499.93        12.38402
500.37        12.46196
500.82        12.51361
501.26        12.68424
501.70         12.9117
502.14        13.07738
502.58        13.14886
503.02        13.20496
503.46        13.24301
503.90        13.20321
504.34        13.11569
504.78        13.06053
505.22        13.05609
505.66        13.09096
506.10         13.1425
506.54        13.16957
506.98        13.16544
507.42        13.14536
507.86        13.15164
508.30        13.24847
508.74        13.43935
509.18        13.69154
509.62        13.94306
510.06        14.09373
510.50        14.12035
510.94        14.06382
511.38        13.96217
511.82        13.87605
512.26        13.83171
512.70        13.80686
513.14        13.82739
513.58        13.93509
514.02        14.11396
514.46        14.34177
514.90        14.54064
515.34        14.54762
515.78        14.30844
516.22        14.04419
516.66        13.85268
517.10        13.40475
517.54        12.73692
517.98        13.59004
518.42        13.38704
518.86        13.78981
519.30        14.00377
519.74         14.2735
520.18        14.52832
520.62        14.62178
521.06        14.56258
521.50        14.36673
521.93        14.11462
522.37        13.95522
522.81        13.92744
523.25        13.99086
523.69        14.10223
524.13        14.19099
524.57        14.23118
525.01        14.24571
525.45        14.23401
525.89        14.19287
526.32        14.12477
526.76        14.02726
527.20        13.91587
527.64        13.82555
528.08        13.76685
528.52        13.72054
528.96        13.67202
529.40        13.63185
529.83        13.60586
530.27        13.45905
530.71        13.45954
531.15        13.39401
531.59        13.34582
532.03         13.3006
532.46        13.28973
532.90        13.36839
533.34        13.52697
533.78        13.73993
534.22        13.92919
534.66        13.98088
535.09        13.87328
535.53         13.6502
535.97        13.38455
536.41        13.19589
536.85        13.12252
537.28        13.13713
537.72        13.20233
538.16        13.25298
538.60        13.27011
539.04        13.26556
539.47        13.26727
539.91        13.34784
540.35        13.49829
540.79        13.64078
541.22        13.74928
541.66        13.84062
542.10        13.90615
542.54        13.92183
542.97        13.91333
543.41        13.94598
543.85        14.03023
544.29         14.1588
544.72        14.29379
545.16        14.38024
545.60        14.40885
546.04        14.39441
546.47        14.39947
546.91        14.53019
547.35        14.79258
547.79        15.14968
548.22        15.50186
548.66        15.67813
549.10         15.6565
549.53        15.51495
549.97        15.35652
550.41        15.29659
550.84        15.37451
551.28        15.56552
551.72         15.8255
552.15        16.07336
552.59        16.27146
553.03        16.43993
553.46         16.5787
553.90        16.69688
554.34        16.80505
554.77         16.8782
555.21        16.91969
555.65        16.98735
556.08        17.09414
556.52        17.02084
556.96        17.17183
557.39        17.23522
557.83        17.33365
558.27        17.44637
558.70        17.56705
559.14        17.67073
559.57        17.74405
560.01        17.80343
560.45        17.83766
560.88         17.8291
561.32        17.79717
561.75        17.73783
562.19        17.69365
562.63        17.70421
563.06         17.7729
563.50        17.88902
563.93        18.02159
564.37        18.12777
564.80        18.19039
565.24        18.23136
565.68        18.25702
566.11        18.27848
566.55        18.31744
566.98        18.36421
567.42        18.44526
567.85        18.59461
568.29        18.82073
568.72        19.05671
569.16        19.29974
569.60        19.58125
570.03        19.80429
570.47        19.84117
570.90        19.80271
571.34        19.40481
571.77        19.81306
572.21        19.85659
572.64        19.92444
573.08        19.70978
573.51        19.29421
573.95        20.17551
574.38        21.33256
574.82        20.95617
575.25        20.66866
575.69         20.0272
576.12        19.80473
576.56         19.8737
576.99        20.45498
577.42        21.19457
577.86        21.15777
578.29        21.11179
578.73        22.03731
579.16        20.32186
579.60        18.59995
580.03        19.48639
580.47        20.85112
580.90        21.07158
581.33         20.7346
581.77        20.54447
582.20        22.21582
582.64        21.79011
583.07        18.68494
583.51        18.31293
583.94        17.97045
584.37        18.66846
584.81        19.40398
585.24        20.25414
585.68        20.67776
586.11        20.08818
586.54        18.76925
586.98        18.34833
587.41        18.63031
587.85        19.38691
588.28        19.85538
588.71        18.77753
589.15        18.37988
589.58        18.60492
590.01        18.94144
590.45        19.25916
590.88        19.13091
591.31        18.86892
591.75        18.88256
592.18        18.97238
592.61        19.27969
593.05         19.7464
593.48        20.55884
593.91        20.27343
594.35        18.82913
594.78        18.58749
595.21         18.8336
595.65        19.71917
596.08        20.24436
596.51        19.50921
596.94        19.22469
597.38         19.6345
597.81        20.59365
598.24        21.06727
598.68        20.91969
599.11        20.97922
599.54        21.93233
599.97        22.41934
600.41        21.59922
600.84        21.93354
601.27        22.51106
601.70        22.40368
602.14        22.56281
602.57        22.58034
603.00        23.20741
603.43        24.11185
603.87         24.9681
604.30          25.218
604.73        24.97902
605.16        24.91391
605.60        25.67739
606.03        26.42124
606.46        27.10194
606.89        27.24838
607.32         27.0261
607.76        27.44956
608.19        28.46053
608.62        28.32745
609.05        28.13689
609.48        28.65272
609.92        28.94954
610.35        29.22494
610.78        30.64971
611.21        31.40968
611.64        30.36294
612.07        31.00478
612.50        31.48467
612.94         32.0017
613.37        32.08955
613.80        32.40024
614.23        32.96328
614.66        33.24392
615.09        33.71783
615.52        34.03003
615.96        34.23382
616.39        34.60845
616.82        34.59386
617.25        34.48571
617.68        35.41059
618.11          35.871
618.54        36.15751
618.97        36.20037
619.40        36.18185
619.84        36.46011
620.27        37.19714
620.70        37.68836
621.13        37.92059
621.56        37.81058
621.99        37.52809
622.42        38.14394
622.85        39.23825
623.28        39.21215
623.71        38.84024
624.14        38.82717
624.57        38.67311
625.00        38.53666
625.43        38.68299
625.86        38.39265
626.29        38.52455
626.72        38.63531
627.15        38.46135
627.58        38.37643
628.01        38.25173
628.44         38.1046
628.87        37.94299
629.30        37.83164
629.73        37.72573
630.16        37.48205
630.59         37.0913
631.02        36.62893
631.45         36.1456
631.88         35.6928
632.31        35.28828
632.74        34.91718
633.17        34.55661
633.60        34.16986
634.03        33.74741
634.46        33.30437
634.89        32.85147
635.32        32.40421
635.75        31.96976
636.18        31.54406
636.61        31.12299
637.04        30.69765
637.47         30.2617
637.89        29.81818
638.32        29.36836
638.75        28.93406
639.18        28.52809
639.61        28.15556
640.04        27.80684
640.47        27.45921
640.90        27.11018
641.33        26.76646
641.76        26.44745
642.18        26.22436
642.61        26.10739
643.04        26.01525
643.47          25.903
643.90        26.03399
644.33        25.85707
644.76         25.8203
645.18        25.77356
645.61        25.75322
646.04        25.75648
646.47        25.76526
646.90        25.81183
647.33        25.92908
647.75         26.1364
648.18        26.45344
648.61        26.78066
649.04        26.98608
649.47        27.06006
649.89        26.90163
650.32        26.75102
650.75        27.25034
651.18        28.31021
651.61        29.14549
652.03         29.5695
652.46        29.91671
652.89        30.37795
653.32        30.51822
653.74        30.51745
654.17        31.72335
654.60        32.82502
655.03         31.8486
655.46        32.90817
655.88        35.44984
656.31        37.96821
656.74        85.69223
657.16        56.04842
657.59        19.92176
658.02        15.34267
658.45         27.0857
658.87        35.41963
659.30        37.37419
659.73        37.23999
660.15        36.25974
660.58        38.10549
661.01        39.60077
661.44        38.84993
661.86        38.79309
662.29        39.03424
662.72         39.7234
663.14        40.76973
663.57        41.11639
664.00        40.87595
664.42        41.13068
664.85        41.93979
665.27        42.62478
665.70        43.02112
666.13        43.26997
666.55        43.35391
666.98        43.24237
667.41        43.09884
667.83        43.21466
668.26        43.65042
668.69        44.29388
669.11        44.95199
669.54        45.49726
669.96        45.42995
670.39         45.2886
670.82        45.10703
671.24        44.95241
671.67        45.01932
672.09        45.67185
672.52        46.62433
672.94        47.36123
673.37         47.0219
673.80         47.0017
674.22        47.16327
674.65          47.303
675.07        47.43126
675.50        47.56198
675.92        47.70668
676.35        47.91066
676.77         48.1749
677.20        48.43419
677.62         48.6752
678.05        48.88134
678.47        49.03691
678.90        49.15665
679.32        49.26101
679.75        49.29603
680.17        49.46524
680.60        49.60265
681.02        49.73885
681.45        49.80034
681.87        49.78842
682.30         49.7489
682.72        49.73515
683.15        49.79158
683.57        49.98521
684.00         50.3103
684.42        50.90228
684.85        51.23544
685.27        51.32393
685.70        51.30575
686.12        51.24778
686.54        51.27964
686.97         51.4346
687.39        51.63371
687.82        51.78294
688.24          52.092
688.66        52.00911
689.09         51.9825
689.51        51.94359
689.94        52.02885
690.36        52.26293
690.78        52.58976
691.21        52.93523
691.63        53.18445
692.06        53.30785
692.48         53.3433
692.90        53.35391
693.33        53.43189
693.75        53.60509
694.17        53.84716
694.60        54.12619
695.02         54.3678
695.44        54.52038
695.87        54.76492
696.29        55.10096
696.71        55.03153
697.14        54.73886
697.56        55.31267
697.98        56.50595
698.41        56.55795
698.83        56.03722
699.25        55.72111
699.68        55.87445
700.10        55.96436
700.52        56.01744
700.94        56.33271
701.37        56.82053
701.79        57.25085
702.21        57.53868
702.64        57.75381
703.06        57.88335
703.48        57.90112
703.90        57.83085
704.33        57.68069
704.75        57.51846
705.17        57.53204
705.59        57.76704
706.01        58.08215
706.44        58.37867
706.86        58.99838
707.28        59.11032
707.70        59.34808
708.12         59.4855
708.55        59.54887
708.97        59.53772
709.39        59.45856
709.81        59.38601
710.23        59.43579
710.66        59.63335
711.08          59.969
711.50        60.32536
711.92        60.52623
712.34        60.53256
712.76        60.38763
713.19        60.20833
713.61        60.21069
714.03         60.4327
714.45        60.80876
714.87        61.20185
715.29        61.39474
715.71        61.34225
716.13        61.12327
716.56        60.86267
716.98        60.78429
717.40        60.94077
717.82        61.25897
718.24        61.64778
718.66        61.95256
719.08        62.12011
719.50        62.19623
719.92        62.20373
720.34        62.20017
720.76        62.21286
721.19        62.11779
721.61        62.13956
722.03        62.20998
722.45        62.38976
722.87        62.66088
723.29        62.95456
723.71        63.14478
724.13        63.19944
724.55        63.15474
724.97        63.07689
725.39         63.0794
725.81        63.19125
726.23        63.37181
726.65        63.57983
727.07        63.75021
727.49         63.8662
727.91        63.96127
728.33        64.03882
728.75        64.10077
729.17        64.15246
729.59        64.18081
730.01        64.23379
730.43        64.38362
730.85        64.64195
731.27        65.01247
731.69        65.38683
732.10        65.56638
732.52        65.51083
732.94        65.31444
733.36        65.14443
733.78        65.14127
734.20        65.34484
734.62        66.00179
735.04        66.87669
735.46        66.87939
735.88        66.23856
736.30        66.56034
736.72        67.78584
737.13        68.29382
737.55        67.85776
737.97        67.77257
738.39        68.07407
738.81        67.48696
739.23        66.40244
739.65         67.0651
740.06         69.0435
740.48        69.25718
740.90        67.80415
741.32        67.23719
741.74         67.7773
742.16        68.12247
742.57        68.29716
742.99        69.02463
743.41        70.09119
743.83        70.73278
744.25        70.82376
744.67        70.56614
745.08        70.19588
745.50        70.09823
745.92        70.38266
746.34         70.9043
746.75        71.50735
747.17        71.87908
747.59        71.94649
748.01        71.95634
748.42         72.0123
748.84        71.87966
749.26        71.76618
749.68        72.43221
750.09        73.67704
750.51        74.15669
750.93         74.3019
751.35        74.03675
751.76        73.69526
752.18        73.59416
752.60        73.71906
753.01        73.66487
753.43        73.49412
753.85        73.57802
754.27        74.00171
754.68        74.91991
755.10        75.44444
755.52         76.0111
755.93        76.31586
756.35        76.29954
756.77        76.12495
757.18        76.16934
757.60        76.58051
758.02        77.02641
758.43        77.47575
758.85        77.56852
759.26        75.59283
759.68        74.15095
760.10        76.55988
760.51        77.44435
760.93        76.82298
761.34        75.73483
761.76         75.9385
762.18        75.37967
762.59        74.85401
763.01        75.28636
763.42        76.57627
763.84        77.34225
764.26        77.42091
764.67         77.3126
765.09        77.11041
765.50        77.11475
765.92        77.17092
766.33        76.11847
766.75        74.42937
767.16        73.99086
767.58        74.98034
768.00        76.40914
768.41        77.93655
768.83        79.44231
769.24         80.2653
769.66        79.42136
770.07        77.53883
770.49         75.8652
770.90        74.89536
771.32        75.95882
771.73        78.31653
772.15        78.02141
772.56        75.48358
772.97        74.92625
773.39        76.36005
773.80        77.13632
774.22        76.94252
774.63        76.93211
775.05        77.09827
775.46        77.25832
775.88        77.35616
776.29         77.2422
776.70        76.98412
777.12        76.91404
777.53        77.07932
777.95        77.31246
778.36        77.50887
778.77        77.46545
779.19        77.18819
779.60        76.83617
780.02        76.52489
780.43        76.40182
780.84        76.67178
781.26        77.00794
781.67        77.41959
782.09        78.94057
782.50        80.79649
782.91        79.73898
783.33        76.64067
783.74        75.64546
784.15        76.96702
784.57        78.11939
784.98        78.59045
785.39         78.5284
785.81        77.95821
786.22        77.36518
786.63        77.07872
787.04        77.09975
787.46        77.49376
787.87        78.44374
788.28        79.61702
788.70         80.2026
789.11        80.03301
789.52        79.49625
789.93        78.85056
790.35         78.1715
790.76        77.70801
791.17         78.0062
791.58        78.84746
792.00        79.23957
792.41        79.03856
792.82         78.7799
793.23        78.65668
793.65        78.52444
794.06        78.66579
794.47        79.78702
794.88        80.98535
795.29        81.80564
795.71        78.63926
796.12        76.68063
796.53          75.478
796.94        75.10023
797.35        75.63828
797.76        76.95384
798.18        78.48407
798.59        79.50973
799.00        79.67053
799.41        78.93407
799.82        77.73083
800.23        76.96944
800.64        76.86363
801.06        77.05664
801.47        77.46611
801.88        77.86205
802.29        78.13137
802.70        78.38172
803.11        78.58165
803.52        78.64191
803.93        78.57627
804.34        78.37113
804.75        78.13133
805.17        78.17724
805.58        78.61487
805.99        78.94252
806.40        79.05463
806.81        79.81145
807.22        80.65672
807.63        79.32385
808.04        76.54598
808.45         75.4493
808.86        76.30428
809.27        77.54919
809.68        78.64738
810.09        79.29607
810.50        79.22367
810.91        78.54419
811.32        77.62737
811.73        77.04382
812.14        76.95428
812.55        77.23873
812.96        77.75191
813.37         78.0084
813.78         77.9896
814.19         78.3231
814.60        78.79385
815.01         78.6315
815.42        77.81015
815.83        76.64745
816.24        75.59368
816.65        75.31811
817.05        76.03947
817.46        77.52995
817.87        79.21529
818.28        80.05416
818.69        79.75721
819.10        78.57584
819.51        77.11996
819.92        76.44422
820.33        76.82954
820.74        77.93331
821.14        79.21027
821.55        79.72047
821.96        79.23833
822.37        78.03371
822.78        76.61434
823.19        75.78841
823.60        75.76077
824.00        76.30233
824.41        77.07652
824.82        77.66182
825.23        77.85396
825.64        77.80091
826.04        77.63668
826.45         77.5515
826.86        77.59534
827.27        77.65779
827.68        77.69212
828.08        77.67777
828.49        77.54034
828.90        77.37489
829.31        77.15876
829.72         76.8355
830.12        76.45835
830.53        76.04517
830.94        75.77593
831.35        75.88039
831.75        76.42756
832.16        77.28511
832.57        78.28466
832.97        79.04703
833.38        79.35638
833.79         79.2952
834.20        79.03181
834.60        78.83886
835.01        78.82338
835.42        78.90366
835.82        78.96223
836.23          78.724
836.64        78.19341
837.04        77.51038
837.45        76.89395
837.86        76.68203
838.26        76.94995
838.67        77.53128
839.08        78.26207
839.48        78.83447
839.89        79.08542
840.29        79.11966
840.70        78.91676
841.11        78.43452
841.51        77.73142
841.92        76.80884
842.33        75.93759
842.73        75.57854
843.14        75.79258
843.54        76.50079
843.95        77.34048
844.35          77.748
844.76        77.55718
845.17         76.9528
845.57        76.21159
845.98        75.77435
846.38         75.7572
846.79        75.98643
847.19        76.35286
847.60        76.58008
848.00        76.61198
848.41         76.5288
848.81        76.39426
849.22         76.2111
849.62        76.05541
850.03        75.91454
850.43        75.88927
850.84        76.08489
851.24        76.55796
851.65        77.09377
852.05        77.74216
852.46        78.39901
852.86         79.0027
853.27        79.59937
853.67        79.76235
854.07        78.96696
854.48        77.28915
854.88        74.93787
855.29         72.7132
855.69        71.76522
856.10        72.30988
856.50        74.21778
856.90        76.78766
857.31        78.37025
857.71         78.4345
858.12        77.36961
858.52        75.90222
858.92        75.00462
859.33        74.90258
859.73        75.33496
860.13        76.12267
860.54         76.8947
860.94        77.53668
861.34        78.11208
861.75        78.61133
862.15        79.10574
862.55        79.56091
862.96         79.9141
863.36        80.10273
863.76          80.006
864.17        79.64552
864.57        79.16519
864.97        78.76154
865.38        78.71486
865.78        79.11852
866.18        79.78223
866.58         80.6054
866.99        81.39497
867.39        82.10492
867.79        82.82607
868.19        83.24947
868.60        82.81799
869.00        81.49804
869.40        79.46434
869.80        77.65346
870.21        77.53199
870.61        79.47401
871.01        83.04105
871.41        87.06831
871.81        89.53386
872.22        89.84604
872.62        88.56516
873.02        86.67739
873.42        85.87406
873.82        86.43242
874.22        87.59424
874.63        88.87875
875.03        89.34531
875.43        88.57375
875.83        87.73849
876.23        85.95213
876.63        85.25067
877.03        85.66307
877.44        87.39388
877.84        102.8247
878.24        94.51426
878.64        94.48223
879.04        93.68892
879.44        89.86747
879.84        87.88301
880.24        91.21477
880.64         93.1656
881.04        94.35159
881.44        95.00729
881.84        94.47964
882.24        93.04694
882.65        91.66751
883.05         91.3273
883.45        92.20335
883.85        94.20515
884.25        96.52776
884.65        97.56138
885.05        96.87451
885.45        95.06686
885.85          93.117
886.25        92.35927
886.65         93.0477
887.05        94.71075
887.45        96.77493
887.85        98.19904
888.25        98.58887
888.65        98.32867
889.04           97.61
889.44        96.77495
889.84        95.99744
890.24        95.12994
890.64        94.47106
891.04        94.51492
891.44        95.28471
891.84        96.68022
892.24        98.12993
892.64        98.55611
893.04        97.76554
893.44        96.20818
893.83        94.53098
894.23        93.67709
894.63        93.83952
895.03        94.65671
895.43        95.98589
895.83        97.53963
896.23        99.05271
896.63        100.5926
897.02        101.6498
897.42        101.3942
897.82        99.81084
898.22         97.2511
898.62        94.61201
899.01        93.23119
899.41        93.41106
899.81         94.6737
900.21        96.51183
900.61        98.06896
901.00         98.9838
901.40        99.50401
901.80        99.58117
902.20        99.13512
902.59        98.25414
902.99        96.94757
903.39        95.55734
903.79        94.72725
904.18        94.65567
904.58        95.22375
904.98        96.21598
905.38        97.25046
905.77        98.11187
906.17        98.83764
906.57        99.31004
906.96        99.41435
907.36         99.1013
907.76        98.42284
908.15        97.48328
908.55        96.38094
908.95        95.27544
909.34        94.17883
909.74        93.32561
910.14        92.85496
910.53         92.8177
910.93        93.23335
911.33        93.97573
911.72        94.79573
912.12        95.47498
912.52        95.95191
912.91        96.32451
913.31        96.78806
913.70        97.42958
914.10        98.20486
914.49        98.80505
914.89        98.42316
915.29        96.95699
915.68        94.77332
916.08          92.867
916.47        92.08949
916.87        92.50861
917.26        93.83523
917.66        95.36524
918.05        95.97148
918.45        95.35647
918.84        93.93483
919.24         92.3869
919.64        91.68776
920.03        92.10739
920.42        93.30497
920.82        94.87743
921.21        96.28128
921.61        97.09415
922.00        97.50456
922.40        97.45892
922.79        96.88146
923.19        95.89108
923.58        94.45699
923.98        92.79317
924.37        91.68046
924.77        91.59032
925.16        90.63892
925.55         91.9377
925.95         92.9477
926.34        94.46474
926.74        96.17552
927.13        97.69546
927.52        98.11645
927.92        97.38193
928.31        95.79957
928.70        93.81718
929.10        92.23182
929.49        91.26172
929.89        90.71603
930.28        90.77422
930.67        91.71227
931.07        93.34213
931.46        95.64028
931.85        97.72189
932.24         98.2696
932.64        97.06253
933.03        94.30177
933.42        90.84003
933.82        88.60453
934.21         88.1655
934.60        89.02377
934.99         90.2515
935.39        90.78493
935.78        90.44443
936.17        89.23934
936.56         87.1491
936.96        87.41906
937.35        86.62302
937.74         87.4448
938.13        88.37988
938.53        89.44188
938.92        90.66042
939.31        92.21492
939.70        93.75838
940.09         94.2149
940.49        93.29388
940.88         91.4455
941.27        89.51788
941.66        88.52414
942.05        88.59418
942.44        89.41028
942.84        90.63404
943.23        91.74979
943.62         92.4343
944.01        92.82053
944.40        92.90892
944.79        92.70058
945.18        92.20985
945.57          91.351
945.97        90.19579
946.36        89.11028
946.75        88.39855
947.14         88.0914
947.53        88.10141
947.92        88.25758
948.31        88.51486
948.70        88.94479
949.09        89.50858
949.48        90.06503
949.87        90.49155
950.26         90.6901
950.65        90.77213
951.04        90.97832
951.43        91.33343
951.82        91.77296
952.21        91.94707
952.60        91.31744
952.99        89.84751
953.38        87.77223
953.77        85.70273
954.16        84.49987
954.55        84.33984
954.94        85.04821
955.33        86.01424
955.72         86.1902
956.11         85.3221
956.50        83.67568
956.89        82.04301
957.28        81.87537
957.66        83.61491
958.05        86.53631
958.44        89.63292
958.83        91.43051
959.22        91.55367
959.61         90.4004
960.00        88.60529
960.39        87.20521
960.78         86.5537
961.16        86.41063
961.55        86.37495
961.94        85.79939
962.33        84.58217
962.72        83.07901
963.11        81.78855
963.49        81.30378
963.88        81.70983
964.27        82.86137
964.66         84.3223
965.04        85.17908
965.43        84.97658
965.82        84.02806
966.21        82.95151
966.60        82.57555
966.98        83.05312
967.37        84.08522
967.76        85.19987
968.15         85.5015
968.53        84.75253
968.92        83.28938
969.31        81.68816
969.69        80.65649
970.08        80.36683
970.47        80.65443
970.86        81.17998
971.24        81.35541
971.63        80.99408
972.02        80.24294
972.40        79.59877
972.79        79.90851
973.17        81.48058
973.56         83.9175
973.95        86.44191
974.33        87.57968
974.72        86.85844
975.11        84.82402
975.49        82.46383
975.88        81.11217
976.26        80.98003
976.65        81.74294
977.04        82.81194
977.42        82.77117
977.81        81.15614
978.19        78.60868
978.58        76.50782
978.96        76.12949
979.35        77.64513
979.74        80.73296
980.12        84.83302
980.51        87.56871
980.89        88.22236
981.28        87.30779
981.66        85.65453
982.05        84.35699
982.43        83.66281
982.82        83.23635
983.20        83.19546
983.59        83.81613
983.97        85.16557
984.35        87.28591
984.74        89.49211
985.12        90.50734
985.51        89.51744
985.89        86.82043
986.28        83.25883
986.66        80.18947
987.04         78.4136
987.43        77.71562
987.81        77.70802
988.20        77.91743
988.58        78.18887
988.96        78.61905
989.35        79.60425
989.73        81.91757
990.12        84.92053
990.50        87.77957
990.88        88.97392
991.27        87.76051
991.65        84.59262
992.03        79.76318
992.42        74.76827
992.80        72.33618
993.18        73.31406
993.56        76.14906
993.95        79.42737
994.33        82.00597
994.71        83.49821
995.10        84.60212
995.48        84.97242
995.86        83.85758
996.24         81.1704
996.63        76.63887
997.01        71.71706
997.39        70.57121
997.77        74.84024
998.15        83.42951
998.54        92.29808
998.92        96.00986
999.30        93.07248
999.68        84.83139
1000.06        73.70882
1000.45        65.72294
1000.83        63.40877
1001.21        64.80636
1001.59        68.14467
1001.97          71.535
1002.35        74.49729
1002.73          78.244
1003.12        81.67836
1003.50        81.37331
1003.88        76.27005
1004.26        68.19829
1004.64        61.06807
1005.02        58.34858
1005.40        60.38562
1005.78        67.35124
1006.16        79.95683
1006.54        91.85531
1006.92        95.50112
1007.30        93.39225
1007.69        89.87756
1008.07        87.79986
1008.45        87.26442
1008.83        87.18795
1009.21          87.128
1009.59        84.90216
1009.97        72.70717
1010.35        50.98004
1010.73        47.86862
1011.11        54.14665
1011.49        59.53358
1011.86        65.16893
1012.24        68.61417
1012.62         70.2608
1013.00        70.94654
1013.38        70.50288
1013.76        71.37653
1014.14        80.62663
1014.52         103.565
1014.90        142.5582
1015.28         186.597
1015.66        206.3879
1016.04        185.1204
1016.41        128.4779
1016.79        68.33151
1017.17        39.27256
1017.55        37.96587
1017.93        47.23345
1018.31        58.19337
1018.69        66.47076
1019.06        72.71308
1019.44        79.30567
1019.82        88.69735
1020.20        103.4663
1020.58        126.7483
1020.95         163.477
1021.33        231.6381
1021.71       -702.5502
1022.09        52.69623
1022.46        95.90032
1022.84        110.5287
1023.22        117.2401
1023.60        121.7255
1023.97        135.5595
1024.35        120.7812
1024.73        130.0311
