SpectraSmart Spectrum 2.9.0.0
--------- Device Information -----------
Spectrum Name :  反射率_0
Saving Time :  2024/04/25 23:40:18
Spectro-Module Model Name : SE2030-DUVN
Spectro-Module Serial Number : OS361AC55029948
Wavelength Start : 200
Wavelength End : 1025
Wavelength Unit : Wavelength(nm)
Spectrum Unit : Reflectance(%)
-----------Spectrum Setting ------------
Integration Time : 20ms
Average : 10
Boxcar : 0
Background removal :  enabled
linearity correction :  enabled
SC :  disabled
Intensity correction :  disabled
DWT denoise :  enabled
savitzky-golay :  disabled
FFT :  disabled
Running average :  disabled
Kalman :  disabled
High pass :  disabled
---------------BEGIN--------------------
Wavelength(nm)             Reflectance(%)
200.29               0
200.75        89.27676
201.21        82.28461
201.67        73.71447
202.13        68.02969
202.58        65.86501
203.04        66.17753
203.50        67.83236
203.96        68.98661
204.42        69.00256
204.88        68.55667
205.34        68.07638
205.80        67.89922
206.26        68.16538
206.72        68.96204
207.18        70.03782
207.64        69.04594
208.10        64.70368
208.55        60.65212
209.01        58.93972
209.47        59.22481
209.93         60.7102
210.39        63.49263
210.85        65.90148
211.31        64.36372
211.77        58.22243
212.23        48.88687
212.69        40.25114
213.14        38.36174
213.60        44.07182
214.06        55.96387
214.52        69.55991
214.98        77.82945
215.44        78.96873
215.90        74.97578
216.36        69.35024
216.81        66.98773
217.27        68.91291
217.73        73.19536
218.19        76.85854
218.65        76.07086
219.11        69.52613
219.57        56.52778
220.02        38.92458
220.48        27.61643
220.94        29.25095
221.40        41.22035
221.86        53.39716
222.32         54.9785
222.77        46.99731
223.23        35.20581
223.69        25.30395
224.15        22.99734
224.61         27.6549
225.06        36.32975
225.52        45.00515
225.98        48.61293
226.44         46.2855
226.90        40.24201
227.36        33.43004
227.81        29.80243
228.27        30.47095
228.73        33.83833
229.19         38.1722
229.65        40.96229
230.10        41.62547
230.56        41.15297
231.02        40.47873
231.48        40.60008
231.93          41.601
232.39         43.0291
232.85        44.37634
233.31        44.96605
233.77        44.62746
234.22        43.60352
234.68        42.25988
235.14        41.24692
235.60        40.84777
236.05        40.88893
236.51         41.1424
236.97        41.21652
237.43        41.01904
237.88        40.77175
238.34        40.53659
238.80        40.58375
239.26        41.04478
239.71         41.7904
240.17        42.83657
240.63        44.69416
241.08        47.39972
241.54         50.6898
242.00        53.80004
242.46        55.81215
242.91        56.68849
243.37         55.9162
243.83        53.76991
244.28        62.09461
244.74        101.7402
245.20         117.007
245.66        112.9299
246.11        111.0004
246.57        111.9912
247.03        115.9245
247.48        119.7821
247.94         88.6979
248.40        77.33544
248.85        77.06567
249.31        78.31049
249.77         79.6672
250.22        81.29202
250.68         83.7743
251.14        86.57284
251.59        86.04194
252.05        80.29198
252.51        71.94785
252.96        64.51347
253.42         60.9881
253.88        60.60978
254.33        62.15751
254.79        65.53728
255.25        69.89523
255.70        74.18368
256.16        78.29556
256.62        80.69427
257.07        79.85526
257.53        76.62803
257.99          71.613
258.44        66.59238
258.90        64.47234
259.35        64.41306
259.81        65.34782
260.27        65.37885
260.72        62.69131
261.18        58.05014
261.63          52.292
262.09        47.12672
262.55        43.87934
263.00        42.44513
263.46        42.19515
263.91        42.07267
264.37        41.20596
264.83        39.45231
265.28        37.07809
265.74        34.81199
266.19        33.51321
266.65        33.38308
267.11        33.91894
267.56        34.46232
268.02        34.25101
268.47        33.16829
268.93        31.49714
269.38        29.61111
269.84         28.3712
270.30        28.01221
270.75         28.2785
271.21        28.74645
271.66        28.79152
272.12        28.24325
272.57        27.31433
273.03        26.31362
273.48        25.61402
273.94        25.33756
274.39        25.31474
274.85        25.35279
275.31        25.17551
275.76        24.71426
276.22        24.09323
276.67        23.45969
277.13        23.10188
277.58        23.01603
278.04        23.12258
278.49        23.20258
278.95        23.00579
279.40        22.47738
279.86        21.77178
280.31        21.03589
280.77         20.5912
281.22        20.45591
281.68        20.53425
282.13        20.68685
282.59        20.74806
283.04        20.66714
283.50        20.53182
283.95          20.342
284.41         20.1111
284.86        19.85283
285.32        19.56599
285.77        19.33355
286.22         19.3421
286.68        19.58377
287.13        19.97836
287.59        20.33693
288.04        20.37062
288.50        20.05522
288.95        19.47783
289.41        18.84117
289.86        18.35162
290.32        18.12021
290.77         18.0706
291.22        18.16748
291.68        18.31811
292.13        18.49834
292.59        18.74006
293.04         19.0675
293.50        19.51387
293.95        20.06088
294.40        20.65172
294.86        21.22216
295.31        21.69455
295.77          22.055
296.22        22.33381
296.68        22.55336
297.13         22.7239
297.58        22.88214
298.04        23.04505
298.49        23.27752
298.95        23.71112
299.40        24.35056
299.85        25.15365
300.31        25.99661
300.76        26.69187
301.21        27.17083
301.67        27.49972
302.12        27.72032
302.58        27.95291
303.03        28.21153
303.48        28.46953
303.94        28.75119
304.39        29.06133
304.84        29.40147
305.30        29.76976
305.75        30.09194
306.20        30.26219
306.66        30.28523
307.11        30.18171
307.57        30.05464
308.02        29.98599
308.47        30.02688
308.93        30.14962
309.38        30.31674
309.83        30.49885
310.29        30.66601
310.74        30.81252
311.19        30.92245
311.65          30.971
312.10        30.95101
312.55        30.87114
313.00        30.71954
313.46        30.49035
313.91        30.19107
314.36        29.85111
314.82        29.55322
315.27        29.40445
315.72        29.42833
316.18        29.58896
316.63        29.80309
317.08        29.90873
317.53        29.85774
317.99        29.68287
318.44        29.46586
318.89          29.342
319.35        29.33594
319.80        29.41009
320.25         29.4699
320.70        29.36531
321.16        29.06894
321.61        28.63756
322.06        28.17937
322.51        27.85468
322.97        27.69076
323.42        27.64617
323.87        27.63355
324.32        27.50795
324.78        27.23261
325.23          26.869
325.68        26.47952
326.13        26.16603
326.59        25.95856
327.04        25.83992
327.49        25.79415
327.94        25.80067
328.39        25.84192
328.85         25.9111
329.30        26.00592
329.75        26.08024
330.20        26.11837
330.66        26.10726
331.11        26.06724
331.56        25.99147
332.01        25.88046
332.46        25.72233
332.92        25.53882
333.37        25.40138
333.82        25.31993
334.27        25.30102
334.72        25.27822
335.17        25.13214
335.63        24.84404
336.08        24.45821
336.53        24.10134
336.98           23.98
337.43         24.1327
337.88        24.49632
338.34        24.89588
338.79         25.0912
339.24        24.99214
339.69        24.66447
340.14        24.26691
340.59        24.07906
341.05          24.165
341.50         24.4368
341.95        24.74283
342.40        24.86234
342.85        24.74874
343.30        24.48895
343.75        24.17316
344.20        23.95612
344.66        23.88694
345.11        23.87592
345.56        23.91001
346.01        23.96938
346.46        24.02674
346.91        24.10825
347.36        24.10464
347.81        23.83661
348.26        23.30807
348.72        22.61387
349.17        21.94622
349.62        21.70256
350.07        21.96474
350.52        22.59298
350.97        23.36311
351.42        23.92837
351.87        24.18174
352.32        24.21712
352.77         24.0922
353.22        23.90704
353.67        23.71024
354.13         23.4702
354.58        23.21829
355.03         23.0486
355.48        22.97904
355.93        23.01025
356.38        23.06909
356.83        23.02185
357.28        22.83884
357.73         22.5524
358.18        22.24987
358.63        22.07119
359.08         22.0458
359.53         22.1323
359.98         22.2284
360.43         22.1769
360.88        21.94748
361.33        21.58907
361.78         21.2205
362.23         21.0334
362.68        21.06316
363.13        21.23608
363.58        21.42314
364.03        21.42493
364.48        21.19753
364.93        20.81833
365.38        20.37778
365.83        20.01809
366.28        19.79164
366.73        19.65374
367.18        19.59731
367.63         19.6123
368.08        19.67428
368.53        19.78122
368.98        19.88038
369.43        19.88284
369.88        19.77536
370.33        19.58833
370.78        19.35932
371.23        19.16199
371.68        19.02439
372.13        18.91549
372.58        18.86878
373.03        18.93571
373.48         19.1051
373.93        19.36101
374.38        19.57777
374.83        19.55967
375.28         19.2803
375.72        18.79152
376.17        18.27707
376.62        17.99979
377.07        18.02823
377.52        18.27702
377.97        18.61502
378.42        18.82681
378.87        18.84614
379.32        18.74294
379.77        18.57614
380.22         18.4285
380.67         18.3269
381.11        18.23881
381.56        18.15262
382.01        18.06605
382.46        17.97547
382.91        17.88911
383.36        17.80675
383.81         17.7195
384.26        17.62733
384.71        17.53728
385.15        17.43695
385.60        17.31873
386.05        17.17746
386.50        17.01188
386.95         16.8589
387.40        16.78372
387.85        16.79745
388.29         16.8729
388.74        16.95427
389.19        16.94518
389.64        16.83225
390.09        16.63465
390.54        16.42374
390.98        16.32122
391.43        16.36037
391.88        16.49067
392.33        16.61694
392.78        16.59844
393.23         16.4222
393.67        16.14209
394.12        15.86969
394.57        15.70094
395.02        15.65953
395.47        15.70582
395.91         15.8096
396.36        15.89606
396.81        15.93798
397.26         15.9406
397.71        15.90997
398.15        15.83925
398.60        15.75651
399.05        15.66967
399.50        15.56265
399.95        15.36796
400.39        15.15528
400.84        14.88937
401.29        14.66208
401.74        14.60991
402.18        14.76851
402.63        15.07191
403.08        15.41039
403.53        15.60459
403.97        15.60627
404.42        15.46689
404.87        15.24758
405.32        15.06162
405.76        14.95053
406.21        14.88241
406.66        14.84967
407.11        14.84715
407.55        14.86868
408.00        14.91814
408.45        14.96341
408.90        14.93032
409.34        14.80729
409.79        14.62406
410.24        14.44437
410.68        14.35716
411.13        14.38341
411.58        14.49795
412.03        14.66096
412.47        14.80188
412.92        14.87865
413.37         14.9045
413.81        14.89957
414.26        14.91281
414.71        14.94664
415.15        14.98952
415.60        14.99323
416.05        14.90257
416.49        14.71368
416.94        14.46552
417.39        14.21965
417.83        14.07819
418.28        14.07374
418.73        14.16017
419.17        14.30031
419.62         14.4292
420.07         14.5236
420.51        14.60376
420.96        14.63251
421.41         14.5484
421.85        14.35111
422.30          14.082
422.74         13.8253
423.19        13.73336
423.64        13.81547
424.08        14.04049
424.53        14.30284
424.98        14.43782
425.42         14.4007
425.87        14.23204
426.31        14.01146
426.76        13.90848
427.21         13.9377
427.65        13.95257
428.10        13.97563
428.54        14.12632
428.99        14.39157
429.44         14.7173
429.88        14.96147
430.33        14.94578
430.77        14.65406
431.22        14.14463
431.66        13.62654
432.11        13.47256
432.56        13.71504
433.00        14.17759
433.45        14.64641
433.89        14.92164
434.34        14.87558
434.78         14.4484
435.23        13.92455
435.67        13.82591
436.12        14.12112
436.57        14.29782
437.01        14.27146
437.46        14.25784
437.90        14.26595
438.35        14.23409
438.79        14.17359
439.24        14.14225
439.68        14.15603
440.13        14.13695
440.57        14.10251
441.02        14.27361
441.46         14.5359
441.91        14.38521
442.35        13.91944
442.80        13.69943
443.24        13.70734
443.69        13.73136
444.13        13.70819
444.58        13.53976
445.02        13.27982
445.47         13.2299
445.91        13.34898
446.36        13.33034
446.80        13.15905
447.24        13.01407
447.69        12.93502
448.13        12.89511
448.58        12.90685
449.02        12.97159
449.47        13.05372
449.91        13.09315
450.36        13.07781
450.80        13.01929
451.25         12.9542
451.69        12.93066
452.13        12.96242
452.58        13.02099
453.02        13.08526
453.47        13.11805
453.91        13.11275
454.36        13.08792
454.80         13.0428
455.24        12.97526
455.69        12.90009
456.13         12.8125
456.58        12.75923
457.02        12.78945
457.46        12.91242
457.91         13.1035
458.35         13.3037
458.79        13.41087
459.24        13.41092
459.68        13.32003
460.13        13.20854
460.57        13.15044
461.01        13.18011
461.46        13.26594
461.90        13.36782
462.34        13.41144
462.79        13.37751
463.23        13.28492
463.68          13.189
464.12        13.18042
464.56        13.28085
465.01        13.46494
465.45         13.6346
465.89        13.69536
466.34          13.641
466.78         13.4294
467.22        13.18073
467.67        13.22192
468.11        13.51781
468.55        13.66193
468.99        13.60943
469.44        13.56586
469.88        13.57793
470.32        13.69243
470.77        13.86328
471.21        13.91572
471.65        13.83029
472.10        13.74591
472.54        13.69637
472.98        13.69382
473.42        13.75173
473.87        13.86973
474.31        14.00629
474.75        14.08941
475.20        14.10718
475.64        14.07289
476.08        14.02781
476.52        14.03564
476.97        14.11158
477.41        14.23972
477.85        14.37558
478.29        14.47514
478.74        14.52747
479.18        14.47388
479.62        14.36415
480.06        14.52054
480.50        14.65287
480.95        14.78409
481.39         14.7847
481.83        14.76254
482.27        14.71863
482.72        14.54379
483.16        14.31691
483.60        14.35567
484.04        14.66233
484.48        14.83458
484.93        15.07847
485.37        15.51554
485.81        15.98351
486.25        16.54214
486.69        21.40965
487.14        17.08629
487.58        11.33833
488.02        14.07546
488.46        15.95727
488.90        15.67262
489.34        15.91955
489.79        15.76247
490.23        16.58211
490.67        17.11589
491.11        17.12297
491.55        17.02709
491.99        16.80634
492.43        16.63224
492.88        16.58212
493.32        16.65407
493.76        16.73285
494.20        16.95833
494.64        17.27568
495.08        17.64089
495.52        18.02224
495.96        18.39747
496.41        18.70035
496.85        18.90867
497.29        19.01896
497.73        18.84309
498.17        18.61072
498.61        18.79162
499.05        19.39088
499.49        19.50946
499.93        19.61914
500.37        19.74302
500.82        19.83263
501.26        20.09388
501.70        20.42329
502.14        20.65191
502.58        20.72559
503.02        20.75696
503.46        20.74701
503.90        20.60659
504.34        20.41384
504.78        20.34447
505.22        20.43156
505.66        20.63424
506.10        20.87554
506.54        21.02039
506.98        21.03292
507.42        20.95633
507.86        20.87086
508.30         20.9006
508.74        21.06944
509.18        21.32766
509.62        21.60157
510.06        21.77299
510.50        21.81211
510.94        21.76843
511.38        21.68534
511.82        21.62843
512.26        21.62321
512.70        21.64151
513.14        21.69907
513.58        21.82328
514.02          21.997
514.46        22.20595
514.90        22.38191
515.34        22.38067
515.78        22.15549
516.22        21.90423
516.66         21.7247
517.10        21.33274
517.54        20.76131
517.98        21.58513
518.42        21.44259
518.86        21.80697
519.30        21.95259
519.74        22.11483
520.18         22.2536
520.62        22.27489
521.06        22.19766
521.50        22.02367
521.93        21.81601
522.37        21.69204
522.81        21.67901
523.25        21.74631
523.69        21.84657
524.13        21.90297
524.57        21.89144
525.01        21.83409
525.45        21.74934
525.89        21.66653
526.32        21.59514
526.76        21.52706
527.20        21.45235
527.64         21.3657
528.08        21.27067
528.52        21.15189
528.96        21.02116
529.40        20.95235
529.83        20.96098
530.27         20.8128
530.71        20.88717
531.15        20.80321
531.59        20.67831
532.03        20.51482
532.46        20.37568
532.90        20.36349
533.34        20.48516
533.78        20.70202
534.22         20.9223
534.66         21.0113
535.09        20.93634
535.53        20.74759
535.97        20.51251
536.41        20.34412
536.85        20.27854
537.28        20.28643
537.72        20.33242
538.16         20.3595
538.60        20.35331
539.04        20.32293
539.47        20.29785
539.91        20.37027
540.35        20.52572
540.79        20.65931
541.22        20.75572
541.66        20.87617
542.10        21.01186
542.54        21.11257
542.97        21.19036
543.41         21.3006
543.85        21.44749
544.29        21.62973
544.72        21.80538
545.16        21.91805
545.60        21.96065
546.04        21.94708
546.47        21.96351
546.91        22.15549
547.35        22.53073
547.79        23.04124
548.22        23.54455
548.66        23.79776
549.10        23.77005
549.53         23.5775
549.97        23.36567
550.41        23.29974
550.84        23.43749
551.28        23.74076
551.72        24.14959
552.15        24.54884
552.59        24.88309
553.03         25.1762
553.46        25.41644
553.90        25.60975
554.34        25.76747
554.77        25.85593
555.21        25.88638
555.65        25.96153
556.08        26.10702
556.52        25.98446
556.96        26.20657
557.39        26.28636
557.83        26.41163
558.27        26.55821
558.70        26.72513
559.14        26.89267
559.57        27.04088
560.01        27.18249
560.45         27.2943
560.88        27.34153
561.32        27.34389
561.75        27.29849
562.19        27.25593
562.63         27.2565
563.06        27.30801
563.50        27.40611
563.93        27.53112
564.37        27.66383
564.80        27.78655
565.24        27.91605
565.68        28.04174
566.11        28.14981
566.55        28.25996
566.98        28.36589
567.42        28.49811
567.85         28.6973
568.29        28.98284
568.72        29.25667
569.16        29.53545
569.60        29.91241
570.03        30.24602
570.47        30.28501
570.90        30.18467
571.34        29.67875
571.77        30.23499
572.21        30.33147
572.64        30.44444
573.08        30.11058
573.51        29.16407
573.95         30.5145
574.38        32.55364
574.82        31.72771
575.25        31.54704
575.69        30.41359
576.12        29.89724
576.56        29.82284
576.99        30.59863
577.42        31.86914
577.86        31.83842
578.29        31.38784
578.73        33.17563
579.16        30.61013
579.60        27.88719
580.03        29.11196
580.47        31.01639
580.90        31.50674
581.33        30.93992
581.77        30.34358
582.20        33.18601
582.64        32.65532
583.07        27.74752
583.51        27.14128
583.94        26.68625
584.37        27.84655
584.81        29.10196
585.24        30.41219
585.68        30.92012
586.11        30.26781
586.54        28.21416
586.98        27.45041
587.41        27.54505
587.85        28.72921
588.28         29.4944
588.71         28.1401
589.15         27.2565
589.58        27.65838
590.01         28.0462
590.45         28.6037
590.88        28.54629
591.31        28.20302
591.75        28.13387
592.18        28.18015
592.61         28.6827
593.05        29.22797
593.48        30.46043
593.91        30.81082
594.35        28.38104
594.78        27.95845
595.21        28.03397
595.65        29.34617
596.08        30.38799
596.51        29.36521
596.94        28.85081
597.38        29.41064
597.81        30.79875
598.24         31.6153
598.68        31.17984
599.11        31.31372
599.54         32.6029
599.97        33.82845
600.41        32.10313
600.84        32.61646
601.27        33.54065
601.70        33.41726
602.14        33.65181
602.57        33.60265
603.00         34.3854
603.43        35.86967
603.87        37.09925
604.30        37.33017
604.73        36.61096
605.16         36.5842
605.60        37.35256
606.03        38.43845
606.46        39.46274
606.89        39.69917
607.32        39.01869
607.76         39.6019
608.19        41.08295
608.62        40.89793
609.05        40.53596
609.48         41.2354
609.92        41.61984
610.35        41.93283
610.78        43.35009
611.21        44.50103
611.64        42.62888
612.07        43.39144
612.50        43.89222
612.94        44.46855
613.37        44.46196
613.80        44.96597
614.23        45.70919
614.66        45.95242
615.09        46.29986
615.52        46.56247
615.96        46.81689
616.39        47.17588
616.82        46.86735
617.25        46.70173
617.68        47.66844
618.11        48.26379
618.54         48.6687
618.97        48.56902
619.40        48.23601
619.84        48.41036
620.27        49.29796
620.70        49.89608
621.13        50.13149
621.56        49.75082
621.99        49.04951
622.42        49.68963
622.85        51.26741
623.28        51.22315
623.71        50.79436
624.14        50.52853
624.57        50.23851
625.00        49.99929
625.43        50.16796
625.86        49.81562
626.29        49.96409
626.72        50.27277
627.15        49.90859
627.58        49.73265
628.01        49.45713
628.44        49.37981
628.87        49.13181
629.30        49.11147
629.73        49.11264
630.16         48.8828
630.59        48.39296
631.02        47.77327
631.45        47.12563
631.88        46.56079
632.31        46.11646
632.74        45.75597
633.17        45.43522
633.60        45.08239
634.03        44.67339
634.46        44.23636
634.89        43.77638
635.32        43.29874
635.75        42.81245
636.18        42.31269
636.61         41.8186
637.04        41.36105
637.47        40.94086
637.89        40.55344
638.32        40.16631
638.75          39.752
639.18        39.31092
639.61        38.86502
640.04        38.43372
640.47        38.03943
640.90        37.69299
641.33        37.38758
641.76        37.12099
642.18        36.94502
642.61        36.85934
643.04        36.76347
643.47        36.62278
643.90        36.85473
644.33        36.69255
644.76        36.76204
645.18         36.8215
645.61        36.86704
646.04        36.88882
646.47        36.88024
646.90         36.9313
647.33        37.15888
647.75        37.59538
648.18        38.23505
648.61        38.88796
649.04        39.26945
649.47        39.34116
649.89        39.05751
650.32        38.76658
650.75        39.25007
651.18        40.46648
651.61        41.60906
652.03        42.38026
652.46        42.98523
652.89        43.63627
653.32         43.7263
653.74        43.55978
654.17        45.40083
654.60         46.5267
655.03        45.36168
655.46        46.77338
655.88        49.66372
656.31        53.66411
656.74        123.4956
657.16        80.02084
657.59        28.11268
658.02        21.47944
658.45        37.68005
658.87        48.70154
659.30        51.47495
659.73        51.36652
660.15        49.43154
660.58        52.05478
661.01        53.77053
661.44        52.51713
661.86        52.35448
662.29        52.70201
662.72        53.56668
663.14        54.76315
663.57        54.93571
664.00        54.28142
664.42        54.30912
664.85        55.09961
665.27          55.698
665.70        55.93274
666.13        56.07746
666.55        56.10939
666.98        55.95156
667.41        55.73683
667.83        55.72122
668.26        55.96406
668.69        56.36316
669.11        56.75127
669.54        57.13877
669.96         56.9449
670.39        56.67823
670.82        56.35633
671.24        56.30964
671.67        56.62012
672.09        57.10888
672.52        57.55296
672.94        58.11646
673.37        57.76741
673.80        57.67536
674.22        57.64352
674.65         57.6846
675.07        57.80732
675.50        57.91433
675.92        58.01219
676.35         58.1813
676.77        58.41816
677.20        58.63756
677.62        58.82382
678.05        58.95766
678.47         59.0235
678.90        59.04035
679.32        59.04541
679.75        58.98415
680.17        59.10255
680.60        59.21816
681.02        59.34271
681.45        59.32062
681.87        59.16165
682.30        58.99134
682.72        58.89765
683.15         58.9244
683.57        59.13739
684.00        59.54008
684.42        60.18097
684.85        60.49983
685.27        60.48356
685.70        60.29298
686.12        60.05358
686.54        59.96807
686.97        60.08158
687.39        60.34582
687.82        60.65039
688.24        60.85788
688.66        60.90856
689.09        60.85653
689.51        60.78886
689.94        60.82366
690.36        60.99887
690.78        61.25263
691.21        61.52171
691.63        61.73829
692.06        61.86441
692.48        61.88467
692.90        61.84918
693.33        61.87007
693.75        61.97051
694.17        62.10125
694.60        62.24515
695.02        62.38441
695.44        62.47589
695.87        62.67533
696.29        62.95247
696.71        62.88236
697.14        62.34215
697.56        62.89394
697.98        64.16205
698.41         64.1198
698.83        63.41317
699.25        62.94978
699.68        63.03155
700.10        63.04623
700.52        63.02476
700.94        63.30514
701.37        63.78762
701.79        64.21411
702.21        64.48807
702.64        64.67982
703.06        64.77428
703.48        64.71825
703.90         64.5396
704.33        64.25404
704.75        63.95033
705.17        63.85624
705.59        64.02735
706.01        64.30135
706.44        64.56914
706.86        65.19971
707.28        65.26879
707.70        65.49993
708.12        65.62857
708.55        65.60303
708.97        65.44399
709.39        65.29265
709.81        65.21083
710.23        65.17374
710.66        65.20533
711.08        65.39295
711.50        65.64479
711.92        65.75201
712.34        65.67321
712.76         65.5125
713.19        65.41267
713.61        65.28719
714.03        65.71102
714.45        66.17271
714.87        66.63615
715.29        66.77561
715.71        66.53713
716.13        66.02267
716.56        65.44712
716.98        65.19653
717.40        65.35263
717.82        65.82001
718.24        66.42342
718.66        66.78332
719.08        66.78698
719.50        66.84481
719.92        66.51617
720.34        66.39076
720.76        66.37064
721.19         66.3005
721.61        66.39218
722.03        66.54142
722.45        66.79855
722.87        67.14755
723.29        67.50603
723.71        67.72203
724.13        67.75589
724.55        67.64376
724.97        67.46629
725.39        67.36602
725.81        67.38548
726.23        67.48569
726.65        67.62004
727.07        67.71115
727.49        67.74124
727.91        67.74149
728.33        67.73839
728.75        67.76991
729.17        67.84837
729.59        67.95188
730.01        68.07278
730.43        68.21494
730.85         68.3819
731.27        68.54028
731.69        68.66553
732.10        68.84557
732.52        68.99363
732.94        68.82068
733.36        68.49374
733.78        68.44013
734.20        68.69551
734.62        69.37644
735.04        70.22025
735.46        70.05574
735.88        69.17727
736.30        69.46046
736.72        70.81609
737.13        71.30978
737.55        70.69132
737.97        70.46063
738.39        70.68178
738.81        70.01422
739.23        68.86684
739.65        69.54868
740.06        71.61443
740.48        71.88825
740.90        70.46382
741.32        69.97724
741.74        70.61981
742.16        70.97756
742.57        71.06193
742.99        71.63539
743.41        72.54277
743.83        73.10799
744.25        73.22736
744.67        73.08031
745.08        72.82806
745.50         72.7294
745.92         72.8718
746.34        73.15538
746.75        73.50565
747.17        73.75789
747.59        73.87727
748.01        74.00564
748.42        74.18725
748.84        74.25333
749.26        74.32498
749.68        74.83663
750.09          75.648
750.51        76.11394
750.93        76.16024
751.35        76.00644
751.76        75.77114
752.18        75.72169
752.60        75.82204
753.01        75.75175
753.43        75.56154
753.85        75.48088
754.27        76.04443
754.68        76.65585
755.10        77.32121
755.52        77.77696
755.93        78.20847
756.35        78.34215
756.77        78.36384
757.18        78.35623
757.60        78.36063
758.02        78.72262
758.43        79.08831
758.85        78.61436
759.26        76.51656
759.68        76.57806
760.10        78.63478
760.51        79.44624
760.93        78.75553
761.34        77.94593
761.76        77.57132
762.18        76.95565
762.59        76.45719
763.01        76.72016
763.42        77.69872
763.84        78.37386
764.26        78.60884
764.67        78.82149
765.09         78.9707
765.50        78.84743
765.92        78.42509
766.33        77.48451
766.75        76.36433
767.16        75.75522
767.58        75.92043
768.00        77.14773
768.41         79.1677
768.83        80.75084
769.24        81.23528
769.66         80.6664
770.07        79.46492
770.49        77.71755
770.90        76.07887
771.32        77.04741
771.73        79.88641
772.15        79.69798
772.56        76.87051
772.97        76.31467
773.39        77.97767
773.80        78.53515
774.22        77.77423
774.63        77.61442
775.05        78.02206
775.46        78.19403
775.88        78.04622
776.29        77.78455
776.70         77.5166
777.12        77.46487
777.53        77.68331
777.95        78.04079
778.36        78.36544
778.77        78.36626
779.19        78.03066
779.60        77.46046
780.02        76.89556
780.43        76.81602
780.84        77.36696
781.26        77.89223
781.67        78.32937
782.09        79.66962
782.50        81.26249
782.91        80.30591
783.33        77.58084
783.74        76.69915
784.15        77.85516
784.57        78.78794
784.98         79.0913
785.39        79.15168
785.81        78.90772
786.22        78.33033
786.63        77.76002
787.04        77.64332
787.46        78.05289
787.87        78.90056
788.28        79.87428
788.70        80.35657
789.11        80.20951
789.52        79.71163
789.93        79.08836
790.35        78.54259
790.76        78.22953
791.17        78.28392
791.58        78.63925
792.00        78.97912
792.41        79.16022
792.82        79.30011
793.23        79.45526
793.65        79.17028
794.06        78.78212
794.47        79.81725
794.88        81.48116
795.29        81.43894
795.71         78.6748
796.12        76.59848
796.53        75.49539
796.94        75.15837
797.35        75.68231
797.76        77.03437
798.18        78.59879
798.59        79.57385
799.00        79.59258
799.41        78.66844
799.82        77.30511
800.23        76.50738
800.64         76.5089
801.06        76.92488
801.47        77.60199
801.88        78.18203
802.29        78.50871
802.70         78.7222
803.11        78.83025
803.52         78.8131
803.93        78.70258
804.34        78.45849
804.75        78.18093
805.17        78.14091
805.58        78.43005
805.99        78.70412
806.40        78.83724
806.81        79.31298
807.22        79.73535
807.63        78.59599
808.04        76.47568
808.45        75.62898
808.86        76.26398
809.27        77.27488
809.68         78.2325
810.09        78.81174
810.50        78.79123
810.91        78.29437
811.32        77.60124
811.73        77.16402
812.14        77.11312
812.55        77.28003
812.96        77.61353
813.37        77.98193
813.78        78.31894
814.19        78.78238
814.60        79.12836
815.01         78.9046
815.42        78.08129
815.83        76.76965
816.24        75.46867
816.65        75.04298
817.05        75.74646
817.46        77.30932
817.87        79.08411
818.28        79.90462
818.69        79.44997
819.10        78.00741
819.51        76.29763
819.92        75.54739
820.33         76.0752
820.74         77.5033
821.14        79.13611
821.55        79.74699
821.96        79.07293
822.37        77.54871
822.78        75.82288
823.19        74.84176
823.60        74.86089
824.00         75.6401
824.41         76.7277
824.82        77.45193
825.23        77.53506
825.64        77.21031
826.04        76.73473
826.45        76.47955
826.86        76.53912
827.27        76.73829
827.68        76.95755
828.08        77.05704
828.49        76.92107
828.90        76.68847
829.31        76.36248
829.72        75.93223
830.12        75.47735
830.53         74.9956
830.94        74.68845
831.35        74.82041
831.75        75.46177
832.16        76.48253
832.57        77.65868
832.97        78.50079
833.38        78.75983
833.79        78.53744
834.20        78.08855
834.60         77.8222
835.01         77.8697
835.42        78.11145
835.82        78.32769
836.23        78.07053
836.64        77.30782
837.04        76.24422
837.45        75.22624
837.86        74.78226
838.26        75.04332
838.67        75.80472
839.08        76.80634
839.48        77.56837
839.89        77.86924
840.29        77.84737
840.70        77.58544
841.11        77.20266
841.51        76.77984
841.92        76.25929
842.33        75.75733
842.73        75.48995
843.14        75.47124
843.54        75.70695
843.95        76.02439
844.35        76.17776
844.76        76.07893
845.17        75.80218
845.57        75.46423
845.98        75.25858
846.38        75.23776
846.79        75.32228
847.19        75.45245
847.60        75.44434
848.00         75.2936
848.41        75.03245
848.81        74.79304
849.22        74.68994
849.62        74.80063
850.03        75.10065
850.43         75.5148
850.84        75.81824
851.24        75.97941
851.65        75.87022
852.05        75.79417
852.46        76.08056
852.86        76.78365
853.27        77.82085
853.67         78.5478
854.07         78.1034
854.48        76.47761
854.88        73.98504
855.29        71.56547
855.69        70.57649
856.10         71.2943
856.50        73.53062
856.90        76.47124
857.31        78.22887
857.71        78.18213
858.12        76.80188
858.52        74.98177
858.92        73.90658
859.33         73.8339
859.73          74.436
860.13        75.41473
860.54        76.15936
860.94        76.48806
861.34         76.5836
861.75        76.56323
862.15        76.68293
862.55        76.97515
862.96        77.30405
863.36        77.64639
863.76        77.94921
864.17        78.17275
864.57        78.39786
864.97        78.58027
865.38        78.63129
865.78        78.59689
866.18        78.42371
866.58        78.24356
866.99        78.27562
867.39         78.6259
867.79        79.28155
868.19        79.92946
868.60        79.96847
869.00        79.27464
869.40        78.02599
869.80        76.91768
870.21        77.02805
870.61        78.65929
871.01        81.46226
871.41        84.54365
871.81        86.38607
872.22        86.55824
872.62        85.47446
873.02        83.95778
873.42        83.46523
873.82        84.16605
874.22        85.34332
874.63         86.5304
875.03        86.81096
875.43        85.81493
875.83        84.85314
876.23        82.71747
876.63        81.82185
877.03        82.14427
877.44        83.94811
877.84        103.7983
878.24        92.01334
878.64        91.92635
879.04        91.19527
879.44        86.31513
879.84        83.75099
880.24        88.08177
880.64        90.42567
881.04        91.62373
881.44        92.31997
881.84        91.83252
882.24        90.41886
882.65        89.07696
883.05        88.80584
883.45        89.79135
883.85        91.94504
884.25        94.45647
884.65        95.67938
885.05         95.1372
885.45        93.43018
885.85        91.45387
886.25        90.40945
886.65        90.56294
887.05        91.52254
887.45        92.85178
887.85        93.77694
888.25        93.99957
888.65        93.79372
889.04        93.34299
889.44        92.96326
889.84        92.74248
890.24        92.51604
890.64        92.30703
891.04        92.19115
891.44        92.15519
891.84        92.23848
892.24        92.27265
892.64        91.92536
893.04        91.21712
893.44        90.35201
893.83        89.64377
894.23        89.55004
894.63        90.12389
895.03        91.14371
895.43        92.49533
895.83        93.93378
896.23        95.24612
896.63        96.47101
897.02        97.18265
897.42        96.73593
897.82        95.14539
898.22        92.69193
898.62        90.24752
899.01        89.08498
899.41        89.46912
899.81        90.98681
900.21        92.95306
900.61        94.22482
901.00        94.45451
901.40        93.99009
901.80        93.21069
902.20         92.7157
902.59        92.68896
902.99         92.8992
903.39        93.17561
903.79        93.25674
904.18        93.07226
904.58        92.81604
904.98        92.59636
905.38        92.55191
905.77        92.69663
906.17         92.9201
906.57        93.21633
906.96        93.64606
907.36        94.10958
907.76        94.60202
908.15         94.8991
908.55        94.51626
908.95        93.45873
909.34        91.88319
909.74        90.28876
910.14         89.2776
910.53        89.05518
910.93        89.51499
911.33        90.47744
911.72        91.58367
912.12           92.53
912.52        93.28662
912.91        93.88955
913.31        94.43899
913.70        95.01139
914.10        95.55704
914.49        95.78542
914.89        95.03793
915.29        93.31395
915.68        90.98315
916.08        89.01026
916.47        88.19257
916.87        88.56934
917.26        89.87857
917.66        91.42006
918.05        92.06303
918.45        91.50955
918.84        90.16639
919.24        88.70693
919.64        88.10656
920.03        88.63426
920.42        89.94209
920.82         91.6301
921.21        93.15697
921.61        94.07667
922.00        94.54653
922.40        94.49486
922.79        93.83661
923.19        92.70068
923.58        91.04047
923.98        89.01974
924.37        87.52099
924.77        87.15185
925.16        85.14433
925.55        86.51033
925.95        87.49677
926.34        89.48179
926.74        91.98711
927.13        94.44958
927.52        95.67065
927.92        95.47054
928.31        94.19904
928.70        92.28485
929.10        90.51289
929.49        89.13567
929.89        87.99521
930.28        87.35242
930.67        87.63351
931.07        88.73346
931.46        90.63558
931.85         92.5108
932.24         93.0901
932.64        92.13852
933.03         89.8339
933.42        86.89648
933.82        84.96423
934.21        84.51764
934.60        85.15144
934.99        86.06475
935.39        86.42268
935.78        86.11279
936.17        84.95778
936.56        82.94656
936.96        84.06926
937.35        83.61259
937.74        85.02033
938.13        86.36336
938.53        87.65405
938.92        88.95438
939.31        90.42851
939.70        91.74956
940.09        91.91337
940.49        90.70461
940.88        88.63811
941.27        86.48498
941.66        85.10731
942.05         84.6284
942.44        84.76899
942.84        85.43417
943.23        86.53956
943.62         87.8363
944.01         89.2794
944.40         90.4733
944.79        90.81682
945.18        90.16384
945.57        88.57008
945.97        86.31792
946.36        84.38082
946.75        83.39782
947.14        83.16229
947.53        83.50152
947.92        84.18938
948.31        85.13161
948.70        86.48114
949.09        87.91459
949.48        88.59521
949.87        88.18249
950.26        86.78804
950.65        85.11631
951.04        84.30949
951.43        84.60652
951.82        85.71214
952.21        86.90946
952.60        87.00288
952.99        85.72626
953.38        83.51266
953.77        81.12701
954.16        79.64896
954.55        79.33579
954.94        79.92855
955.33        80.78671
955.72        80.84476
956.11        79.85138
956.50        78.11063
956.89        76.48567
957.28        76.52094
957.66        78.65065
958.05        82.07379
958.44        85.64688
958.83        87.71388
959.22        87.85754
959.61        86.53273
960.00        84.42444
960.39        82.66129
960.78        81.64973
961.16        81.12815
961.55        80.77891
961.94        80.08817
962.33        78.97367
962.72        77.75507
963.11        76.78632
963.49        76.44996
963.88        76.79034
964.27        77.70924
964.66        78.87054
965.04        79.58963
965.43        79.50661
965.82        78.84496
966.21        78.12156
966.60        78.05006
966.98        78.76235
967.37        80.00434
967.76         81.3151
968.15        81.79918
968.53         81.2078
968.92        79.85078
969.31        78.31509
969.69        77.33772
970.08        77.09704
970.47        77.43033
970.86        77.96667
971.24        78.05945
971.63        77.50739
972.02        76.45399
972.40        75.45638
972.79        75.48342
973.17        76.87636
973.56        79.24568
973.95        81.69949
974.33         82.5709
974.72        81.37166
975.11         78.7366
975.49        75.85562
975.88        74.27158
976.26         74.2251
976.65        75.39314
977.04        76.99806
977.42        77.17157
977.81        75.30175
978.19        72.15075
978.58        69.51894
978.96        69.24124
979.35        71.58636
979.74        76.14727
980.12         81.8843
980.51        85.30212
980.89        85.26295
981.28        82.70137
981.66        79.27183
982.05         77.0611
982.43        76.44973
982.82        76.76612
983.20        77.62785
983.59        78.54695
983.97        79.41596
984.35        80.48299
984.74        81.50605
985.12         82.2022
985.51        82.18977
985.89        81.29509
986.28        79.79968
986.66        78.11127
987.04         76.6815
987.43        75.66617
987.81         74.7018
988.20        73.13489
988.58        70.59177
988.96         66.4946
989.35        61.44678
989.73        59.38513
990.12        63.01589
990.50        70.73768
990.88        77.53561
991.27        79.53902
991.65        77.30303
992.03        71.93858
992.42        65.98058
992.80        63.97496
993.18         67.0057
993.56        72.49553
993.95         78.0156
994.33        81.39003
994.71        82.21586
995.10        81.68808
995.48        80.06793
995.86         77.4707
996.24        74.05608
996.63        69.33144
997.01        64.39938
997.39        62.71886
997.77        65.69202
998.15        72.65096
998.54        79.97594
998.92        82.66216
999.30        79.29422
999.68        70.97771
1000.06        60.22517
1000.45        53.16448
1000.83         52.1352
1001.21        55.07454
1001.59        59.61003
1001.97        63.20882
1002.35        65.33612
1002.73         67.0856
1003.12        68.06681
1003.50        67.06597
1003.88        63.99681
1004.26        59.63604
1004.64        55.85123
1005.02        54.26486
1005.40        55.01361
1005.78        58.25853
1006.16         64.7446
1006.54        72.08137
1006.92        75.94341
1007.30        76.43237
1007.69        75.48044
1008.07        74.81738
1008.45        74.53019
1008.83        73.99212
1009.21        71.15704
1009.59        56.23037
1009.97        4.331501
1010.35       -79.48734
1010.73       -76.65165
1011.11       -29.38651
1011.49        7.256497
1011.86        34.10498
1012.24        49.61499
1012.62        56.58951
1013.00        58.51728
1013.38        57.01876
1013.76        54.19711
1014.14         56.7402
1014.52        69.94947
1014.90        94.64849
1015.28        123.7185
1015.66        137.2767
1016.04           123.5
1016.41        87.46241
1016.79         48.1422
1017.17        25.33144
1017.55         19.4147
1017.93        20.99325
1018.31        25.36282
1018.69        30.78033
1019.06        37.30066
1019.44        45.89675
1019.82        58.99591
1020.20        77.57641
1020.58        101.6797
1020.95         134.665
1021.33        178.1105
1021.71       -205.4517
1022.09        118.1485
1022.46        142.7033
1022.84        155.8007
1023.22         170.007
1023.60        200.5192
1023.97        484.3882
1024.35        10.00444
1024.73        69.14088
