SpectraSmart Spectrum 2.9.0.0
--------- Device Information -----------
Spectrum Name :  反射率_0
Saving Time :  2024/04/26 00:14:48
Spectro-Module Model Name : SE2030-DUVN
Spectro-Module Serial Number : OS361AC55029948
Wavelength Start : 200
Wavelength End : 1025
Wavelength Unit : Wavelength(nm)
Spectrum Unit : Reflectance(%)
-----------Spectrum Setting ------------
Integration Time : 20ms
Average : 10
Boxcar : 0
Background removal :  enabled
linearity correction :  enabled
SC :  disabled
Intensity correction :  disabled
DWT denoise :  enabled
savitzky-golay :  disabled
FFT :  disabled
Running average :  disabled
Kalman :  disabled
High pass :  disabled
---------------BEGIN--------------------
Wavelength(nm)             Reflectance(%)
200.29               0
200.75        86.23692
201.21        76.04485
201.67        64.53635
202.13         57.5318
202.58        55.70996
203.04        57.82406
203.50        61.83982
203.96        64.14109
204.42           63.77
204.88        62.07405
205.34        60.47153
205.80        60.47062
206.26        62.71099
206.72        68.19406
207.18        78.79893
207.64        87.29787
208.10        79.63717
208.55        66.29369
209.01        57.93238
209.47        54.72998
209.93        54.42359
210.39        56.06788
210.85        58.43221
211.31         59.0899
211.77        57.34192
212.23        53.99502
212.69        51.42397
213.14        53.45822
213.60        60.28646
214.06        70.64619
214.52        80.98806
214.98        86.02814
215.44        84.75209
215.90        79.16586
216.36         72.2274
216.81        68.06866
217.27        67.76621
217.73        69.62029
218.19         71.7993
218.65        72.00249
219.11        69.32404
219.57        63.51971
220.02        54.71132
220.48        46.90105
220.94        43.11674
221.40         43.6819
221.86        45.25645
222.32         43.6907
222.77        39.19956
223.23        33.87094
223.69        30.46534
224.15        31.95732
224.61        37.62572
225.06        45.79703
225.52        53.23462
225.98        55.76856
226.44        52.85832
226.90        46.40773
227.36        39.20839
227.81        35.07909
228.27        35.13247
228.73        37.89235
229.19        41.93695
229.65        45.10974
230.10        46.71314
230.56        47.47845
231.02        47.82716
231.48        48.19249
231.93        48.68111
232.39        49.10314
232.85        49.38099
233.31        49.51377
233.77         49.4959
234.22        49.38316
234.68        49.23546
235.14        49.08038
235.60        48.94669
236.05        48.83842
236.51        48.74841
236.97        48.61385
237.43         48.4402
237.88        48.34119
238.34        48.28578
238.80        48.40985
239.26        48.75496
239.71        49.31233
240.17        50.05854
240.63         51.4411
241.08        53.53215
241.54        56.08697
242.00        58.52286
242.46         60.1386
242.91        60.93321
243.37        60.40808
243.83        58.84091
244.28        65.84589
244.74        96.85112
245.20        108.0787
245.66        103.7783
246.11        99.80756
246.57        95.18914
247.03        84.08975
247.48        40.69872
247.94        12.54332
248.40        46.30794
248.85        62.44057
249.31        69.91294
249.77        74.05616
250.22        77.33766
250.68        81.27184
251.14        85.89018
251.59        87.88364
252.05        84.60233
252.51        77.86624
252.96        70.83541
253.42        66.70308
253.88        65.02475
254.33        64.78623
254.79        66.44958
255.25        69.92983
255.70         74.2579
256.16        78.95094
256.62        82.17999
257.07        82.12147
257.53        79.58714
257.99        75.27339
258.44        70.80405
258.90        68.95336
259.35        68.86928
259.81        69.52988
260.27        69.31488
260.72        66.67299
261.18        62.32981
261.63        57.01065
262.09         52.0974
262.55        48.51105
263.00        46.27134
263.46        45.03554
263.91        44.13982
264.37        43.14287
264.83        41.84483
265.28        40.29287
265.74         38.8636
266.19        37.85715
266.65        37.42225
267.11        37.31938
267.56        37.18135
268.02          36.569
268.47        35.39308
268.93        33.82142
269.38        32.11991
269.84        30.97105
270.30        30.55306
270.75        30.68313
271.21        31.00769
271.66        30.99326
272.12        30.49178
272.57         29.6687
273.03        28.78932
273.48         28.1686
273.94        27.91184
274.39        27.86518
274.85        27.85848
275.31        27.64264
275.76        27.15438
276.22        26.50972
276.67        25.83938
277.13        25.41451
277.58        25.23169
278.04        25.23181
278.49        25.20976
278.95        24.93955
279.40        24.36502
279.86        23.62714
280.31           22.87
280.77        22.41634
281.22        22.27648
281.68        22.35919
282.13        22.49523
282.59        22.47964
283.04        22.26326
283.50        21.95591
283.95        21.60931
284.41        21.31873
284.86        21.11085
285.32        20.95566
285.77        20.88679
286.22        21.01747
286.68        21.31979
287.13        21.73276
287.59        22.08875
288.04        22.12934
288.50        21.83906
288.95        21.28694
289.41        20.67048
289.86        20.18785
290.32        19.94885
290.77        19.88236
291.22        19.94956
291.68        20.04993
292.13        20.15943
292.59        20.31304
293.04         20.5517
293.50        20.93527
293.95        21.45324
294.40        22.04869
294.86        22.63647
295.31         23.1031
295.77        23.43104
296.22        23.66147
296.68        23.85363
297.13        24.07696
297.58        24.37421
298.04        24.73494
298.49        25.17218
298.95        25.74148
299.40        26.42805
299.85        27.21302
300.31        28.00434
300.76        28.66603
301.21        29.14741
301.67        29.50023
302.12        29.75575
302.58        30.02362
303.03        30.31065
303.48         30.5963
303.94        30.90536
304.39        31.23771
304.84        31.59596
305.30        31.98165
305.75        32.31562
306.20        32.48779
306.66        32.50576
307.11        32.38999
307.57          32.263
308.02        32.23235
308.47        32.35054
308.93        32.57879
309.38         32.8492
309.83        33.08568
310.29        33.24982
310.74        33.35196
311.19        33.40285
311.65        33.41931
312.10        33.40462
312.55        33.35336
313.00        33.24501
313.46        33.05839
313.91        32.79449
314.36        32.49232
314.82        32.22559
315.27        32.08414
315.72        32.09317
316.18        32.21852
316.63        32.40597
317.08        32.54234
317.53        32.58515
317.99        32.54839
318.44        32.47053
318.89        32.41911
319.35        32.40184
319.80        32.40268
320.25        32.35862
320.70        32.17583
321.16        31.84784
321.61        31.41631
322.06        30.97776
322.51        30.67358
322.97        30.52338
323.42        30.49592
323.87        30.50152
324.32        30.38918
324.78        30.11927
325.23        29.74925
325.68        29.34865
326.13        29.03479
326.59        28.84063
327.04        28.75089
327.49        28.73166
327.94         28.7318
328.39        28.73094
328.85        28.73231
329.30        28.77365
329.75        28.87112
330.20         29.0224
330.66        29.19196
331.11        29.35458
331.56        29.43076
332.01        29.39884
332.46        29.26146
332.92        29.06425
333.37         28.9328
333.82        28.89324
334.27        28.93969
334.72        28.98232
335.17        28.86403
335.63        28.55704
336.08        28.12081
336.53        27.71729
336.98         27.6066
337.43        27.83788
337.88        28.33297
338.34        28.86888
338.79        29.12929
339.24        29.00536
339.69        28.58552
340.14        28.08184
340.59        27.86776
341.05        28.03054
341.50        28.44488
341.95        28.90876
342.40        29.13062
342.85        29.04689
343.30        28.77023
343.75        28.40752
344.20        28.14182
344.66        28.03804
345.11        27.99579
345.56        28.01288
346.01        28.08749
346.46        28.19163
346.91        28.34783
347.36        28.42221
347.81        28.19397
348.26        27.65839
348.72        26.92093
349.17        26.19733
349.62        25.92513
350.07        26.19616
350.52        26.85611
350.97        27.66476
351.42        28.25078
351.87        28.50058
352.32        28.51959
352.77        28.36964
353.22        28.15549
353.67        27.93093
354.13        27.66288
354.58         27.3903
355.03        27.22321
355.48        27.17682
355.93        27.23911
356.38        27.32419
356.83        27.27731
357.28        27.06346
357.73        26.72894
358.18         26.3515
358.63        26.05604
359.08        25.88117
359.53        25.79474
359.98        25.74795
360.43        25.66581
360.88        25.52692
361.33        25.35038
361.78        25.18258
362.23        25.09591
362.68        25.09544
363.13        25.14391
363.58        25.16423
364.03        25.04181
364.48        24.75771
364.93        24.35938
365.38        23.92113
365.83        23.56072
366.28        23.31782
366.73        23.16017
367.18        23.06855
367.63        23.00855
368.08        22.95818
368.53         22.9266
368.98         22.8883
369.43        22.79812
369.88        22.65157
370.33        22.46297
370.78        22.25821
371.23        22.08904
371.68        21.97302
372.13        21.88877
372.58        21.85064
373.03        21.87935
373.48        21.96319
373.93        22.09303
374.38        22.19271
374.83        22.14365
375.28        21.93085
375.72        21.58344
376.17        21.22067
376.62        20.99954
377.07        20.96192
377.52        21.05188
377.97        21.20089
378.42        21.29606
378.87        21.29572
379.32        21.23601
379.77        21.12236
380.22        20.95876
380.67        20.75742
381.11        20.51839
381.56        20.27305
382.01        20.08638
382.46        19.97731
382.91         19.9336
383.36        19.92983
383.81        19.91771
384.26         19.8801
384.71        19.82881
385.15         19.7592
385.60        19.68055
386.05        19.58481
386.50         19.4572
386.95        19.31105
387.40        19.17756
387.85         19.0721
388.29        18.99655
388.74        18.92731
389.19        18.79328
389.64         18.5882
390.09        18.32388
390.54        18.08525
390.98        18.01442
391.43        18.14238
391.88        18.40787
392.33        18.67555
392.78        18.74712
393.23        18.59755
393.67        18.29064
394.12        17.97838
394.57        17.81063
395.02        17.82119
395.47        17.95654
395.91        18.14748
396.36        18.24655
396.81        18.21245
397.26        18.07887
397.71        17.90938
398.15        17.77833
398.60        17.72934
399.05        17.73858
399.50        17.74214
399.95        17.60189
400.39        17.38327
400.84        17.06334
401.29        16.76399
401.74        16.67001
402.18         16.8347
402.63        17.17679
403.08        17.56382
403.53        17.78251
403.97        17.77633
404.42        17.60708
404.87        17.35976
405.32        17.18356
405.76        17.12682
406.21         17.1466
406.66        17.20354
407.11        17.25051
407.55        17.27531
408.00        17.29037
408.45        17.29854
408.90        17.28843
409.34        17.25891
409.79        17.21201
410.24         17.1598
410.68        17.12124
411.13        17.10551
411.58        17.10928
412.03        17.13027
412.47        17.16715
412.92        17.20385
413.37         17.2387
413.81        17.26835
414.26        17.30529
414.71        17.33997
415.15        17.37131
415.60        17.36643
416.05        17.29265
416.49        17.14899
416.94        16.96277
417.39        16.77035
417.83         16.6341
418.28        16.58133
418.73         16.5854
419.17        16.64184
419.62        16.73459
420.07        16.85115
420.51        16.99623
420.96         17.1172
421.41        17.12389
421.85        16.99982
422.30        16.79419
422.74        16.58428
423.19        16.52018
423.64        16.61244
424.08         16.8293
424.53        17.07697
424.98         17.2191
425.42        17.21833
425.87        17.10493
426.31        16.94055
426.76        16.87129
427.21        16.90283
427.65        16.88197
428.10        16.85453
428.54        16.99762
428.99        17.30823
429.44        17.70514
429.88        18.02691
430.33        18.07725
430.77        17.82807
431.22        17.34127
431.66        16.82748
432.11        16.67984
432.56        16.92883
433.00        17.36983
433.45        17.79185
433.89        18.05462
434.34        18.03643
434.78        17.62878
435.23        17.11849
435.67        17.07403
436.12        17.44139
436.57        17.61185
437.01        17.50329
437.46        17.41702
437.90        17.38134
438.35         17.3119
438.79        17.22308
439.24        17.18584
439.68        17.21824
440.13        17.22641
440.57        17.23198
441.02        17.50472
441.46        17.90154
441.91        17.79577
442.35        17.28843
442.80        17.05171
443.24          17.069
443.69        17.08557
444.13        17.04387
444.58        16.85356
445.02        16.58832
445.47        16.60831
445.91        16.85688
446.36        16.93515
446.80        16.81108
447.24         16.7126
447.69         16.6707
448.13         16.6219
448.58        16.58091
449.02        16.56329
449.47        16.55519
449.91        16.53338
450.36        16.49683
450.80        16.44485
451.25        16.40832
451.69         16.4222
452.13        16.49223
452.58        16.59492
453.02        16.69116
453.47         16.7182
453.91        16.66871
454.36         16.5706
454.80        16.45427
455.24        16.37038
455.69        16.34456
456.13        16.34748
456.58        16.40034
457.02        16.50983
457.46        16.67336
457.91        16.87917
458.35        17.06302
458.79        17.11799
459.24        17.03823
459.68         16.8431
460.13        16.63238
460.57        16.52045
461.01        16.55177
461.46        16.68639
461.90        16.85654
462.34        16.94607
462.79        16.92166
463.23        16.81007
463.68        16.68663
464.12        16.68188
464.56        16.82273
465.01        17.07088
465.45        17.29056
465.89        17.34917
466.34         17.2395
466.78        16.91746
467.22        16.54695
467.67        16.55563
468.11        16.90386
468.55        17.07557
468.99        17.01451
469.44        16.97589
469.88        17.01254
470.32        17.18386
470.77        17.41534
471.21         17.4576
471.65        17.28502
472.10        17.08051
472.54        16.91706
472.98        16.85602
473.42        16.92501
473.87        17.11043
474.31        17.33501
474.75        17.47113
475.20        17.49349
475.64        17.43093
476.08        17.34738
476.52        17.34133
476.97        17.43605
477.41        17.59983
477.85        17.77288
478.29        17.89488
478.74        17.94915
479.18        17.86985
479.62        17.71239
480.06        17.86062
480.50        17.96052
480.95        18.05041
481.39        17.99278
481.83        17.94952
482.27        17.92265
482.72        17.76021
483.16        17.53942
483.60        17.62182
484.04        18.02498
484.48        18.20954
484.93        18.37287
485.37        18.81874
485.81        19.49553
486.25        19.41596
486.69        25.73081
487.14        20.62837
487.58        13.50501
488.02        16.42822
488.46        18.59204
488.90        18.35382
489.34        18.39932
489.79        18.32916
490.23        19.50391
490.67        20.14604
491.11        19.98471
491.55        19.84313
491.99        19.69946
492.43         19.5104
492.88        19.36133
493.32        19.38955
493.76        19.45891
494.20        19.66556
494.64        19.94252
495.08        20.26207
495.52        20.59373
495.96        20.90905
496.41        21.13602
496.85        21.27295
497.29         21.3148
497.73        21.00254
498.17        20.61826
498.61        20.78298
499.05        21.49285
499.49        21.63898
499.93        21.73232
500.37        21.86747
500.82        21.97497
501.26        22.22782
501.70        22.51035
502.14        22.65067
502.58        22.63144
503.02        22.64326
503.46        22.69746
503.90        22.67104
504.34        22.59829
504.78        22.59242
505.22        22.66748
505.66        22.80014
506.10        22.93824
506.54        22.99055
506.98         22.9409
507.42        22.82467
507.86        22.71674
508.30        22.73193
508.74        22.89057
509.18        23.14666
509.62        23.43345
510.06        23.64117
510.50        23.73641
510.94        23.75986
511.38         23.7323
511.82        23.68627
512.26        23.64233
512.70        23.58508
513.14        23.55424
513.58        23.61813
514.02         23.7734
514.46        23.99406
514.90        24.20444
515.34        24.24765
515.78        24.07002
516.22        23.87015
516.66        23.73291
517.10        23.36326
517.54        22.79221
517.98        23.55891
518.42        23.38094
518.86        23.72747
519.30        23.89596
519.74         24.1021
520.18        24.29264
520.62        24.35198
521.06        24.29097
521.50        24.12354
521.93        23.90505
522.37        23.73953
522.81        23.65977
523.25        23.64094
523.69        23.67216
524.13        23.73337
524.57        23.80681
525.01        23.89391
525.45        23.96623
525.89        23.97561
526.32        23.91044
526.76        23.78627
527.20         23.6249
527.64        23.47328
528.08        23.35379
528.52        23.23463
528.96        23.12037
529.40        23.07959
529.83        23.12368
530.27        23.00028
530.71        23.12819
531.15        23.08392
531.59        22.99548
532.03        22.86195
532.46        22.74784
532.90        22.75954
533.34        22.90295
533.78        23.13619
534.22        23.36393
534.66        23.44705
535.09        23.35229
535.53         23.1344
535.97        22.86356
536.41        22.65633
536.85        22.55345
537.28        22.52905
537.72         22.5514
538.16        22.56939
538.60         22.5687
539.04        22.55081
539.47        22.54624
539.91        22.65507
540.35        22.85683
540.79        23.03544
541.22        23.15687
541.66        23.26375
542.10        23.34549
542.54        23.35638
542.97          23.341
543.41        23.40957
543.85        23.57551
544.29        23.81929
544.72        24.06641
545.16        24.20941
545.60        24.22779
546.04        24.15314
546.47        24.09036
546.91        24.21522
547.35        24.54581
547.79        25.02433
548.22        25.50556
548.66        25.74309
549.10        25.70267
549.53        25.50429
549.97        25.28606
550.41        25.19574
550.84        25.28868
551.28        25.53259
551.72        25.87468
552.15        26.21335
552.59        26.50001
553.03         26.7557
553.46        26.96978
553.90        27.15033
554.34        27.30629
554.77        27.40218
555.21           27.44
555.65        27.51175
556.08        27.64176
556.52         27.4764
556.96        27.67336
557.39          27.734
557.83        27.85829
558.27        28.01062
558.70        28.18574
559.14        28.35671
559.57        28.49928
560.01        28.63312
560.45         28.7218
560.88        28.70932
561.32        28.61977
561.75        28.46025
562.19         28.3185
562.63        28.28868
563.06         28.3852
563.50        28.58402
563.93        28.82512
564.37        29.02489
564.80        29.14709
565.24        29.22748
565.68        29.28041
566.11        29.33174
566.55        29.41394
566.98        29.50802
567.42        29.63542
567.85        29.82312
568.29        30.08821
568.72        30.33909
569.16        30.60168
569.60        30.97408
570.03        31.30875
570.47        31.35289
570.90        31.25943
571.34        30.70311
571.77        31.34642
572.21        31.43713
572.64        31.41792
573.08        31.29486
573.51         30.1353
573.95         31.4621
574.38        33.41289
574.82        32.74346
575.25        32.53556
575.69        31.43019
576.12        30.92582
576.56        30.72853
576.99        31.60262
577.42         32.9185
577.86        33.16319
578.29        32.49918
578.73        34.21144
579.16        31.72541
579.60        28.79388
580.03         30.1183
580.47        32.13465
580.90        32.53248
581.33        31.99526
581.77        31.52362
582.20        34.43468
582.64        33.94481
583.07        29.00285
583.51        28.41242
583.94        27.89608
584.37        29.02087
584.81        30.24704
585.24        31.64816
585.68        32.30919
586.11        31.49774
586.54        29.63538
586.98        28.56291
587.41        28.83994
587.85        30.45151
588.28        31.36871
588.71        29.48183
589.15        28.89074
589.58        29.31946
590.01         29.5086
590.45        30.08172
590.88        30.11001
591.31        29.68476
591.75        29.41536
592.18        29.46716
592.61        30.17158
593.05        30.80585
593.48        31.94033
593.91        32.31548
594.35        29.61102
594.78        29.19151
595.21        29.35503
595.65        30.76493
596.08        31.79492
596.51        30.63222
596.94        30.03516
597.38         30.5167
597.81        31.79828
598.24        32.95759
598.68        32.64684
599.11        32.24232
599.54        33.83248
599.97        34.68705
600.41        33.07175
600.84        33.53765
601.27        34.43213
601.70         34.3423
602.14        34.65606
602.57        34.54355
603.00        35.18504
603.43        36.48729
603.87        37.93425
604.30        38.06861
604.73        37.10595
605.16        37.04659
605.60        38.14892
606.03        39.10429
606.46        39.98433
606.89         40.5514
607.32        39.35021
607.76        40.07486
608.19        41.48514
608.62        41.36745
609.05        41.03524
609.48        41.63269
609.92        41.84527
610.35        41.87584
610.78        43.89421
611.21        44.60672
611.64        42.75428
612.07        43.49304
612.50        44.23559
612.94        44.92781
613.37        44.87724
613.80        45.28298
614.23        46.05308
614.66        46.26315
615.09         46.5716
615.52        46.87823
615.96        47.26252
616.39        47.62865
616.82        47.14841
617.25        47.40371
617.68          48.079
618.11        48.77133
618.54        49.25476
618.97        49.11729
619.40         48.6297
619.84        48.83059
620.27        49.67088
620.70        50.28335
621.13        50.52099
621.56        50.20107
621.99        49.59271
622.42        50.34561
622.85        52.04024
623.28        52.04731
623.71        51.40101
624.14        51.53768
624.57        51.15512
625.00         51.0401
625.43        51.02828
625.86        50.52015
626.29        50.55861
626.72        50.75863
627.15        50.47953
627.58         50.4588
628.01        50.40794
628.44        50.35631
628.87        50.30907
629.30        50.09403
629.73        50.12307
630.16        49.81281
630.59        49.29658
631.02         48.6633
631.45        48.01037
631.88        47.44731
632.31        47.00362
632.74        46.65656
633.17        46.34828
633.60        45.97985
634.03         45.5252
634.46        45.01925
634.89        44.49844
635.32        44.02027
635.75        43.60274
636.18        43.22294
636.61        42.86084
637.04         42.4853
637.47        42.08178
637.89        41.66446
638.32        41.22817
638.75        40.79354
639.18        40.37531
639.61        39.97738
640.04        39.60427
640.47        39.25708
640.90        38.93766
641.33        38.64635
641.76        38.37813
642.18        38.18044
642.61        38.05438
643.04        37.89829
643.47        37.68637
643.90        37.86508
644.33         37.6511
644.76        37.68389
645.18        37.71447
645.61        37.73417
646.04        37.73262
646.47        37.70921
646.90        37.74651
647.33        37.95247
647.75        38.35899
648.18        38.94462
648.61        39.53939
649.04        39.92405
649.47         40.0346
649.89        39.74803
650.32        39.41196
650.75        39.78054
651.18        40.83606
651.61        42.00878
652.03        42.97618
652.46        43.40541
652.89        43.57191
653.32        43.75871
653.74        44.21778
654.17        45.57269
654.60        46.61103
655.03        45.36516
655.46        46.43784
655.88         49.6474
656.31        53.61763
656.74        124.1004
657.16         81.0363
657.59         28.5721
658.02        21.70314
658.45        37.75821
658.87        49.00061
659.30        51.55657
659.73        51.37715
660.15        49.94051
660.58        52.44347
661.01        54.29396
661.44        52.99996
661.86        52.66329
662.29        52.79193
662.72        53.76427
663.14        55.36938
663.57        55.73582
664.00         55.0266
664.42        55.11642
664.85        56.07973
665.27         56.7319
665.70        56.89829
666.13         56.9762
666.55        56.95936
666.98        56.73935
667.41        56.48024
667.83        56.48956
668.26        56.83321
668.69        57.39979
669.11         57.9798
669.54        58.51035
669.96        58.37651
670.39        58.12555
670.82          57.799
671.24        57.75351
671.67        58.09041
672.09        58.66819
672.52        59.24744
672.94        59.89077
673.37        59.55843
673.80        59.62661
674.22        59.84245
674.65        59.98508
675.07        60.04184
675.50        60.03106
675.92        60.01661
676.35        60.13185
676.77        60.39667
677.20        60.70528
677.62         61.0199
678.05        61.28076
678.47         61.4527
678.90        61.57095
679.32        61.66429
679.75        61.63052
680.17        61.72201
680.60        61.80397
681.02        61.94812
681.45        61.78973
681.87        61.85925
682.30         61.7874
682.72        61.79264
683.15        61.87674
683.57         62.1195
684.00        62.60938
684.42        63.35563
684.85        63.70219
685.27        63.62946
685.70        63.36087
686.12         63.0473
686.54        62.95577
686.97        63.15204
687.39        63.47454
687.82        63.75328
688.24        64.26823
688.66        64.19525
689.09        64.06311
689.51        64.00975
689.94         64.0069
690.36        64.18343
690.78           64.41
691.21        64.64391
691.63        64.96788
692.06        65.27425
692.48        65.22762
692.90         64.9462
693.33        64.92745
693.75         65.2186
694.17        65.56465
694.60        65.88468
695.02        66.12991
695.44        66.22797
695.87        66.36857
696.29        66.58678
696.71         66.3801
697.14        65.96563
697.56        66.55572
697.98        67.85072
698.41        67.79916
698.83        67.08181
699.25        66.59634
699.68        66.65279
700.10        66.62975
700.52        66.56129
700.94        66.79655
701.37         67.2483
701.79        67.67323
702.21        67.97514
702.64        68.22689
703.06        68.37676
703.48        68.33584
703.90        68.12026
704.33         67.7581
704.75        67.36662
705.17        67.22242
705.59        67.39596
706.01         67.7103
706.44        68.03162
706.86        68.71527
707.28        68.78008
707.70        69.00034
708.12        69.12657
708.55         69.1423
708.97        69.07748
709.39        69.07814
709.81        69.16179
710.23        69.20998
710.66        69.22607
711.08        69.32829
711.50        69.46389
711.92        69.51674
712.34        69.47261
712.76        69.35052
713.19        69.23946
713.61        69.31101
714.03        69.57847
714.45        69.99102
714.87        70.38435
715.29        70.49882
715.71        70.28928
716.13        69.84341
716.56        69.35081
716.98        69.14857
717.40        69.31328
717.82        69.74354
718.24        70.27618
718.66        70.62955
719.08        70.71763
719.50        70.62718
719.92        70.44284
720.34        70.32046
720.76        70.31533
721.19        70.25904
721.61        70.36817
722.03         70.5049
722.45        70.71748
722.87        71.00175
723.29        71.30196
723.71        71.51205
724.13        71.60011
724.55        71.58492
724.97        71.51647
725.39        71.48524
725.81        71.51988
726.23        71.60252
726.65        71.69612
727.07          71.738
727.49         71.7171
727.91        71.66292
728.33        71.62685
728.75         71.6686
729.17        71.79462
729.59        72.03299
730.01        72.32783
730.43        72.42937
730.85        72.39209
731.27        72.61959
731.69         73.0241
732.10        73.13512
732.52        72.91799
732.94        72.64362
733.36        72.49065
733.78        72.51082
734.20        72.74313
734.62        73.48914
735.04        74.45119
735.46          74.439
735.88         73.6883
736.30        73.76048
736.72        74.70649
737.13        75.32697
737.55        75.27065
737.97        75.25327
738.39        75.29972
738.81        74.36404
739.23        73.01974
739.65        73.96751
740.06        76.62496
740.48        77.03219
740.90        75.24395
741.32        74.43854
741.74        74.90768
742.16        75.12402
742.57        75.14467
742.99        75.80392
743.41        76.87366
743.83        77.52238
744.25        77.60818
744.67         77.3401
745.08        76.96124
745.50        76.87016
745.92        77.18197
746.34        77.74082
746.75        78.35578
747.17        78.71386
747.59        78.76055
748.01        78.60679
748.42        78.42619
748.84         78.5319
749.26        79.01053
749.68        79.55665
750.09         80.0703
750.51        80.82797
750.93        81.55672
751.35        81.28159
751.76        80.27216
752.18        79.92789
752.60        80.26447
753.01        80.49681
753.43        80.22284
753.85         80.3971
754.27        80.90983
754.68        81.60455
755.10        82.34974
755.52        82.60588
755.93        83.08173
756.35        83.09169
756.77        83.00925
757.18        83.01699
757.60        83.18499
758.02        83.65539
758.43        83.98188
758.85        83.86864
759.26        81.76328
759.68        81.43527
760.10        83.14496
760.51        83.88766
760.93        83.16977
761.34        82.29767
761.76        81.53549
762.18        81.22156
762.59        81.47693
763.01        81.82861
763.42        82.27021
763.84        83.00996
764.26        83.90874
764.67        84.23559
765.09        84.00475
765.50        83.99011
765.92        84.03114
766.33        82.95367
766.75        81.21415
767.16        80.34133
767.58        80.67625
768.00        82.12993
768.41        84.35692
768.83        86.14255
769.24        86.72551
769.66        86.04391
770.07        84.59145
770.49        82.60208
770.90        80.78798
771.32        81.74631
771.73        84.69205
772.15        84.44366
772.56        81.41623
772.97        80.83186
773.39        82.63309
773.80        83.26186
774.22        82.49487
774.63        82.42184
775.05        82.98968
775.46        83.26101
775.88        83.13463
776.29        82.87469
776.70        82.59492
777.12        82.51538
777.53        82.70106
777.95        83.01803
778.36        83.31976
778.77        83.35299
779.19        83.10683
779.60        82.66694
780.02        82.23252
780.43        82.20824
780.84        82.72622
781.26        83.17417
781.67        83.51915
782.09        84.73663
782.50        86.21823
782.91        85.28483
783.33        82.70273
783.74        81.81167
784.15        82.72986
784.57         83.6332
784.98        84.19982
785.39        83.46483
785.81        82.86065
786.22        83.01776
786.63        82.35224
787.04        82.56755
787.46         83.0524
787.87         84.0844
788.28        85.30309
788.70        85.92384
789.11        85.80891
789.52        85.27018
789.93        84.59201
790.35        84.02612
790.76        83.74591
791.17        83.96201
791.58        84.52499
792.00         84.7993
792.41         84.6538
792.82        84.67066
793.23        84.71345
793.65        84.40718
794.06        83.97899
794.47        85.15144
794.88        87.10369
795.29        86.61711
795.71        83.92822
796.12        81.63493
796.53        80.40739
796.94        79.78403
797.35        79.97404
797.76        81.42367
798.18         83.4478
798.59        84.69421
799.00        84.72198
799.41        83.83682
799.82          82.561
800.23        81.79823
800.64        81.78835
801.06        82.16784
801.47        82.77409
801.88        83.23698
802.29        83.40221
802.70        83.41299
803.11        83.33559
803.52        83.21502
803.93        83.10265
804.34        83.03784
804.75        83.02214
805.17        82.98159
805.58        83.08091
805.99        83.37993
806.40        83.77842
806.81        84.62919
807.22        85.38285
807.63        84.16078
808.04        81.64366
808.45        80.65001
808.86        81.42822
809.27        82.53357
809.68        83.48257
810.09        84.03572
810.50        83.95796
810.91        83.34733
811.32        82.51809
811.73        81.98169
812.14         81.8857
812.55        82.03687
812.96        82.33998
813.37        82.69461
813.78        83.02744
814.19        83.29589
814.60        83.28168
815.01        83.39056
815.42        82.38465
815.83        81.29348
816.24        80.19415
816.65        79.90492
817.05        80.63761
817.46        82.14032
817.87        83.83308
818.28        84.62646
818.69         84.2381
819.10        82.94292
819.51        81.38444
819.92        80.72034
820.33        81.25596
820.74        82.46114
821.14        83.78419
821.55        84.64651
821.96        84.62289
822.37        83.15178
822.78        80.91373
823.19        79.70279
823.60        79.80599
824.00        80.47573
824.41         81.2843
824.82         81.9101
825.23        82.11537
825.64         82.0314
826.04        81.82373
826.45        81.72709
826.86         81.8003
827.27        81.91463
827.68        82.00984
828.08        82.04655
828.49        81.93391
828.90        81.77477
829.31        81.53487
829.72        81.13725
830.12        80.63747
830.53        80.06794
830.94        79.63148
831.35        79.58275
831.75        79.99902
832.16        80.74358
832.57        81.65312
832.97        82.35875
833.38        82.64357
833.79        82.58617
834.20        82.34438
834.60        82.17364
835.01        82.17345
835.42        82.26399
835.82        82.31709
836.23        82.04051
836.64        81.44041
837.04         80.6617
837.45        79.95462
837.86        79.70556
838.26        80.00303
838.67        80.67319
839.08        81.51738
839.48        82.16153
839.89        82.42258
840.29        82.42181
840.70        82.18584
841.11        81.74575
841.51        81.16983
841.92        80.42838
842.33        79.73714
842.73        79.46922
843.14        79.66195
843.54        80.26919
843.95        80.96466
844.35        81.25163
844.76        80.98746
845.17        80.33414
845.57        79.56966
845.98        79.13466
846.38        79.14316
846.79        79.43944
847.19        79.87554
847.60        80.09747
848.00        80.03954
848.41        79.79302
848.81        79.52265
849.22        79.38988
849.62        79.49609
850.03        79.78673
850.43        80.21144
850.84        80.58805
851.24        80.88885
851.65         80.9602
852.05        81.05576
852.46        81.40733
852.86         82.0518
853.27         82.9559
853.67        83.49442
854.07        82.84066
854.48        81.01491
854.88        78.31895
855.29        75.76635
855.69        74.82714
856.10        75.78804
856.50        78.45037
856.90        81.86015
857.31        83.81299
857.71        83.58764
858.12        81.75967
858.52        79.41642
858.92        77.99994
859.33        77.82334
859.73        78.50185
860.13          79.686
860.54        80.65065
860.94        81.15661
861.34        81.39702
861.75        81.50674
862.15        81.77538
862.55        82.23212
862.96        82.70998
863.36        83.11113
863.76        83.26276
864.17        83.13588
864.57        82.89787
864.97        82.64704
865.38        82.50266
865.78        82.55589
866.18        82.67299
866.58        82.93481
866.99        83.46519
867.39        84.30874
867.79        85.47068
868.19        86.49899
868.60        86.54659
869.00        85.45762
869.40        83.47305
869.80        81.54913
870.21        81.19922
870.61        82.84214
871.01        86.01627
871.41        89.65372
871.81        91.90965
872.22        92.23233
872.62         91.1541
873.02        89.54935
873.42        88.89577
873.82        89.45436
874.22        90.59596
874.63        91.86427
875.03        92.37218
875.43        91.71482
875.83        90.85706
876.23        89.33339
876.63        88.87977
877.03        89.62028
877.44        91.78896
877.84        101.3439
878.24        98.63194
878.64        98.27007
879.04        96.73281
879.44         93.5319
879.84        91.79438
880.24        94.12855
880.64        95.81038
881.04        97.15368
881.44        97.77373
881.84        96.95156
882.24        95.10758
882.65        93.40647
883.05        93.10676
883.45        94.41693
883.85        97.15143
884.25        100.2865
884.65         101.826
885.05        101.1995
885.45        99.13185
885.85        96.79916
886.25        95.81095
886.65        96.50076
887.05        98.31734
887.45        100.6404
887.85         102.349
888.25        102.9835
888.65        102.9243
889.04        102.3465
889.44        101.5623
889.84        100.7373
890.24         99.7466
890.64        98.83724
891.04        98.42181
891.44        98.55377
891.84        99.19333
892.24         99.9894
892.64        100.2466
893.04        99.83934
893.44        99.04644
893.83        98.26202
894.23        98.09042
894.63        98.62334
895.03        99.58409
895.43         100.837
895.83        102.1175
896.23          103.22
896.63        104.2272
897.02        104.7532
897.42        104.1907
897.82         102.564
898.22        100.1254
898.62        97.73271
899.01        96.63582
899.41        97.08364
899.81        98.66238
900.21         100.627
900.61         101.745
901.00        101.6664
901.40        100.7768
901.80        99.57225
902.20        98.83041
902.59        98.78423
902.99        99.17327
903.39        99.71507
903.79        99.94689
904.18        99.73623
904.58        99.30977
904.98        98.92155
905.38        98.93863
905.77        99.39918
906.17        100.1158
906.57        100.8626
906.96        101.3735
907.36        101.5228
907.76        101.4387
908.15        101.1514
908.55        100.5985
908.95        99.87262
909.34        98.94038
909.74        98.10788
910.14        97.67677
910.53        97.73867
910.93        98.30037
911.33        99.07196
911.72        99.52558
912.12        99.46678
912.52        99.00958
912.91        98.58627
913.31        98.78529
913.70        99.74199
914.10         101.336
914.49        103.0154
914.89        103.2711
915.29        101.6832
915.68        98.84545
916.08        96.13842
916.47         94.8446
916.87        95.11189
917.26        96.51268
917.66        98.23305
918.05        98.97891
918.45        98.38658
918.84        96.91933
919.24        95.34348
919.64        94.74805
920.03        95.42408
920.42        96.99987
920.82        98.89022
921.21        100.2524
921.61        100.6215
922.00         100.305
922.40        99.56541
922.79        98.73717
923.19         97.9906
923.58        97.21196
923.98        96.37041
924.37        95.55614
924.77        95.02941
925.16        93.77233
925.55        94.08527
925.95         94.7223
926.34        96.32888
926.74        98.43943
927.13        100.5506
927.52        101.6038
927.92        101.4539
928.31         100.423
928.70        98.85494
929.10        97.36083
929.49        96.14606
929.89        95.09297
930.28        94.51097
930.67        94.91641
931.07        96.22164
931.46        98.34872
931.85        100.4659
932.24        101.3163
932.64        100.6591
933.03        98.71471
933.42        96.07928
933.82        94.16357
934.21        93.40192
934.60        93.45012
934.99        93.82412
935.39        93.93699
935.78        93.69003
936.17        93.14526
936.56        92.10059
936.96        92.04972
937.35        90.78754
937.74        90.28468
938.13        90.13618
938.53        90.82935
938.92        92.36499
939.31         94.8017
939.70        97.43016
940.09        98.30048
940.49          96.811
940.88        93.76495
941.27        90.67791
941.66        89.35356
942.05          90.005
942.44        92.05351
942.84        94.71282
943.23        96.65925
943.62        97.28478
944.01         96.9495
944.40        96.06381
944.79        95.25318
945.18        94.72111
945.57        94.24706
945.97        93.59865
946.36        92.50626
946.75        91.12858
947.14        89.86208
947.53        89.06686
947.92        88.97111
948.31        89.52937
948.70         90.6731
949.09         92.1301
949.48        93.21496
949.87        93.57085
950.26        93.28493
950.65        92.73348
951.04        92.56343
951.43        92.92265
951.82        93.59499
952.21        94.19087
952.60        94.10969
952.99        93.22081
953.38        91.76093
953.77        90.17046
954.16         89.0431
954.55        88.53115
954.94        88.54203
955.33        88.67017
955.72        88.22891
956.11        87.08492
956.50        85.42979
956.89        83.97269
957.28        83.97691
957.66        85.80698
958.05        88.80869
958.44        91.96449
958.83        93.78029
959.22        93.87554
959.61        92.60032
960.00        90.65694
960.39        89.21722
960.78        88.65445
961.16         88.7156
961.55        88.83133
961.94        88.06187
962.33        86.28354
962.72        83.99386
963.11        81.97449
963.49        81.18589
963.88         81.7815
964.27        83.53123
964.66        85.81252
965.04        87.26501
965.43        87.22179
965.82        86.11011
966.21        84.73822
966.60        84.20063
966.98        84.70962
967.37        85.87421
967.76        87.13332
968.15        87.44257
968.53        86.52722
968.92        84.80939
969.31        82.94777
969.69        81.74273
970.08        81.38204
970.47        81.65406
970.86        82.18587
971.24        82.33992
971.63        81.89968
972.02        81.03066
972.40        80.21305
972.79        80.25298
973.17        81.48148
973.56        83.55076
973.95        85.76577
974.33         86.8032
974.72        86.21172
975.11        84.42295
975.49        82.41537
975.88        81.54621
976.26        82.02442
976.65        83.58535
977.04        85.36433
977.42        85.29209
977.81        82.74477
978.19        78.64886
978.58         75.0775
978.96        74.11872
979.35        76.05092
979.74        80.39069
980.12        86.14004
980.51        89.80535
980.89        90.19654
981.28        88.22929
981.66        85.26693
982.05        83.06461
982.43        82.00315
982.82        81.51025
983.20        81.56535
983.59        82.26189
983.97        83.61007
984.35        85.75701
984.74        88.04897
985.12        89.21583
985.51        88.43337
985.89        85.88872
986.28         82.4576
986.66        79.59749
987.04         78.0881
987.43        77.69157
987.81        77.83202
988.20        77.76535
988.58        77.26122
988.96          76.307
989.35        75.48235
989.73        76.87653
990.12         80.9217
990.50        86.13589
990.88          89.742
991.27        90.13985
991.65        87.84902
992.03        83.44847
992.42        78.45683
992.80        75.62984
993.18        75.97962
993.56        78.07682
993.95        80.70737
994.33        82.94707
994.71        84.39631
995.10        85.63385
995.48        86.28454
995.86        85.53822
996.24        83.25988
996.63        79.24072
997.01        74.62869
997.39         72.8998
997.77        75.49841
998.15        81.55354
998.54        87.91027
998.92         90.3247
999.30        87.54308
999.68         80.7138
1000.06        71.66102
1000.45        64.94021
1000.83        62.55321
1001.21        63.07294
1001.59         65.3463
1001.97        68.21551
1002.35        71.31261
1002.73        75.49796
1003.12        79.66979
1003.50        80.21841
1003.88        75.72235
1004.26        68.07854
1004.64        60.74639
1005.02        56.51086
1005.40        55.43085
1005.78        57.04597
1006.16        62.40066
1006.54        70.50321
1006.92        76.91054
1007.30        80.37572
1007.69        81.75613
1008.07        82.58881
1008.45          83.521
1008.83          84.425
1009.21        84.38913
1009.59        77.35543
1009.97        44.58823
1010.35       -17.42614
1010.73       -22.62607
1011.11        9.315948
1011.49        36.20155
1011.86        56.56087
1012.24        68.33015
1012.62         73.0625
1013.00        73.40475
1013.38        70.58619
1013.76        66.32996
1014.14        66.91221
1014.52        77.67903
1014.90        99.74803
1015.28        127.5385
1015.66        143.8819
1016.04        137.7293
1016.41        111.8813
1016.79        80.16713
1017.17         58.3978
1017.55        49.18331
1017.93        46.22538
1018.31        46.60697
1018.69        49.25398
1019.06        53.94637
1019.44        61.44479
1019.82         73.3204
1020.20        88.21682
1020.58        103.3024
1020.95        116.3187
1021.33        121.3209
1021.71        83.12797
1022.09         111.167
1022.46        114.3434
1022.84        116.6513
1023.22        121.2285
1023.60        133.4032
1023.97        246.5777
1024.35        56.82404
1024.73        79.94199
