SpectraSmart Spectrum 2.9.0.0
--------- Device Information -----------
Spectrum Name :  反射率_0
Saving Time :  2024/04/26 00:33:03
Spectro-Module Model Name : SE2030-DUVN
Spectro-Module Serial Number : OS361AC55029948
Wavelength Start : 200
Wavelength End : 1025
Wavelength Unit : Wavelength(nm)
Spectrum Unit : Reflectance(%)
-----------Spectrum Setting ------------
Integration Time : 20ms
Average : 10
Boxcar : 0
Background removal :  enabled
linearity correction :  enabled
SC :  disabled
Intensity correction :  disabled
DWT denoise :  enabled
savitzky-golay :  disabled
FFT :  disabled
Running average :  disabled
Kalman :  disabled
High pass :  disabled
---------------BEGIN--------------------
Wavelength(nm)             Reflectance(%)
200.29               0
200.75        112.4625
201.21        106.8379
201.67        99.03088
202.13        94.52039
202.58        94.24094
203.04        97.08948
203.50        100.7697
203.96        101.5664
204.42        99.04232
204.88         94.9876
205.34        91.87681
205.80        92.35668
206.26        97.77338
206.72        111.3726
207.18        139.0261
207.64        165.2712
208.10         152.801
208.55        121.9093
209.01        101.6186
209.47        94.11333
209.93        93.94347
210.39        98.07578
210.85         103.493
211.31        104.1689
211.77        98.38588
212.23        88.78448
212.69        79.84525
213.14        78.31474
213.60        85.21159
214.06         98.2724
214.52        113.1676
214.98        123.3688
215.44        126.8788
215.90        125.7104
216.36        121.9991
216.81        118.5216
217.27        116.8084
217.73        116.1752
218.19         115.802
218.65        114.6723
219.11        112.3698
219.57         108.464
220.02        104.8388
220.48        107.3587
220.94        117.4025
221.40        131.7318
221.86        141.6332
222.32        139.3411
222.77        127.2859
223.23        111.6811
223.69        98.69636
224.15        94.69409
224.61        99.05062
225.06        108.6742
225.52         119.541
225.98        126.1845
226.44        127.4869
226.90         125.449
227.36        122.8432
227.81        123.4677
228.27        128.2513
228.73        135.2433
229.19        142.0703
229.65        145.3729
230.10         144.694
230.56        142.2406
231.02        139.5359
231.48        138.3535
231.93        138.8405
232.39        140.3115
232.85         142.487
233.31        145.2276
233.77        148.2438
234.22        151.7371
234.68         154.527
235.14         154.483
235.60        151.2201
236.05        145.4975
236.51        139.1254
236.97        134.5412
237.43        132.1576
237.88        131.4919
238.34        131.6397
238.80        131.2745
239.26        129.6196
239.71        127.7758
240.17        124.8543
240.63        120.1188
241.08        113.9869
241.54        106.7522
242.00         100.493
242.46        97.76746
242.91        100.0552
243.37        110.5662
243.83        144.0641
244.28        235.0165
244.74        299.2013
245.20        215.4167
245.66        162.1747
246.11        148.8342
246.57        156.7448
247.03        194.7581
247.48        312.8061
247.94        264.3756
248.40         140.856
248.85        101.8216
249.31        89.98263
249.77        88.72214
250.22        93.45219
250.68        104.0044
251.14        120.7329
251.59        134.9824
252.05        136.3058
252.51        127.8951
252.96        116.7865
253.42        110.9891
253.88        110.7467
254.33        113.0807
254.79        118.4628
255.25        126.7485
255.70        136.0113
256.16        145.8392
256.62        153.3615
257.07         155.638
257.53        154.1693
257.99        150.0478
258.44        145.3363
258.90        143.8624
259.35        144.2794
259.81         145.544
260.27        145.6977
260.72        142.8896
261.18        138.2967
261.63        132.4692
262.09        126.8807
262.55        122.0218
263.00         117.897
263.46        114.6332
263.91        111.8131
264.37        109.8047
264.83        108.1303
265.28         106.565
265.74        104.8856
266.19        102.2614
266.65        99.18106
267.11        95.99761
267.56        93.11852
268.02        91.14623
268.47        89.85956
268.93        89.07835
269.38        88.56342
269.84        88.09921
270.30        87.56381
270.75         87.0303
271.21        86.40266
271.66          85.508
272.12        84.35735
272.57        82.94016
273.03        81.54926
273.48        80.49113
273.94        79.89253
274.39        79.58257
274.85        79.35679
275.31        78.79574
275.76        77.78922
276.22        76.53821
276.67         75.2038
277.13        74.24379
277.58        73.61658
278.04        73.27099
278.49        72.86877
278.95        72.15242
279.40        70.98459
279.86        69.59851
280.31        68.12894
280.77        67.00126
281.22        66.21181
281.68        65.71342
282.13        65.28503
282.59        64.76373
283.04         64.0445
283.50        63.26973
283.95        62.45452
284.41         61.7184
284.86        61.05149
285.32        60.43699
285.77        59.85788
286.22        59.41336
286.68        59.08283
287.13        58.78674
287.59         58.4133
288.04        57.71169
288.50        56.72122
288.95         55.5011
289.41        54.26082
289.86        53.14066
290.32        52.27639
290.77        51.57381
291.22        51.07718
291.68        50.79959
292.13        50.69958
292.59        50.77586
293.04        50.90838
293.50        50.93132
293.95        50.78648
294.40        50.49499
294.86        50.15461
295.31        49.91723
295.77        49.83259
296.22        49.86451
296.68        49.92112
297.13        49.82639
297.58        49.56572
298.04        49.21813
298.49        48.93347
298.95        48.98749
299.40        49.39625
299.85        50.05227
300.31        50.74014
300.76        51.13055
301.21        51.13601
301.67         50.9097
302.12        50.54216
302.58        50.25923
303.03        50.08953
303.48         49.9882
303.94          50.005
304.39        50.16328
304.84        50.45972
305.30        50.88163
305.75         51.2665
306.20        51.39074
306.66        51.23906
307.11        50.84354
307.57        50.40157
308.02         50.1042
308.47        50.03723
308.93        50.14649
309.38        50.30755
309.83        50.36983
310.29        50.29161
310.74        50.11006
311.19        49.92222
311.65        49.86653
312.10        49.95901
312.55        50.15296
313.00        50.31966
313.46        50.26549
313.91        49.94418
314.36        49.44034
314.82        48.92882
315.27        48.64501
315.72        48.65292
316.18        48.86827
316.63        49.15873
317.08        49.28142
317.53        49.16457
317.99        48.87477
318.44        48.52586
318.89        48.29957
319.35        48.22977
319.80        48.26624
320.25        48.29551
320.70        48.14222
321.16        47.77368
321.61        47.26028
322.06        46.71744
322.51        46.31481
322.97        46.07974
323.42        45.97433
323.87        45.91397
324.32        45.76177
324.78        45.47957
325.23        45.13203
325.68        44.77058
326.13          44.486
326.59        44.29677
327.04        44.19142
327.49        44.14859
327.94        44.14622
328.39         44.1692
328.85        44.21128
329.30        44.28387
329.75        44.33233
330.20        44.34947
330.66         44.3278
331.11        44.32098
331.56        44.36434
332.01        44.46584
332.46          44.595
332.92        44.72091
333.37         44.8628
333.82        44.98167
334.27        45.09146
334.72        45.12739
335.17         44.9854
335.63        44.66061
336.08         44.2049
336.53        43.77039
336.98        43.61235
337.43        43.78319
337.88        44.21456
338.34        44.71296
338.79        45.01314
339.24         45.0111
339.69        44.78709
340.14        44.48842
340.59        44.37586
341.05        44.51627
341.50        44.81406
341.95        45.15515
342.40        45.38559
342.85        45.46532
343.30        45.45465
343.75         45.3801
344.20        45.28555
344.66        45.19515
345.11         45.0593
345.56        44.91609
346.01        44.82304
346.46        44.78537
346.91        44.81349
347.36        44.80793
347.81        44.60186
348.26        44.19368
348.72         43.6726
349.17        43.19785
349.62        43.10289
350.07        43.44488
350.52        44.08674
350.97        44.82577
351.42        45.35725
351.87        45.58408
352.32        45.58908
352.77        45.40973
353.22        45.11412
353.67        44.75283
354.13        44.31991
354.58        43.87834
355.03        43.57385
355.48        43.43616
355.93        43.44581
356.38        43.51282
356.83        43.47559
357.28        43.28916
357.73        42.99251
358.18        42.65286
358.63         42.3798
359.08        42.20396
359.53        42.09452
359.98        41.99169
360.43        41.80653
360.88        41.52174
361.33        41.16489
361.78        40.81707
362.23        40.60664
362.68        40.55155
363.13        40.59979
363.58        40.64009
364.03         40.5002
364.48        40.14634
364.93        39.64431
365.38        39.08844
365.83        38.63034
366.28        38.31956
366.73        38.10805
367.18        37.97438
367.63        37.88215
368.08        37.80681
368.53        37.76513
368.98        37.71272
369.43        37.57267
369.88        37.33674
370.33        37.02374
370.78        36.70098
371.23        36.49057
371.68        36.42389
372.13        36.46108
372.58        36.55368
373.03        36.61546
373.48        36.61076
373.93        36.56521
374.38        36.47377
374.83        36.32701
375.28        36.13336
375.72        35.88484
376.17        35.64312
376.62        35.47543
377.07        35.39643
377.52        35.37999
377.97        35.39046
378.42        35.36611
378.87        35.28562
379.32        35.17219
379.77        35.01926
380.22        34.81415
380.67        34.56319
381.11        34.27129
381.56        33.98106
382.01        33.77428
382.46        33.66924
382.91        33.64321
383.36        33.64192
383.81        33.57415
384.26        33.41758
384.71        33.20309
385.15        32.95588
385.60        32.74043
386.05         32.5544
386.50        32.36855
386.95        32.18571
387.40        32.01894
387.85         31.8804
388.29        31.77345
388.74        31.68924
389.19        31.53174
389.64        31.29199
390.09        30.97504
390.54        30.69291
390.98        30.63542
391.43        30.83713
391.88        31.21831
392.33        31.58232
392.78        31.64016
393.23        31.36538
393.67        30.85906
394.12        30.36142
394.57        30.10736
395.02        30.14769
395.47        30.39235
395.91        30.74217
396.36         30.9762
396.81        31.02331
397.26        30.93258
397.71        30.75614
398.15        30.53934
398.60         30.3522
399.05         30.1956
399.50        30.04787
399.95        29.77726
400.39        29.52334
400.84          29.251
401.29        29.06703
401.74        29.05868
402.18        29.25321
402.63        29.59425
403.08        29.96858
403.53        30.18067
403.97        30.18124
404.42        30.02587
404.87        29.76501
405.32        29.49374
405.76        29.25876
406.21        29.05153
406.66        28.90537
407.11        28.87666
407.55        28.97136
408.00        29.16904
408.45        29.39577
408.90        29.48681
409.34        29.39501
409.79        29.17486
410.24        28.92503
410.68        28.78612
411.13        28.79766
411.58        28.91321
412.03        29.08806
412.47         29.2485
412.92        29.33953
413.37        29.38826
413.81         29.4008
414.26        29.40884
414.71        29.40871
415.15        29.38631
415.60        29.31973
416.05        29.19808
416.49        29.02617
416.94        28.82998
417.39        28.62445
417.83        28.43007
418.28        28.27059
418.73        28.13785
419.17         28.0663
419.62        28.10541
420.07        28.24766
420.51        28.47465
420.96        28.69423
421.41        28.75175
421.85        28.60859
422.30        28.34782
422.74        28.05732
423.19        27.92309
423.64         27.9585
424.08        28.12262
424.53        28.32948
424.98        28.47518
425.42        28.52772
425.87        28.50894
426.31        28.44347
426.76        28.40323
427.21        28.38942
427.65        28.28665
428.10        28.17613
428.54        28.31459
428.99        28.71947
429.44        29.20845
429.88        29.58778
430.33        29.80455
430.77        29.71831
431.22        29.02512
431.66         28.0504
432.11        27.71713
432.56        28.06516
433.00        28.53118
433.45        28.87181
433.89        29.16845
434.34        29.21273
434.78        28.84216
435.23         28.1556
435.67        27.83361
436.12        28.62808
436.57        28.92708
437.01        28.88398
437.46        28.85935
437.90        28.90626
438.35        28.96918
438.79        28.98228
439.24        28.89006
439.68        28.70902
440.13        28.35347
440.57        28.00692
441.02        28.30605
441.46        29.05919
441.91        29.25858
442.35        28.88622
442.80        28.62235
443.24         28.5055
443.69         28.6036
444.13        28.80375
444.58        28.51979
445.02        27.87954
445.47        27.73799
445.91        28.04191
446.36        28.08908
446.80        27.84803
447.24        27.71778
447.69        27.71929
448.13        27.69988
448.58        27.66516
449.02        27.64388
449.47        27.63386
449.91        27.63465
450.36        27.64721
450.80        27.65746
451.25        27.66806
451.69        27.66965
452.13        27.66463
452.58         27.6468
453.02        27.61924
453.47        27.59276
453.91         27.5714
454.36        27.56225
454.80        27.55037
455.24        27.50269
455.69        27.43109
456.13        27.33671
456.58        27.28907
457.02          27.349
457.46        27.53329
457.91         27.8044
458.35        28.08201
458.79        28.24413
459.24        28.27278
459.68        28.18248
460.13        28.05041
460.57        27.95048
461.01        27.93019
461.46        27.94781
461.90        27.96552
462.34        28.01639
462.79        27.93333
463.23        27.84361
463.68        27.75857
464.12        27.78459
464.56         27.9343
465.01        28.19784
465.45        28.41481
465.89        28.45456
466.34        28.31678
466.78        27.88622
467.22        27.38972
467.67        27.47024
468.11        28.04433
468.55        28.28274
468.99        28.10111
469.44         27.9368
469.88        27.89028
470.32        28.05275
470.77        28.34612
471.21        28.43069
471.65        28.27443
472.10         28.1501
472.54        28.10572
472.98        28.11257
473.42        28.18625
473.87        28.34116
474.31        28.52361
474.75        28.64976
475.20        28.70289
475.64        28.69424
476.08        28.67014
476.52         28.6534
476.97        28.65433
477.41        28.75233
477.85        28.93608
478.29        28.78265
478.74        29.02477
479.18        28.93492
479.62        28.77803
480.06        29.09285
480.50        29.28945
480.95        29.45002
481.39         29.3503
481.83        29.26936
482.27         29.2119
482.72        28.91592
483.16        28.51828
483.60        28.61923
484.04        29.25814
484.48        29.53273
484.93         29.6849
485.37        30.31492
485.81        31.18491
486.25        30.59593
486.69        41.87843
487.14        33.67106
487.58        21.23123
488.02        25.97085
488.46        29.49068
488.90        29.50349
489.34        29.94724
489.79        29.49481
490.23        30.59659
490.67         31.2286
491.11        31.11369
491.55        31.08975
491.99        31.02411
492.43        30.83905
492.88        30.61809
493.32        30.62901
493.76        30.66732
494.20         30.8634
494.64        31.12225
495.08        31.43663
495.52        31.78047
495.96        32.08596
496.41        32.27893
496.85        32.47192
497.29        32.62277
497.73        32.17735
498.17        31.55693
498.61        31.75707
499.05         32.7877
499.49        33.06306
499.93        33.30495
500.37        33.37852
500.82        33.22594
501.26         33.4244
501.70        33.81961
502.14        33.97905
502.58        33.86639
503.02        33.82584
503.46        33.87154
503.90        33.81176
504.34        33.68579
504.78         33.6408
505.22        33.69564
505.66        33.82045
506.10        33.97328
506.54        34.06908
506.98        34.08537
507.42        34.06589
507.86        34.07186
508.30        34.09491
508.74        34.30978
509.18        34.55274
509.62        34.80143
510.06        34.93837
510.50        34.94066
510.94        34.85184
511.38        34.73216
511.82        34.67928
512.26        34.72198
512.70        34.82543
513.14        34.97109
513.58        35.12897
514.02        35.26919
514.46         35.3918
514.90        35.47029
515.34         35.4321
515.78        35.25151
516.22        35.08431
516.66        34.98013
517.10        34.65116
517.54        34.11694
517.98         34.7065
518.42        34.50629
518.86        34.82098
519.30        35.05647
519.74        35.37717
520.18         35.6885
520.62        35.81636
521.06         35.7514
521.50        35.52558
521.93        35.23325
522.37        35.04059
522.81        34.99654
523.25        35.05682
523.69        35.17026
524.13        35.25464
524.57        35.28206
525.01        35.27879
525.45         35.2575
525.89        35.23531
526.32        35.21405
526.76        35.18206
527.20        35.12877
527.64        35.05407
528.08        34.96687
528.52        34.84223
528.96        34.68392
529.40        34.59163
529.83        34.59117
530.27         34.3065
530.71        34.40469
531.15        34.32265
531.59        34.26067
532.03        34.19874
532.46        34.18091
532.90        34.26842
533.34        34.45135
533.78        34.70352
534.22        34.92884
534.66        34.98892
535.09        34.85598
535.53        34.58776
535.97        34.27814
536.41         34.0871
536.85        34.05947
537.28        34.15229
537.72        34.29607
538.16        34.38029
538.60        34.37441
539.04        34.29081
539.47        34.18149
539.91        34.21133
540.35        34.36152
540.79        34.46186
541.22        34.49374
541.66         34.5697
542.10        34.68065
542.54        34.74659
542.97        34.79589
543.41        34.92735
543.85        35.14445
544.29        35.43232
544.72        35.70606
545.16        35.85151
545.60         35.8472
546.04        35.72031
546.47         35.6078
546.91        35.74545
547.35        36.15828
547.79        36.76254
548.22        37.35005
548.66        37.61309
549.10          37.486
549.53        37.04294
549.97        36.53572
550.41        36.34835
550.84        36.56948
551.28        37.06702
551.72        37.68184
552.15        38.15198
552.59        38.38456
553.03        38.46005
553.46        38.44462
553.90         38.4726
554.34         38.5848
554.77        38.69196
555.21         38.7725
555.65        38.91961
556.08        39.14552
556.52        38.95771
556.96        39.26352
557.39        39.31244
557.83        39.38764
558.27        39.45549
558.70        39.54506
559.14        39.68583
559.57        39.86231
560.01        40.08012
560.45        40.27868
560.88        40.36217
561.32        40.34349
561.75        40.23234
562.19        40.11882
562.63        40.08232
563.06        40.13976
563.50        40.28463
563.93        40.46298
564.37        40.60142
564.80        40.66958
565.24        40.71479
565.68        40.74844
566.11        40.79679
566.55        40.90018
566.98        41.00776
567.42        41.14243
567.85         41.4203
568.29        41.83121
568.72        42.05856
569.16        42.19178
569.60        42.69396
570.03        43.03527
570.47        43.16987
570.90        43.22908
571.34        42.12962
571.77        42.90162
572.21        43.31407
572.64        43.00225
573.08        42.67491
573.51         40.8742
573.95        42.73953
574.38         45.7716
574.82        44.66617
575.25         44.5309
575.69        43.01706
576.12         42.4375
576.56        41.88868
576.99        42.74435
577.42        44.96375
577.86           44.76
578.29        44.52924
578.73        47.11998
579.16         43.4918
579.60        39.39234
580.03        40.99905
580.47        43.62604
580.90        44.67669
581.33        43.88456
581.77        43.02331
582.20        47.43582
582.64        47.59708
583.07        40.21641
583.51        39.29351
583.94        38.37475
584.37        39.97503
584.81        41.99812
585.24         44.1724
585.68         45.1326
586.11        44.33738
586.54        41.25861
586.98        40.09068
587.41        40.20565
587.85        42.03868
588.28          43.728
588.71        41.47278
589.15        40.18527
589.58        40.63608
590.01        40.88158
590.45        41.66369
590.88        41.76408
591.31        41.42205
591.75        41.35667
592.18        41.32007
592.61        41.94321
593.05        42.44012
593.48        44.57108
593.91        45.22335
594.35        41.50715
594.78        40.46468
595.21        40.61391
595.65        42.69439
596.08        44.62147
596.51        42.80015
596.94        41.61633
597.38         42.0855
597.81        44.02131
598.24        45.33052
598.68        44.62293
599.11        44.31912
599.54        46.43199
599.97        47.79285
600.41        44.90403
600.84        45.17579
601.27         46.5239
601.70        46.18096
602.14        46.48363
602.57        46.09069
603.00        46.75032
603.43        48.25209
603.87        49.85249
604.30        50.08642
604.73        49.15509
605.16        48.30278
605.60        49.27348
606.03        50.46086
606.46        51.69333
606.89        52.21495
607.32        50.80729
607.76        50.76669
608.19        53.13393
608.62        52.79993
609.05         52.1796
609.48        52.88878
609.92        53.22097
610.35        53.15206
610.78        55.30309
611.21        56.16067
611.64        53.95089
612.07        54.76423
612.50        55.32991
612.94        55.99154
613.37        55.91411
613.80        56.33764
614.23        57.23717
614.66        57.31775
615.09        57.46899
615.52        57.71417
615.96        58.13391
616.39        58.49529
616.82          57.792
617.25        57.78496
617.68        58.56304
618.11        59.33802
618.54        59.94266
618.97        59.72538
619.40        59.03112
619.84        59.17834
620.27        60.20882
620.70        61.03631
621.13        61.45262
621.56        61.02768
621.99        60.10471
622.42        60.89115
622.85        62.91446
623.28        62.75272
623.71        62.13632
624.14        61.93484
624.57         61.7158
625.00        61.41205
625.43        61.69926
625.86        61.15082
626.29        61.09595
626.72        61.88659
627.15        61.19243
627.58        61.12386
628.01        60.90155
628.44        60.87404
628.87        61.04764
629.30        60.57822
629.73        61.08376
630.16        60.86428
630.59        60.40298
631.02        59.79926
631.45        59.17001
631.88        58.62299
632.31        58.18443
632.74        57.83599
633.17        57.53533
633.60        57.22157
634.03        56.87127
634.46        56.51258
634.89        56.13356
635.32        55.70966
635.75        55.24503
636.18        54.74409
636.61        54.24968
637.04        53.83015
637.47        53.49211
637.89        53.22842
638.32        52.98274
638.75        52.66812
639.18        52.26408
639.61        51.91977
640.04        51.45634
640.47         51.0741
640.90        50.72876
641.33        50.41214
641.76          50.118
642.18        49.91551
642.61        49.80863
643.04        49.66794
643.47        49.45045
643.90        49.72419
644.33        49.45543
644.76         49.4827
645.18        49.49516
645.61        49.50451
646.04        49.50044
646.47        49.47409
646.90        49.50109
647.33        49.66577
647.75        49.99852
648.18        50.51065
648.61        51.03027
649.04        51.29472
649.47        51.27552
649.89        50.92717
650.32        50.59849
650.75        51.03501
651.18        52.18784
651.61        53.30133
652.03        54.06218
652.46        54.52951
652.89        54.92592
653.32        54.87477
653.74        54.77579
654.17        56.32595
654.60        57.09999
655.03        56.31083
655.46        56.99172
655.88        61.09188
656.31        65.92753
656.74        154.6588
657.16        101.3905
657.59        35.29818
658.02        26.24656
658.45        45.74758
658.87        58.94791
659.30        61.91575
659.73        61.88925
660.15        59.87075
660.58        62.58368
661.01        64.40447
661.44        62.58149
661.86        62.23425
662.29        62.62914
662.72        63.63456
663.14        64.99937
663.57        65.11004
664.00        64.22751
664.42        64.21674
664.85        65.16638
665.27        65.86459
665.70        66.09299
666.13        66.20358
666.55        66.17171
666.98        65.89312
667.41        65.55359
667.83        65.50909
668.26        65.83923
668.69        66.40806
669.11        66.99316
669.54        67.56626
669.96        67.42209
670.39        67.16764
670.82        66.82659
671.24        66.78626
671.67        67.14177
672.09        67.71051
672.52         68.2298
672.94        68.81549
673.37        68.28958
673.80        68.22231
674.22        68.33695
674.65        68.40842
675.07        68.42477
675.50        68.41366
675.92        68.44532
676.35        68.61575
676.77        68.92841
677.20        69.45948
677.62        69.80641
678.05        70.12305
678.47        70.26517
678.90        70.28238
679.32        70.25787
679.75        70.20011
680.17        70.42309
680.60        70.67504
681.02        70.93266
681.45        70.98565
681.87        70.82449
682.30        70.54317
682.72         70.3023
683.15        70.35091
683.57        70.75092
684.00        71.32122
684.42         72.0154
684.85         72.4527
685.27        72.46767
685.70         72.2806
686.12        71.97497
686.54        71.85209
686.97        71.99403
687.39        72.15383
687.82        72.26141
688.24        72.79512
688.66        73.42765
689.09        73.08361
689.51        72.96453
689.94        72.84596
690.36        73.13448
690.78        73.41972
691.21        73.63276
691.63        73.80831
692.06        73.91439
692.48        73.96838
692.90        74.03386
693.33        74.17091
693.75        74.40344
694.17        74.74699
694.60        75.14001
695.02        75.33098
695.44         75.2972
695.87        75.53826
696.29         76.0199
696.71        75.81081
697.14        75.24052
697.56        75.75926
697.98        77.05181
698.41        77.30789
698.83        76.24347
699.25        75.78513
699.68        75.93729
700.10        75.94267
700.52        75.81886
700.94        75.99959
701.37        76.43172
701.79        76.88168
702.21        77.25901
702.64        77.62666
703.06        77.90159
703.48        77.94814
703.90        77.77194
704.33        77.41422
704.75        77.01312
705.17        76.89108
705.59        77.13091
706.01        77.51983
706.44        77.90858
706.86        78.72358
707.28        78.84353
707.70        79.12305
708.12        79.25973
708.55         79.2839
708.97        79.19252
709.39        78.99058
709.81        78.77743
710.23        78.71281
710.66        78.83936
711.08        79.15146
711.50        79.49744
711.92        79.65409
712.34        79.58465
712.76        79.30167
713.19        78.95744
713.61        78.97707
714.03        79.43976
714.45        79.67378
714.87         80.4588
715.29        80.65176
715.71        80.47536
716.13        80.01575
716.56         79.4978
716.98        79.29041
717.40         79.4721
717.82        79.95337
718.24         80.5388
718.66        80.84229
719.08        80.86327
719.50         80.6303
719.92        80.31885
720.34        80.18858
720.76        80.31359
721.19        80.44879
721.61        80.80674
722.03        81.04215
722.45        81.19309
722.87        81.29361
723.29        81.38393
723.71        81.51492
724.13        81.69265
724.55         81.8933
724.97        82.09298
725.39        82.19137
725.81        82.16306
726.23        82.17278
726.65        82.28987
727.07        81.90984
727.49        82.18448
727.91        82.20715
728.33        82.29939
728.75        82.40943
729.17        82.53025
729.59        82.63218
730.01        82.71961
730.43        82.90246
730.85        83.20251
731.27         83.4815
731.69        83.57786
732.10        84.02686
732.52        83.49571
732.94        83.12839
733.36        82.79352
733.78        82.77757
734.20        83.15292
734.62         84.1767
735.04        85.42609
735.46           85.51
735.88        84.74739
736.30        84.26691
736.72        85.74323
737.13        86.27847
737.55        86.04021
737.97        86.20529
738.39        86.73122
738.81        85.96152
739.23        84.45432
739.65        85.44939
740.06        88.32536
740.48        88.63879
740.90        86.49558
741.32        85.47188
741.74          85.918
742.16        86.15755
742.57        86.26098
742.99         87.1609
743.41         88.5576
743.83        89.42829
744.25        89.58453
744.67        89.28229
745.08        88.80746
745.50        88.63168
745.92        88.90308
746.34        89.44248
746.75        90.06126
747.17        90.45016
747.59        90.55596
748.01        90.49832
748.42         90.4416
748.84         90.6747
749.26        91.27404
749.68        91.91872
750.09        92.51617
750.51        93.37434
750.93         94.2207
751.35         94.0242
751.76        93.02174
752.18        92.66133
752.60        92.93028
753.01        92.83912
753.43        92.49294
753.85         92.5036
754.27        92.86158
754.68        94.48061
755.10         94.9439
755.52        95.73253
755.93        96.07055
756.35        95.99693
756.77        95.74455
757.18        95.67352
757.60        95.92953
758.02        96.66788
758.43        97.24557
758.85        97.13292
759.26        95.02779
759.68        94.22599
760.10        95.41702
760.51        97.74477
760.93        96.16714
761.34        95.40192
761.76        94.76321
762.18        93.88757
762.59        93.26344
763.01        93.56494
763.42        94.80957
763.84        95.87589
764.26        96.54852
764.67        96.94762
765.09        97.01158
765.50        97.10421
765.92        97.08774
766.33         95.6559
766.75        93.31154
767.16        92.99754
767.58        93.00957
768.00         94.7164
768.41        97.10004
768.83        99.11744
769.24        99.90909
769.66        99.05896
770.07        97.22995
770.49        95.21936
770.90        93.67757
771.32        94.76411
771.73        97.63943
772.15        97.17351
772.56        93.89739
772.97         93.3633
773.39        95.44746
773.80        96.14938
774.22        95.19586
774.63        94.98657
775.05         95.5299
775.46        95.82829
775.88        95.78178
776.29        95.79679
776.70        95.69306
777.12        95.76171
777.53        95.96581
777.95        96.18563
778.36        96.33442
778.77         96.2299
779.19         95.9004
779.60        95.51104
780.02        95.18504
780.43        95.03322
780.84        95.29631
781.26        95.71683
781.67        96.29479
782.09        97.99657
782.50        100.0041
782.91        98.89415
783.33        95.67976
783.74        94.63741
784.15        96.01456
784.57        97.05269
784.98        97.29195
785.39        97.21427
785.81         96.8164
786.22        96.23894
786.63        95.83495
787.04        95.87338
787.46        96.41953
787.87        97.51857
788.28        98.76938
788.70        99.33363
789.11        99.03746
789.52         98.2097
789.93         97.2263
790.35        96.51464
790.76        96.28014
791.17        96.62767
791.58        97.31831
792.00        97.73377
792.41        97.72694
792.82        97.48048
793.23        97.28622
793.65        97.27061
794.06        97.58335
794.47        98.90305
794.88        100.4035
795.29        99.92252
795.71        97.13149
796.12        94.91647
796.53        93.73255
796.94        93.04636
797.35        93.07494
797.76        94.47302
798.18        96.57625
798.59        97.86903
799.00        97.89733
799.41        97.06938
799.82        95.87003
800.23        95.10389
800.64        95.00075
801.06        95.20998
801.47        95.65563
801.88        96.10331
802.29        96.43303
802.70        96.74858
803.11        96.99824
803.52        97.06171
803.93        96.95417
804.34        96.67251
804.75        96.34961
805.17        96.38366
805.58        96.90589
805.99        97.28236
806.40        97.40216
806.81        98.35743
807.22        99.46337
807.63        97.92638
808.04        94.57825
808.45          93.158
808.86        93.98654
809.27        95.17059
809.68        96.17384
810.09        96.84985
810.50        96.92628
810.91        96.48349
811.32        95.82016
811.73        95.36877
812.14        95.25128
812.55        95.43526
812.96        95.86198
813.37        96.01308
813.78        95.99605
814.19        96.82163
814.60        98.01693
815.01        98.05587
815.42        96.83437
815.83        95.00114
816.24        93.27846
816.65        92.68571
817.05        93.57475
817.46        95.62181
817.87        97.95808
818.28        99.03213
818.69        98.41521
819.10        96.49084
819.51        94.20437
819.92        93.16386
820.33        93.79377
820.74        95.60529
821.14        97.69556
821.55        98.48788
821.96        97.64088
822.37        95.71384
822.78        93.55587
823.19        92.41366
823.60        92.60696
824.00        93.79578
824.41        95.35468
824.82         96.3429
825.23        96.37984
825.64        95.81874
826.04        94.97926
826.45        94.32058
826.86        93.99511
827.27        93.80125
827.68        93.75304
828.08        93.95271
828.49        94.30489
828.90        94.89858
829.31        95.49846
829.72        95.63347
830.12        95.22992
830.53        94.40192
830.94        93.56458
831.35        93.30927
831.75        93.80364
832.16        94.81395
832.57          96.064
832.97        96.96774
833.38         97.2225
833.79        97.00635
834.20        96.57135
834.60        96.29939
835.01        96.32754
835.42        96.52029
835.82        96.71594
836.23        96.56081
836.64        96.03625
837.04        95.30861
837.45        94.61944
837.86        94.33669
838.26        94.56087
838.67        95.11986
839.08        95.85033
839.48          96.445
839.89         96.7258
840.29        96.78051
840.70         96.6339
841.11        96.30338
841.51        95.83932
841.92        95.22217
842.33        94.58388
842.73        94.16442
843.14        93.98804
843.54        94.05796
843.95        94.21478
844.35        94.25504
844.76        94.09967
845.17        93.81934
845.57        93.49997
845.98        93.29446
846.38        93.23769
846.79        93.24303
847.19        93.28284
847.60        93.20422
848.00        93.02262
848.41        92.76921
848.81        92.52783
849.22        92.33796
849.62        92.28307
850.03        92.36475
850.43        92.62305
850.84        92.98707
851.24        93.48204
851.65        93.87842
852.05        94.39439
852.46        95.18633
852.86        96.23796
853.27        97.52419
853.67        98.32919
854.07        97.71011
854.48        95.69841
854.88        92.63046
855.29        89.68832
855.69        88.59212
856.10        89.67915
856.50        92.72873
856.90        96.63461
857.31        98.83899
857.71        98.52202
858.12        96.38792
858.52          93.689
858.92        92.10777
859.33        92.00385
859.73        92.92023
860.13        94.49145
860.54        95.93691
860.94        96.96853
861.34        97.75172
861.75        98.28185
862.15        98.64546
862.55        98.83482
862.96        98.71897
863.36        98.38534
863.76        97.97599
864.17        97.58387
864.57        97.31599
864.97        97.17152
865.38        97.09621
865.78        97.12358
866.18        97.17723
866.58        97.38615
866.99         97.9329
867.39        98.90392
867.79        100.2834
868.19        101.5547
868.60        101.7643
869.00         100.738
869.40        98.69752
869.80        96.73406
870.21        96.58153
870.61        98.69183
871.01        102.5353
871.41        106.7514
871.81        109.0149
872.22        108.6661
872.62        106.4259
873.02        103.6245
873.42        102.2555
873.82        102.8535
874.22        105.0354
874.63        107.8472
875.03        109.1689
875.43        108.1599
875.83        105.4511
876.23        103.4814
876.63        103.4159
877.03        106.0625
877.44        111.8592
877.84        93.73999
878.24        121.2557
878.64        118.9684
879.04        112.6219
879.44        111.6797
879.84        110.8378
880.24        108.7077
880.64         109.722
881.04        113.0631
881.44           115.3
881.84        114.8906
882.24        112.8407
882.65        110.5207
883.05        109.7518
883.45        110.8681
883.85         113.206
884.25        115.8938
884.65        117.5145
885.05        117.5465
885.45        116.5048
885.85        115.2005
886.25        114.7316
886.65        115.3294
887.05        116.5883
887.45        118.0602
887.85        118.9556
888.25        118.9903
888.65        118.5056
889.04         117.653
889.44        116.7004
889.84        115.7874
890.24        114.8018
890.64        114.0423
891.04        113.9848
891.44         114.649
891.84        115.9375
892.24        117.2721
892.64        117.5742
893.04        116.6801
893.44        115.0696
893.83        113.4365
894.23        112.8184
894.63        113.4107
895.03        114.8147
895.43        116.8575
895.83        119.1745
896.23        121.4239
896.63        123.6474
897.02        125.2153
897.42        125.1258
897.82        123.3321
898.22        120.2033
898.62        116.8343
899.01        114.8411
899.41        114.6346
899.81        115.7486
900.21        117.4757
900.61        118.6214
901.00        118.7996
901.40        118.3662
901.80        117.7016
902.20        117.3967
902.59        117.6167
902.99        118.1146
903.39        118.5739
903.79        118.4997
904.18        117.8047
904.58        116.7608
904.98        115.7899
905.38        115.5148
905.77        116.0094
906.17        116.9958
906.57        118.1298
906.96        118.9633
907.36        119.3017
907.76        119.3154
908.15        118.9644
908.55        118.0672
908.95         116.742
909.34        115.0265
909.74        113.4294
910.14         112.576
910.53        112.6585
910.93        113.6012
911.33        115.0235
911.72        116.1712
912.12        116.6973
912.52        116.7011
912.91        116.5846
913.31        116.9877
913.70        118.0684
914.10        119.6711
914.49         121.226
914.89        121.1071
915.29        118.9936
915.68        115.5905
916.08        112.5037
916.47        111.1682
916.87        111.7515
917.26        113.7428
917.66        116.1828
918.05        117.5097
918.45        117.2389
918.84        115.8738
919.24        114.2495
919.64        113.5723
920.03         114.182
920.42          115.68
920.82        117.4182
921.21        118.5044
921.61        118.4986
922.00        117.7682
922.40        116.7431
922.79         115.876
923.19        115.2901
923.58        115.0748
923.98         115.119
924.37        114.4568
924.77        113.0142
925.16        113.5087
925.55        111.9508
925.95        112.6939
926.34        114.5133
926.74        116.9832
927.13        119.3418
927.52         120.262
927.92        119.6185
928.31        117.8198
928.70        115.4478
929.10        113.4645
929.49        112.1915
929.89        111.4017
930.28          111.31
930.67        112.2656
931.07         114.064
931.46        116.6097
931.85        119.0486
932.24        120.0985
932.64          119.52
933.03        117.6241
933.42        114.8672
933.82        112.4713
934.21        110.9412
934.60         110.061
934.99        109.9032
935.39        110.3141
935.78        111.2385
936.17        113.3745
936.56        116.4566
936.96        115.4903
937.35        114.8884
937.74        111.5519
938.13        108.8642
938.53        108.3382
938.92         109.923
939.31        113.2717
939.70        117.2093
940.09        118.8043
940.49        117.0094
940.88        113.0715
941.27        108.9105
941.66        106.7493
942.05        106.9003
942.44        108.6099
942.84          111.13
943.23        113.2857
943.62         114.455
944.01        114.9757
944.40        115.0534
944.79        115.0029
945.18        114.9341
945.57        114.6152
945.97        113.8717
946.36         112.746
946.75        111.4403
947.14         110.299
947.53        109.5166
947.92        109.1159
948.31        109.0478
948.70        109.2825
949.09        109.8185
949.48        110.5975
949.87        111.4784
950.26        112.3294
950.65        112.9997
951.04         113.349
951.43        113.3286
951.82        112.9389
952.21        112.1488
952.60        110.9821
952.99        109.5516
953.38        107.9518
953.77        106.4555
954.16        105.4025
954.55        104.8764
954.94        104.8761
955.33        105.1359
955.72        105.1781
956.11        104.8905
956.50        104.3519
956.89        104.0042
957.28        104.6352
957.66        106.4644
958.05        108.9927
958.44        111.4571
958.83        112.7549
959.22        112.6242
959.61        111.2783
960.00        109.4441
960.39        108.3205
960.78        108.2423
961.16        109.0133
961.55        109.7469
961.94        108.9646
962.33        106.4783
962.72        102.9812
963.11        99.78715
963.49        98.60371
963.88        99.71404
964.27        102.6956
964.66        106.5128
965.04        108.8505
965.43        108.6325
965.82        106.6527
966.21        104.1369
966.60        102.6947
966.98        102.6723
967.37        103.4944
967.76        104.6344
968.15        105.1328
968.53        104.6676
968.92        103.6423
969.31        102.4803
969.69         101.638
970.08        101.2626
970.47        101.2021
970.86        101.2622
971.24        101.1755
971.63        100.8118
972.02        100.2532
972.40        99.85255
972.79        100.1074
973.17        101.2835
973.56         103.101
973.95        104.9665
974.33         105.702
974.72        104.9481
975.11        103.0953
975.49        101.1166
975.88        100.4272
976.26        101.2342
976.65        103.2443
977.04        105.5718
977.42        105.9899
977.81          103.71
978.19         99.7117
978.58         96.1152
978.96        95.05692
979.35         96.8299
979.74        100.8789
980.12        106.4052
980.51        110.2083
980.89        111.1928
981.28        110.1705
981.66        108.0019
982.05        105.8713
982.43         104.141
982.82        102.5335
983.20        101.5582
983.59         102.172
983.97        104.6177
984.35        108.9134
984.74        113.9254
985.12        117.2702
985.51        117.3292
985.89        114.5452
986.28        110.0915
986.66        106.2072
987.04        104.0464
987.43        103.2692
987.81        103.2733
988.20         103.395
988.58        103.4699
988.96        103.7227
989.35        104.8035
989.73         108.643
990.12        114.4663
990.50        120.3651
990.88        123.6372
991.27        123.3028
991.65         119.864
992.03        113.7939
992.42        106.6728
992.80        101.7383
993.18        100.3564
993.56        101.1736
993.95        102.8639
994.33        104.1091
994.71        104.5064
995.10        104.7957
995.48        104.6769
995.86        103.4908
996.24        101.1679
996.63        97.37833
997.01        93.50834
997.39         93.2821
997.77        98.03493
998.15        106.6055
998.54         115.183
998.92        118.7962
999.30        116.0745
999.68        108.2713
1000.06        97.48108
1000.45        89.11525
1000.83        85.68076
1001.21        85.59438
1001.59        87.62196
1001.97         90.3726
1002.35        93.43543
1002.73        97.98682
1003.12        102.7207
1003.50        103.6412
1003.88        99.01505
1004.26        90.63675
1004.64        83.06421
1005.02        80.55352
1005.40         83.7088
1005.78        93.10331
1006.16        108.7732
1006.54        120.8196
1006.92        120.8296
1007.30        114.0067
1007.69        107.6263
1008.07        106.0311
1008.45        109.9184
1008.83        120.9811
1009.21        146.9341
1009.59        197.7827
1009.97        257.3651
1010.35        237.5326
1010.73        135.8776
1011.11        94.14252
1011.49        89.39167
1011.86        94.43908
1012.24        99.72448
1012.62        102.6661
1013.00        104.0677
1013.38        105.0656
1013.76        108.5243
1014.14        121.4549
1014.52        148.7701
1014.90        191.0742
1015.28         237.352
1015.66        261.0757
1016.04        245.3672
1016.41        193.8624
1016.79        131.3678
1017.17        88.12432
1017.55        69.13022
1017.93        63.10394
1018.31        63.89618
1018.69        68.69315
1019.06        77.17313
1019.44        91.50156
1019.82        115.6064
1020.20        150.6666
1020.58        197.6323
1020.95        262.3479
1021.33          382.84
1021.71       -1550.185
1022.09        -11.8929
1022.46        68.87981
1022.84        94.17287
1023.22        104.8927
1023.60        110.9299
1023.97        115.0311
1024.35        120.3308
1024.73        128.2156
