SpectraSmart Spectrum 2.9.0.0
--------- Device Information -----------
Spectrum Name :  反射率_0
Saving Time :  2024/04/26 00:17:56
Spectro-Module Model Name : SE2030-DUVN
Spectro-Module Serial Number : OS361AC55029948
Wavelength Start : 200
Wavelength End : 1025
Wavelength Unit : Wavelength(nm)
Spectrum Unit : Reflectance(%)
-----------Spectrum Setting ------------
Integration Time : 20ms
Average : 10
Boxcar : 0
Background removal :  enabled
linearity correction :  enabled
SC :  disabled
Intensity correction :  disabled
DWT denoise :  enabled
savitzky-golay :  disabled
FFT :  disabled
Running average :  disabled
Kalman :  disabled
High pass :  disabled
---------------BEGIN--------------------
Wavelength(nm)             Reflectance(%)
200.29               0
200.75        78.15742
201.21        71.98453
201.67        65.35546
202.13        60.92057
202.58        58.87947
203.04        58.90188
203.50        60.06096
203.96        60.70592
204.42        60.39148
204.88         59.6689
205.34        58.99444
205.80         58.8248
206.26        59.37877
206.72         60.9719
207.18        64.34894
207.64        68.12668
208.10        67.44199
208.55        63.80037
209.01        61.30125
209.47        60.94126
209.93        62.02452
210.39        64.43721
210.85        66.66338
211.31        65.51054
211.77        60.41714
212.23        52.67146
212.69        45.98013
213.14        46.10941
213.60         53.6722
214.06        66.99505
214.52        81.27009
214.98        89.12194
215.44        88.79622
215.90        82.66248
216.36        74.35944
216.81        69.01907
217.27        68.02061
217.73        69.56017
218.19        71.08445
218.65        69.15362
219.11        62.52949
219.57        50.78134
220.02        35.50047
220.48        26.20315
220.94        28.51082
221.40        39.81615
221.86        51.61494
222.32        55.00569
222.77         50.5482
223.23        42.89019
223.69        36.14322
224.15        34.47088
224.61        37.53771
225.06        43.22913
225.52        49.02384
225.98        51.95843
226.44        51.42159
226.90         48.8017
227.36        45.43657
227.81        43.00471
228.27        42.27877
228.73        42.51109
229.19         43.4655
229.65        44.80199
230.10        46.22979
230.56        47.80473
231.02        49.28321
231.48          50.375
231.93        51.06142
232.39        51.38665
232.85        51.55548
233.31        51.97069
233.77         52.6577
234.22        53.47558
234.68        54.01939
235.14        53.49706
235.60        51.81001
236.05         49.4255
236.51        46.89817
236.97        44.81705
237.43        43.34052
237.88        42.35751
238.34        42.10672
238.80         43.2265
239.26        45.82988
239.71        49.79606
240.17        54.00441
240.63        56.95999
241.08        58.23638
241.54        58.02012
242.00        56.90939
242.46         55.7564
242.91        54.80564
243.37        53.11685
243.83         51.2067
244.28        60.77137
244.74        99.67198
245.20        113.6468
245.66        108.9155
246.11        105.7577
246.57        104.0439
247.03        100.7008
247.48        77.93821
247.94        37.51948
248.40        48.94429
248.85        58.28418
249.31        63.71252
249.77        67.80101
250.22        72.17142
250.68        78.51521
251.14        86.57183
251.59        90.08665
252.05        84.12191
252.51        72.16254
252.96        60.47749
253.42        54.67636
253.88        54.04696
254.33        56.37336
254.79        61.12697
255.25        66.87964
255.70        72.16189
256.16        77.00224
256.62        79.54673
257.07        77.86507
257.53        73.10023
257.99        66.31121
258.44        59.79617
258.90        57.02985
259.35        57.14041
259.81        58.57965
260.27        59.32061
260.72        57.44724
261.18        53.58724
261.63        48.61488
262.09        43.96877
262.55        40.67958
263.00        38.77426
263.46         37.8349
263.91        37.15639
264.37        36.20128
264.83        34.81479
265.28        33.10031
265.74        31.54707
266.19        30.64812
266.65        30.52811
267.11         30.8556
267.56        31.13977
268.02        30.78676
268.47        29.71919
268.93          28.157
269.38        26.43693
269.84        25.35991
270.30        25.12988
270.75        25.51197
271.21        26.09855
271.66        26.28579
272.12        25.90204
272.57        25.14303
273.03        24.27924
273.48        23.63876
273.94        23.33788
274.39        23.22822
274.85        23.16908
275.31         22.9608
275.76        22.55223
276.22         22.0481
276.67        21.54153
277.13        21.23619
277.58        21.11672
278.04        21.12293
278.49        21.10616
278.95        20.90845
279.40        20.48307
279.86        19.94607
280.31        19.35692
280.77        18.90211
281.22        18.59302
281.68        18.39656
282.13        18.27786
282.59        18.21146
283.04        18.17147
283.50         18.1839
283.95        18.18792
284.41        18.10061
284.86        17.90519
285.32        17.63175
285.77        17.36714
286.22         17.3001
286.68        17.43524
287.13        17.69334
287.59         17.9239
288.04        17.90319
288.50         17.6132
288.95        17.12421
289.41        16.58958
289.86        16.14438
290.32        15.87996
290.77         15.7389
291.22        15.71883
291.68        15.77942
292.13        15.90727
292.59        16.11351
293.04        16.38858
293.50        16.71394
293.95        17.06447
294.40        17.40647
294.86        17.71546
295.31        17.97161
295.77        18.17614
296.22        18.34719
296.68        18.47968
297.13         18.5384
297.58        18.55206
298.04        18.55414
298.49        18.63902
298.95        18.98002
299.40        19.58587
299.85         20.3881
300.31        21.23454
300.76        21.89707
301.21        22.29651
301.67        22.51804
302.12        22.61007
302.58        22.69062
303.03        22.78959
303.48        22.88204
303.94        23.02858
304.39        23.29517
304.84        23.68547
305.30        24.17244
305.75        24.63348
306.20         24.8811
306.66        24.89776
307.11        24.73276
307.57        24.51466
308.02        24.37459
308.47        24.37705
308.93        24.48017
309.38        24.64702
309.83         24.8459
310.29        25.04209
310.74        25.23358
311.19        25.39571
311.65        25.48913
312.10        25.50363
312.55        25.44849
313.00        25.31284
313.46        25.09351
313.91        24.80058
314.36         24.4633
314.82        24.16747
315.27        24.02983
315.72        24.07267
316.18        24.25613
316.63        24.49313
317.08        24.61565
317.53        24.57267
317.99         24.4004
318.44        24.17374
318.89         24.0159
319.35          23.955
319.80        23.95846
320.25        23.95547
320.70        23.83526
321.16        23.57803
321.61        23.22615
322.06        22.86478
322.51        22.61726
322.97        22.50067
323.42         22.4817
323.87        22.47466
324.32        22.33984
324.78        22.04359
325.23        21.63704
325.68         21.1989
326.13        20.85744
326.59        20.64897
327.04        20.55529
327.49        20.52865
327.94        20.48896
328.39        20.41228
328.85        20.31627
329.30        20.25653
329.75        20.29574
330.20        20.44244
330.66        20.64393
331.11        20.85713
331.56         20.9778
332.01        20.97284
332.46        20.85752
332.92        20.66582
333.37         20.4826
333.82        20.33955
334.27        20.23756
334.72        20.14588
335.17        20.00916
335.63        19.81974
336.08        19.60024
336.53        19.43544
336.98        19.45763
337.43        19.68076
337.88        20.06178
338.34        20.43048
338.79        20.55357
339.24        20.35684
339.69        19.90859
340.14        19.40566
340.59        19.19426
341.05        19.35021
341.50        19.76181
341.95        20.23817
342.40        20.50026
342.85        20.47978
343.30        20.27436
343.75        19.96586
344.20        19.69752
344.66        19.52651
345.11        19.37709
345.56        19.26769
346.01        19.22543
346.46        19.23812
346.91        19.32326
347.36        19.36995
347.81        19.19153
348.26        18.78089
348.72        18.22973
349.17         17.7008
349.62        17.54465
350.07         17.8311
350.52        18.43025
350.97        19.14403
351.42        19.67082
351.87        19.91674
352.32        19.96335
352.77        19.85819
353.22        19.68465
353.67        19.48385
354.13          19.229
354.58        18.95287
355.03        18.74797
355.48        18.63438
355.93        18.61688
356.38        18.62079
356.83        18.51052
357.28        18.26138
357.73        17.90982
358.18        17.56429
358.63        17.39598
359.08        17.43653
359.53        17.63162
359.98        17.84782
360.43        17.87907
360.88        17.68352
361.33        17.32429
361.78        16.93975
362.23        16.75607
362.68        16.81662
363.13        17.03011
363.58        17.26247
364.03        17.30761
364.48        17.11651
364.93        16.77409
365.38        16.35065
365.83         15.9541
366.28          15.636
366.73        15.36268
367.18        15.17506
367.63        15.14257
368.08        15.25543
368.53        15.48454
368.98        15.72079
369.43         15.7872
369.88        15.64839
370.33        15.36106
370.78         15.0009
371.23        14.70527
371.68        14.52608
372.13        14.41762
372.58        14.39583
373.03        14.48271
373.48        14.65731
373.93        14.91275
374.38         15.1404
374.83        15.16899
375.28        14.97149
375.72        14.58421
376.17        14.15881
376.62        13.90764
377.07        13.89055
377.52        14.04408
377.97        14.26912
378.42        14.40229
378.87        14.39392
379.32        14.29613
379.77        14.16306
380.22        14.06958
380.67         14.0346
381.11        14.03009
381.56        14.01829
382.01        13.95229
382.46        13.82171
382.91        13.64578
383.36        13.46878
383.81         13.3555
384.26        13.32146
384.71        13.35125
385.15        13.38598
385.60        13.34544
386.05         13.2103
386.50        12.99879
386.95        12.78507
387.40        12.69722
387.85        12.75878
388.29        12.91985
388.74        13.07949
389.19        13.09805
389.64        12.95835
390.09         12.7015
390.54        12.42843
390.98        12.30817
391.43        12.38789
391.88        12.59989
392.33        12.82957
392.78        12.90925
393.23        12.81317
393.67        12.59909
394.12        12.37803
394.57        12.25701
395.02        12.26168
395.47        12.35082
395.91        12.47812
396.36        12.54693
396.81        12.52736
397.26        12.43695
397.71        12.31648
398.15        12.21115
398.60        12.15319
399.05        12.13505
399.50        12.10568
399.95        11.95812
400.39        11.73772
400.84        11.43299
401.29        11.16118
401.74        11.11073
402.18        11.33088
402.63        11.74181
403.08        12.19274
403.53        12.44402
403.97        12.43455
404.42        12.23245
404.87        11.94637
405.32        11.76819
405.76        11.75572
406.21        11.84801
406.66        11.97877
407.11        12.05988
407.55        12.07066
408.00        12.04046
408.45        11.99067
408.90        11.94777
409.34        11.92301
409.79        11.90084
410.24        11.88334
410.68        11.87684
411.13        11.88427
411.58        11.91324
412.03        11.94535
412.47        11.94883
412.92        11.91041
413.37        11.83522
413.81        11.76789
414.26        11.79173
414.71        11.90868
415.15        12.09665
415.60         12.2621
416.05        12.27397
416.49        12.10612
416.94         11.8132
417.39        11.48868
417.83        11.29387
418.28        11.28203
418.73        11.39324
419.17        11.56827
419.62         11.7073
420.07        11.78096
420.51        11.82025
420.96        11.81674
421.41        11.75229
421.85        11.63073
422.30        11.47045
422.74        11.31304
423.19         11.2486
423.64        11.28004
424.08         11.3953
424.53        11.52997
424.98         11.5924
425.42        11.55976
425.87         11.4508
426.31        11.31484
426.76        11.26667
427.21        11.30981
427.65        11.33654
428.10        11.36043
428.54        11.46804
428.99        11.65239
429.44        11.87217
429.88        12.04139
430.33        12.05775
430.77        11.91005
431.22        11.62467
431.66         11.3339
432.11        11.29278
432.56        11.51823
433.00          11.879
433.45        12.21515
433.89        12.40432
434.34        12.35673
434.78        12.00555
435.23        11.58288
435.67        11.51623
436.12        11.77618
436.57        11.94169
437.01        11.92432
437.46        11.87314
437.90        11.79393
438.35        11.64846
438.79        11.48105
439.24        11.39359
439.68        11.40922
440.13        11.44634
440.57        11.49166
441.02        11.67986
441.46        11.90382
441.91         11.7654
442.35        11.35354
442.80        11.14134
443.24        11.11751
443.69         11.1057
444.13        11.06172
444.58        10.92273
445.02        10.73321
445.47        10.73385
445.91        10.87774
446.36        10.89219
446.80        10.75505
447.24         10.6127
447.69        10.51177
448.13         10.4517
448.58        10.44891
449.02        10.50363
449.47        10.56125
449.91         10.5316
450.36        10.40397
450.80         10.2044
451.25        10.01973
451.69        9.975017
452.13        10.09337
452.58        10.31791
453.02        10.56276
453.47        10.68904
453.91        10.66785
454.36        10.54731
454.80        10.37777
455.24        10.24676
455.69        10.19257
456.13        10.17828
456.58        10.21345
457.02        10.29802
457.46        10.42606
457.91        10.59323
458.35        10.75227
458.79        10.81434
459.24        10.77363
459.68        10.64406
460.13        10.50094
460.57        10.43167
461.01        10.47009
461.46        10.57956
461.90        10.71517
462.34        10.79048
462.79        10.78396
463.23        10.72002
463.68        10.64602
464.12        10.63672
464.56        10.71541
465.01        10.85852
465.45        11.00045
465.89        11.08436
466.34         11.1045
466.78        11.01727
467.22        10.89899
467.67        10.98598
468.11        11.24055
468.55        11.33482
468.99        11.24491
469.44        11.16453
469.88        11.14214
470.32        11.20979
470.77        11.33286
471.21        11.37539
471.65        11.31967
472.10        11.28026
472.54        11.27159
472.98        11.28338
473.42        11.32337
473.87        11.39743
474.31        11.48387
474.75         11.5418
475.20        11.56579
475.64         11.5583
476.08         11.5492
476.52        11.58574
476.97        11.67592
477.41        11.80859
477.85        11.93775
478.29        12.01198
478.74        12.02126
479.18        11.92237
479.62         11.7738
480.06        11.86563
480.50         11.9669
480.95        12.09136
481.39        12.11877
481.83        12.11402
482.27        12.07232
482.72        11.90982
483.16         11.7021
483.60        11.73437
484.04        12.02599
484.48        12.20118
484.93        12.39896
485.37        12.79459
485.81        13.28674
486.25        13.39718
486.69        17.60536
487.14        13.92255
487.58        9.349503
488.02        11.37987
488.46        12.89035
488.90        12.87326
489.34        12.89101
489.79        12.85004
490.23        13.60262
490.67        14.08791
491.11        14.07433
491.55        13.91474
491.99        13.62317
492.43        13.40328
492.88        13.33716
493.32        13.38528
493.76        13.44558
494.20        13.62709
494.64        13.87917
495.08        14.16896
495.52        14.46749
495.96        14.74958
496.41        14.96269
496.85        15.09292
497.29        15.14332
497.73        14.97663
498.17        14.77828
498.61        14.91432
499.05        15.39159
499.49        15.50051
499.93        15.61373
500.37         15.7518
500.82        15.85252
501.26        16.04618
501.70        16.24639
502.14        16.32752
502.58        16.29188
503.02        16.30048
503.46         16.3651
503.90        16.39015
504.34        16.38068
504.78         16.3865
505.22        16.41251
505.66        16.45491
506.10        16.49613
506.54        16.50388
506.98        16.47742
507.42        16.43079
507.86        16.40911
508.30        16.48188
508.74        16.65508
509.18        16.89629
509.62        17.14904
510.06        17.32002
510.50        17.38425
510.94        17.37822
511.38        17.32427
511.82        17.25871
512.26         17.2031
512.70        17.14287
513.14        17.11925
513.58        17.20028
514.02        17.37938
514.46        17.62786
514.90        17.86028
515.34        17.90339
515.78        17.69794
516.22        17.45782
516.66        17.28044
517.10        16.85562
517.54        16.21882
517.98        17.03929
518.42        16.83211
518.86        17.17719
519.30        17.31264
519.74        17.48265
520.18        17.64211
520.62        17.68515
521.06        17.62794
521.50        17.47454
521.93        17.28293
522.37        17.16346
522.81        17.14234
523.25        17.18936
523.69         17.2696
524.13        17.32603
524.57         17.3389
525.01        17.32735
525.45        17.29331
525.89        17.23867
526.32        17.16738
526.76        17.07783
527.20        16.98389
527.64        16.91681
528.08        16.88476
528.52         16.8634
528.96        16.83367
529.40        16.80993
529.83         16.7968
530.27        16.62312
530.71        16.61981
531.15        16.52403
531.59        16.44091
532.03        16.35987
532.46        16.31453
532.90        16.36146
533.34        16.49409
533.78        16.68621
534.22        16.87144
534.66        16.95331
535.09        16.90688
535.53        16.76723
535.97        16.57781
536.41         16.4131
536.85        16.30327
537.28        16.23694
537.72        16.20451
538.16        16.18829
538.60        16.18409
539.04         16.1874
539.47        16.21553
539.91        16.33199
540.35        16.51745
540.79        16.68869
541.22        16.81484
541.66        16.91619
542.10         16.9844
542.54        16.98915
542.97        16.97023
543.41        17.02143
543.85        17.15721
544.29        17.36221
544.72        17.57991
545.16         17.7275
545.60        17.78736
546.04        17.78024
546.47        17.78352
546.91        17.92877
547.35        18.22555
547.79        18.62817
548.22        19.01878
548.66        19.19673
549.10        19.13861
549.53        18.94406
549.97        18.73477
550.41        18.64555
550.84        18.72566
551.28        18.94612
551.72        19.26455
552.15        19.59928
552.59        19.90331
553.03        20.18723
553.46        20.43096
553.90        20.62188
554.34        20.76577
554.77        20.84124
555.21        20.85505
555.65        20.88604
556.08        20.95817
556.52        20.80279
556.96        20.93135
557.39        20.98575
557.83        21.11873
558.27        21.29971
558.70        21.49869
559.14        21.65039
559.57        21.72827
560.01        21.75938
560.45        21.75028
560.88        21.71278
561.32        21.67668
561.75        21.62827
562.19        21.59773
562.63        21.60253
563.06        21.64355
563.50        21.71819
563.93        21.81532
564.37        21.93344
564.80        22.05504
565.24        22.17021
565.68        22.26805
566.11        22.35319
566.55        22.44255
566.98        22.51749
567.42        22.61187
567.85        22.78686
568.29        23.05568
568.72        23.30957
569.16        23.54813
569.60        23.88293
570.03         24.2062
570.47        24.23847
570.90         24.0901
571.34        23.86743
571.77        24.24417
572.21        24.35436
572.64        24.42774
573.08        24.25937
573.51        23.49057
573.95        24.53731
574.38         26.0914
574.82        25.33987
575.25        25.20349
575.69        24.39299
576.12         24.1791
576.56        23.98943
576.99        24.59461
577.42        25.80375
577.86        25.81977
578.29        25.57643
578.73        26.79666
579.16         24.6214
579.60        22.55143
580.03        23.60457
580.47        25.22472
580.90        25.47477
581.33        25.09047
581.77        24.85574
582.20        26.88914
582.64        26.58997
583.07        22.63932
583.51        22.11802
583.94        21.59532
584.37        22.37609
584.81        23.30295
585.24        24.45073
585.68         25.0895
586.11        24.47173
586.54        22.94287
586.98        22.19851
587.41        22.46274
587.85        23.55506
588.28        23.97549
588.71        22.81831
589.15        22.10812
589.58         22.6168
590.01        22.86153
590.45        23.33365
590.88        23.27188
591.31        22.90207
591.75        22.71474
592.18        22.76934
592.61        23.34754
593.05        23.70747
593.48        24.80715
593.91        25.06136
594.35        22.91155
594.78        22.65204
595.21        22.95179
595.65        24.02013
596.08        24.63843
596.51        23.77711
596.94        23.51216
597.38        24.01265
597.81        25.07578
598.24        25.58111
598.68        25.43443
599.11         25.2824
599.54        26.52905
599.97        27.37941
600.41        26.36417
600.84        26.85152
601.27        27.55796
601.70        27.37602
602.14        27.48635
602.57        27.41682
603.00         28.1297
603.43        29.22413
603.87        30.28733
604.30         30.5255
604.73        30.08658
605.16        29.98455
605.60        30.69636
606.03        31.67476
606.46        32.69363
606.89        32.81867
607.32        32.47347
607.76        32.68116
608.19        34.16304
608.62         34.0501
609.05        33.83159
609.48        34.37048
609.92         34.5547
610.35        34.78885
610.78        36.49169
611.21        37.04021
611.64        35.83233
612.07        36.46202
612.50        36.96172
612.94        37.48516
613.37        37.47929
613.80        37.87685
614.23        38.41363
614.66        38.68915
615.09        39.15352
615.52        39.43557
615.96        39.61402
616.39        39.94149
616.82        39.65458
617.25        39.80819
617.68        40.55452
618.11        41.02731
618.54        41.23755
618.97        41.17023
619.40        41.04055
619.84        41.29902
620.27        42.04752
620.70        42.60561
621.13        42.89495
621.56        42.67465
621.99        42.16719
622.42        42.71736
622.85        44.01256
623.28        43.90483
623.71        43.74158
624.14         43.6146
624.57        43.64605
625.00        43.65866
625.43        43.62858
625.86        43.09244
626.29         42.8769
626.72        43.24302
627.15        42.70943
627.58        42.67927
628.01        42.61527
628.44        42.50495
628.87        42.33464
629.30        42.17257
629.73        41.98831
630.16        41.81837
630.59        41.34283
631.02        40.89098
631.45        40.40906
631.88        39.94431
632.31        39.51035
632.74        39.09919
633.17        38.70664
633.60        38.31641
634.03        37.92362
634.46        37.53667
634.89        37.14059
635.32        36.70914
635.75        36.24174
636.18        35.74838
636.61        35.25548
637.04        34.80273
637.47        34.39538
637.89        34.02151
638.32        33.65719
638.75        33.28442
639.18        32.90292
639.61        32.53176
640.04        32.17206
640.47        31.81797
640.90        31.47418
641.33        31.13945
641.76        30.83544
642.18        30.64546
642.61        30.57747
643.04         30.5356
643.47        30.45968
643.90        30.64657
644.33        30.44718
644.76         30.3979
645.18        30.32909
645.61        30.29036
646.04        30.28872
646.47        30.30705
646.90        30.39531
647.33        30.60881
647.75         30.9648
648.18        31.47299
648.61        31.99985
649.04        32.34254
649.47        32.47208
649.89        32.33946
650.32         32.2081
650.75        32.66075
651.18        33.65157
651.61        34.60931
652.03        35.31112
652.46         35.7103
652.89        36.02936
653.32        36.25802
653.74        36.61088
654.17        37.74677
654.60         38.9641
655.03        37.86245
655.46        38.98639
655.88        42.09119
656.31        45.37715
656.74        104.9323
657.16        68.34975
657.59        24.13555
658.02        18.28749
658.45          32.366
658.87        41.25617
659.30        44.22983
659.73        43.82874
660.15        42.36233
660.58        44.61106
661.01        46.13325
661.44        45.11291
661.86        45.02246
662.29        45.39009
662.72        46.22144
663.14        47.36481
663.57        47.64045
664.00        47.20314
664.42        47.35057
664.85        48.15309
665.27        48.78408
665.70        49.07523
666.13        49.24302
666.55        49.26831
666.98        49.09319
667.41         48.8717
667.83        48.88706
668.26         49.2044
668.69        49.71919
669.11        50.23934
669.54        50.69759
669.96        50.55968
670.39        50.30022
670.82        49.97681
671.24        49.94258
671.67         50.2855
672.09         50.8477
672.52        51.39599
672.94        51.96701
673.37        51.65253
673.80        51.65096
674.22        51.76865
674.65        51.86165
675.07         51.9306
675.50        51.97655
675.92        52.03753
676.35         52.1879
676.77         52.4281
677.20        52.71632
677.62        53.03354
678.05        53.20198
678.47        53.30686
678.90        53.55624
679.32        53.53595
679.75        53.58297
680.17        53.77689
680.60        53.93913
681.02        54.09564
681.45        54.16039
681.87         54.1338
682.30        54.09483
682.72        54.08884
683.15         54.0695
683.57        54.13875
684.00        54.46953
684.42        55.16552
684.85        55.54044
685.27        55.59042
685.70         55.5569
686.12        55.50606
686.54        55.51281
686.97        55.60859
687.39        55.75301
687.82        55.87148
688.24        56.07594
688.66        56.03848
689.09        56.01198
689.51         55.9794
689.94        56.06992
690.36        56.29275
690.78        56.54744
691.21         56.7777
691.63        56.94934
692.06        57.04565
692.48        57.06853
692.90         57.0732
693.33        57.15258
693.75        57.32497
694.17        57.55861
694.60        57.82446
695.02        58.03781
695.44        58.13974
695.87        58.36382
696.29        58.68437
696.71        58.43334
697.14        57.85318
697.56        58.34123
697.98        59.62671
698.41        59.63174
698.83        58.95152
699.25        58.53881
699.68        58.66791
700.10        58.71171
700.52        58.69487
700.94        58.94492
701.37        59.38595
701.79         59.8083
702.21        60.12488
702.64        60.39124
703.06         60.5563
703.48        60.53619
703.90        60.34454
704.33        60.01369
704.75        59.65693
705.17        59.50383
705.59        59.61006
706.01        59.87702
706.44        60.22496
706.86        60.65826
707.28        60.91789
707.70        61.18443
708.12        61.37937
708.55        61.40992
708.97        61.29898
709.39        61.21046
709.81        61.18742
710.23        61.15687
710.66        61.13551
711.08        61.28907
711.50        61.43716
711.92        61.52262
712.34        61.48917
712.76        61.37225
713.19         61.2639
713.61        61.33779
714.03        61.61176
714.45        62.02649
714.87          62.429
715.29        62.57995
715.71        62.43487
716.13        62.07669
716.56        61.66722
716.98        61.49277
717.40        61.61888
717.82        61.96736
718.24        62.41672
718.66        62.72524
719.08        62.81418
719.50        62.87611
719.92        62.73508
720.34        62.66492
720.76        62.63868
721.19         62.5325
721.61         62.5563
722.03        62.59962
722.45        62.71637
722.87        62.93705
723.29        63.24752
723.71        63.36967
724.13        63.59117
724.55           63.73
724.97        63.90491
725.39        63.79646
725.81        63.97762
726.23        63.98244
726.65         63.9802
727.07         63.9683
727.49        63.95998
727.91        63.96554
728.33        63.97816
728.75        63.99826
729.17        64.02443
729.59        64.04549
730.01        64.09224
730.43        64.23898
730.85        64.49886
731.27        64.81118
731.69        65.05013
732.10        65.34659
732.52        65.10562
732.94        64.85923
733.36        64.63042
733.78        64.61413
734.20        64.85481
734.62        65.58594
735.04        66.52172
735.46        66.52358
735.88        65.78809
736.30        65.81922
736.72        66.67124
737.13        67.08761
737.55        66.86452
737.97         67.0657
738.39         67.5985
738.81        67.01596
739.23        65.72487
739.65        66.23161
740.06        68.14869
740.48        68.26133
740.90        66.69372
741.32        66.08978
741.74        66.66428
742.16        67.08503
742.57        67.36891
742.99        68.09592
743.41        69.29533
743.83        69.93459
744.25        69.95259
744.67        69.53708
745.08        68.96897
745.50        68.71086
745.92        68.90305
746.34        69.40789
746.75        70.00319
747.17        70.30876
747.59        70.25188
748.01        69.96832
748.42        69.70844
748.84        69.83614
749.26        70.45043
749.68         71.4108
750.09        72.43809
750.51        73.12559
750.93        73.31002
751.35        72.88363
751.76         72.1088
752.18         71.7495
752.60        71.84505
753.01        71.83317
753.43        71.72601
753.85        71.91312
754.27        72.39066
754.68        73.17539
755.10        73.75976
755.52        74.31904
755.93        74.66689
756.35        74.75311
756.77        74.68232
757.18        74.71339
757.60        74.95456
758.02        75.32982
758.43        75.38093
758.85        75.76689
759.26        73.87405
759.68        73.21759
760.10        74.81715
760.51        75.76485
760.93        75.44602
761.34        74.01231
761.76        74.09938
762.18        73.22495
762.59        72.50641
763.01        72.84984
763.42        74.19061
763.84        75.03801
764.26        75.19539
764.67        75.36888
765.09        75.52508
765.50         75.4851
765.92        75.22578
766.33        74.14388
766.75        72.88351
767.16        72.60561
767.58        73.00535
768.00        74.30113
768.41        76.00124
768.83        77.23765
769.24        77.48748
769.66        76.76324
770.07        75.53017
770.49        74.05435
770.90        72.82966
771.32        73.75618
771.73         76.1691
772.15        75.93345
772.56        73.44092
772.97        73.01504
773.39        74.58299
773.80        75.14861
774.22        74.47745
774.63        74.22791
775.05         74.4154
775.46         74.4851
775.88        74.38664
776.29        74.22342
776.70        74.05715
777.12        74.07094
777.53        74.29546
777.95        74.60226
778.36        74.86282
778.77         74.8717
779.19        74.65039
779.60        74.21942
780.02        73.71317
780.43        73.67326
780.84        74.27406
781.26        74.01807
781.67        74.37106
782.09        75.60749
782.50        77.46304
782.91         76.6264
783.33        73.84747
783.74        72.99915
784.15        74.24911
784.57        75.20232
784.98        75.45434
785.39        75.45312
785.81        75.17249
786.22        74.64635
786.63        74.20087
787.04        74.18285
787.46        74.65526
787.87        75.59129
788.28        76.67252
788.70        77.21374
789.11        77.06015
789.52        76.57556
789.93        75.99168
790.35        75.32403
790.76        74.81236
791.17        75.05833
791.58        75.87159
792.00        76.19981
792.41        75.89004
792.82        75.69563
793.23        75.77755
793.65        75.32053
794.06         74.7188
794.47        75.96272
794.88         78.2369
795.29        78.13046
795.71        75.80877
796.12        73.86914
796.53        72.91193
796.94        72.38946
797.35        72.48307
797.76        73.62502
798.18        75.23705
798.59        76.18075
799.00         76.0919
799.41        75.23818
799.82        74.08887
800.23        73.44468
800.64        73.51018
801.06        73.95941
801.47        74.62527
801.88        75.13309
802.29         75.3274
802.70        75.33755
803.11        75.23526
803.52        75.08447
803.93        74.93891
804.34        74.84357
804.75        74.79639
805.17         74.6776
805.58        74.64982
805.99        74.88866
806.40        75.28869
806.81        75.99333
807.22        76.53089
807.63        75.41123
808.04        73.22711
808.45        72.34278
808.86        72.97386
809.27        73.90468
809.68        74.72981
810.09        75.24738
810.50        75.25483
810.91        74.83363
811.32        74.22347
811.73        73.81791
812.14        73.73007
812.55        73.80325
812.96         74.0088
813.37        74.28634
813.78        74.58111
814.19        74.97746
814.60        75.26014
815.01        75.07948
815.42        74.40786
815.83        73.30081
816.24        72.21914
816.65        71.97941
817.05        72.80018
817.46        74.40838
817.87        76.15608
818.28        76.88597
818.69         76.2936
819.10        74.68565
819.51        72.78892
819.92        71.84473
820.33        72.19406
820.74        73.44479
821.14        74.98136
821.55        75.75039
821.96        75.46432
822.37        74.38773
822.78        73.04372
823.19        72.29672
823.60        72.35783
824.00        72.95091
824.41        73.72526
824.82        74.24551
825.23         74.3105
825.64        74.09715
826.04        73.75733
826.45        73.49171
826.86        73.36637
827.27           73.28
827.68        73.22702
828.08        73.24816
828.49         73.2846
828.90        73.40819
829.31        73.53123
829.72        73.47494
830.12        73.23441
830.53        72.83364
830.94        72.49268
831.35        72.51367
831.75        72.98466
832.16        73.76158
832.57        74.64068
832.97         75.1852
833.38        75.19572
833.79        74.80785
834.20        74.27885
834.60        73.99608
835.01         74.0846
835.42        74.41914
835.82        74.81245
836.23        74.87315
836.64        74.54107
837.04         73.9601
837.45        73.35238
837.86        73.06839
838.26         73.1997
838.67        73.59767
839.08        74.09468
839.48        74.38782
839.89        74.35093
840.29        74.10765
840.70        73.75036
841.11        73.39569
841.51        73.10638
841.92        72.82274
842.33          72.616
842.73           72.62
843.14        72.80861
843.54        73.17867
843.95          73.547
844.35        73.66593
844.76        73.46075
845.17        73.02266
845.57        72.49361
845.98        72.10184
846.38        71.91686
846.79        71.85467
847.19        71.89892
847.60        71.93661
848.00        71.96157
848.41        71.97941
848.81        72.01085
849.22        72.00217
849.62        71.99969
850.03        72.02297
850.43        72.10604
850.84        72.24373
851.24        72.47156
851.65        72.60169
852.05        72.84006
852.46        73.35271
852.86        74.13515
853.27        75.15658
853.67        75.80258
854.07        75.25404
854.48         73.5232
854.88        70.90923
855.29        68.36997
855.69        67.29807
856.10        67.97406
856.50         70.2009
856.90        73.14746
857.31        74.87873
857.71        74.76003
858.12        73.29607
858.52        71.39268
858.92        70.23839
859.33        70.09711
859.73        70.62341
860.13        71.56881
860.54        72.42262
860.94        73.00645
861.34        73.46887
861.75        73.79917
862.15        74.05445
862.55        74.22283
862.96        74.22221
863.36        74.14786
863.76        74.16689
864.17        74.31718
864.57        74.62676
864.97        74.98042
865.38        75.17546
865.78        75.21883
866.18        75.08538
866.58        74.93386
866.99        75.02831
867.39        75.47329
867.79         76.2234
868.19        76.91281
868.60        76.85872
869.00        75.92461
869.40        74.34904
869.80        72.88879
870.21        72.71322
870.61         74.1592
871.01        76.84644
871.41        79.93707
871.81        81.99106
872.22        82.56724
872.62        82.04619
873.02        81.04437
873.42        80.75103
873.82        81.26035
874.22         81.8123
874.63        82.20089
875.03        82.16343
875.43        81.54931
875.83        81.61037
876.23        80.18163
876.63        79.51643
877.03        79.38056
877.44        79.96355
877.84        105.5439
878.24        86.76618
878.64        87.75459
879.04        88.81277
879.44        84.56381
879.84        82.42667
880.24        86.97002
880.64        88.91188
881.04        89.18148
881.44        89.06287
881.84        88.28847
882.24        86.96584
882.65        85.81573
883.05        85.37276
883.45        85.72537
883.85         87.0068
884.25        88.69174
884.65        89.55209
885.05        89.25917
885.45        88.23894
885.85        87.12682
886.25        86.80672
886.65        87.46025
887.05        88.76542
887.45        90.35657
887.85        91.57977
888.25        92.14533
888.65        92.24441
889.04        91.96758
889.44         91.5099
889.84        90.96236
890.24        90.25881
890.64        89.52782
891.04        88.98026
891.44        88.65366
891.84        88.55133
892.24        88.54653
892.64        88.36259
893.04        87.99558
893.44        87.61793
893.83        87.38021
894.23        87.51398
894.63        88.03608
895.03        88.75777
895.43        89.72977
895.83        91.02649
896.23        92.52341
896.63        94.17302
897.02        95.33572
897.42        95.00259
897.82         93.1177
898.22        90.11822
898.62        87.09009
899.01        85.61689
899.41        86.02297
899.81        87.75491
900.21        90.04292
900.61        91.61526
901.00        92.05495
901.40        91.76437
901.80        91.02359
902.20        90.26563
902.59        89.68045
902.99        89.09299
903.39        88.58545
903.79        88.34629
904.18        88.41506
904.58        88.84353
904.98        89.48203
905.38        90.04944
905.77        90.43907
906.17        90.67177
906.57        90.82814
906.96        91.10409
907.36        91.45752
907.76        91.81824
908.15        92.02288
908.55        91.71039
908.95        90.87994
909.34         89.6438
909.74        88.35023
910.14        87.34151
910.53        86.76865
910.93        86.62521
911.33        86.84147
911.72        87.29289
912.12         87.8091
912.52        88.31585
912.91        88.87146
913.31        89.58828
913.70        90.52448
914.10        91.65682
914.49        92.56979
914.89        92.25217
915.29        90.52584
915.68        87.87305
916.08        85.45049
916.47        84.30435
916.87        84.52204
917.26         85.7745
917.66        87.37395
918.05        88.21328
918.45        87.96268
918.84        87.00093
919.24         85.9113
919.64         85.5257
920.03        86.07374
920.42        87.24348
920.82        88.64432
921.21        89.78017
921.61        90.28037
922.00        90.33798
922.40         89.9907
922.79        89.30484
923.19        88.44395
923.58        87.28159
923.98        85.87108
924.37         84.9706
924.77        85.04276
925.16        82.89537
925.55        84.38221
925.95        85.32205
926.34        87.35649
926.74        89.95129
927.13         92.3914
927.52        93.22898
927.92        92.28743
928.31        90.07173
928.70        87.31554
929.10        85.27863
929.49        84.32067
929.89        84.11839
930.28        84.67487
930.67        85.97861
931.07        87.73284
931.46        89.98615
931.85        91.95418
932.24        92.46443
932.64        91.33872
933.03        88.73112
933.42        85.36238
933.82        82.93486
934.21        82.01456
934.60        82.23725
934.99        82.88744
935.39        83.24481
935.78        83.18953
936.17        82.44622
936.56          80.812
936.96        82.12249
937.35        80.87183
937.74        81.34641
938.13        81.78181
938.53        82.43894
938.92          83.354
939.31        84.63721
939.70        85.91966
940.09        86.07661
940.49         84.8691
940.88        82.82624
941.27        80.87424
941.66        80.10306
942.05        80.61689
942.44        82.02178
942.84        83.87764
943.23        85.46181
943.62         86.3461
944.01        86.69668
944.40        86.49606
944.79        85.71163
945.18        84.36605
945.57        82.37312
945.97        80.00661
946.36        78.12975
946.75        77.31593
947.14         77.4203
947.53        78.07636
947.92        78.84011
948.31        79.61844
948.70        80.56185
949.09        81.56863
949.48        82.31886
949.87        82.61902
950.26        82.40251
950.65        81.93359
951.04        81.70895
951.43        81.83544
951.82        82.20888
952.21         82.4716
952.60        82.03862
952.99          80.833
953.38        79.10151
953.77        77.37614
954.16        76.39671
954.55        76.31728
954.94        76.97384
955.33        77.83768
955.72        78.01743
956.11        77.29452
956.50        75.88788
956.89        74.49084
957.28        74.37126
957.66        75.92126
958.05        78.49516
958.44         81.1821
958.83        82.64191
959.22        82.54571
959.61        81.26153
960.00        79.41237
960.39        78.01467
960.78         77.4073
961.16        77.35308
961.55         77.4466
961.94        77.00381
962.33        75.90236
962.72        74.48749
963.11        73.24702
963.49        72.77469
963.88        73.15251
964.27        74.22522
964.66        75.58556
965.04        76.37253
965.43        76.18346
965.82        75.35944
966.21        74.43874
966.60         74.1404
966.98        74.60815
967.37        75.53418
967.76        76.63716
968.15        77.35675
968.53        77.44686
968.92        77.05543
969.31         76.3285
969.69        75.39775
970.08        74.35411
970.47        73.20296
970.86        71.98637
971.24        70.81557
971.63        69.79269
972.02        68.94322
972.40        68.49377
972.79        68.77847
973.17        69.92146
973.56        71.73932
973.95        73.75275
974.33        74.99627
974.72        75.06451
975.11        74.18187
975.49        72.99293
975.88        72.49252
976.26        72.83379
976.65        73.79255
977.04        74.80041
977.42        74.49334
977.81        72.51788
978.19        69.57691
978.58        67.04305
978.96        66.14449
979.35         67.0379
979.74        69.39008
980.12        72.89792
980.51        75.78872
980.89        77.41386
981.28         77.9911
981.66        77.71681
982.05        76.89628
982.43        75.77285
982.82         74.3167
983.20        73.11586
983.59        73.11162
983.97        74.57163
984.35        77.39797
984.74        80.80168
985.12        83.05991
985.51        83.03603
985.89        80.97705
986.28         77.6849
986.66        74.51208
987.04        72.33993
987.43         71.0336
987.81        70.16814
988.20        69.06486
988.58        67.38385
988.96        64.85791
989.35        62.24269
989.73        62.60777
990.12        67.39707
990.50        74.75003
990.88        80.49149
991.27        81.83833
991.65         79.4215
992.03        74.07837
992.42        67.98843
992.80        65.13673
993.18        66.70576
993.56        70.61488
993.95        74.85348
994.33        77.65892
994.71         78.5989
995.10         78.6339
995.48        77.85559
995.86        76.13503
996.24        73.54659
996.63        69.72304
997.01        65.60078
997.39        64.21876
997.77        66.78337
998.15        72.60287
998.54        78.64191
998.92        80.79823
999.30        77.87347
999.68        70.91628
1000.06        61.79758
1000.45        55.21114
1000.83        53.12087
1001.21        54.01193
1001.59        56.60157
1001.97        59.57793
1002.35        62.56495
1002.73        66.50119
1003.12         70.2702
1003.50        70.22253
1003.88        65.17718
1004.26        57.14363
1004.64        49.80674
1005.02        46.21728
1005.40        46.54729
1005.78        50.57605
1006.16        59.32792
1006.54        69.66671
1006.92        75.47905
1007.30        76.83262
1007.69        75.95445
1008.07        74.86447
1008.45        73.61642
1008.83        70.72379
1009.21         62.1963
1009.59        34.72083
1009.97       -37.51159
1010.35       -129.7753
1010.73       -106.1192
1011.11       -45.22244
1011.49       -3.924285
1011.86        24.81502
1012.24        41.01051
1012.62        48.33914
1013.00        50.50757
1013.38        48.98866
1013.76        45.68451
1014.14        46.87937
1014.52        57.64583
1014.90        79.10945
1015.28        104.9081
1015.66        116.4913
1016.04        103.3292
1016.41        70.54318
1016.79        36.87885
1017.17        20.88281
1017.55        20.61517
1017.93        26.09043
1018.31        32.73924
1018.69        38.90976
1019.06        44.98671
1019.44        52.10509
1019.82        61.80304
1020.20         73.2662
1020.58        83.85101
1020.95         90.7632
1021.33        75.38053
1021.71        518.6855
1022.09        172.4794
1022.46         159.057
1022.84        158.5522
1023.22        165.3789
1023.60        187.5033
1023.97        409.7879
1024.35        36.36302
1024.73        83.02071
