SpectraSmart Spectrum 2.9.0.0
--------- Device Information -----------
Spectrum Name :  反射率_0
Saving Time :  2024/04/26 00:14:15
Spectro-Module Model Name : SE2030-DUVN
Spectro-Module Serial Number : OS361AC55029948
Wavelength Start : 200
Wavelength End : 1025
Wavelength Unit : Wavelength(nm)
Spectrum Unit : Reflectance(%)
-----------Spectrum Setting ------------
Integration Time : 20ms
Average : 10
Boxcar : 0
Background removal :  enabled
linearity correction :  enabled
SC :  disabled
Intensity correction :  disabled
DWT denoise :  enabled
savitzky-golay :  disabled
FFT :  disabled
Running average :  disabled
Kalman :  disabled
High pass :  disabled
---------------BEGIN--------------------
Wavelength(nm)             Reflectance(%)
200.29               0
200.75        87.39648
201.21        79.53105
201.67        70.20498
202.13        63.43211
202.58        59.88291
203.04        58.71027
203.50        59.79634
203.96        62.83312
204.42        66.78345
204.88        71.03647
205.34        74.85966
205.80        77.98179
206.26        80.94861
206.72        84.76176
207.18        89.30041
207.64        87.97694
208.10        76.51306
208.55        65.60698
209.01        60.57631
209.47         59.7686
209.93        61.25451
210.39        64.74887
210.85        68.80653
211.31         69.9765
211.77        67.20253
212.23         61.7627
212.69        56.16974
213.14        54.50013
213.60        57.32394
214.06        63.55853
214.52        71.12379
214.98        76.82898
215.44        79.47961
215.90         79.7709
216.36        78.59853
216.81        77.06791
217.27        75.91853
217.73        74.92511
218.19        73.22043
218.65        69.41181
219.11        62.75479
219.57        52.27664
220.02         39.2347
220.48        31.71683
220.94        34.20677
221.40        44.64019
221.86        55.09512
222.32        57.23531
222.77        51.78351
223.23        43.21959
223.69        35.68124
224.15        33.37209
224.61        35.94555
225.06        41.33434
225.52        46.93034
225.98        49.64865
226.44        48.90365
226.90        46.12192
227.36         42.8639
227.81        41.13712
228.27        41.67702
228.73          43.505
229.19        45.93634
229.65        48.00076
230.10        49.29661
230.56        50.15351
231.02        50.67139
231.48        50.92578
231.93        50.98019
232.39        50.83784
232.85        50.56274
233.31        50.33688
233.77        50.18555
234.22        50.05297
234.68        49.91134
235.14        49.64516
235.60        49.25617
236.05        48.88024
236.51        48.48049
236.97        47.90265
237.43        47.13843
237.88        46.22704
238.34        45.48908
238.80        45.95031
239.26         48.0171
239.71        51.50356
240.17        55.40047
240.63        58.38515
241.08        60.02562
241.54        60.48082
242.00        60.23753
242.46        60.04089
242.91        60.32375
243.37        60.87565
243.83        63.86012
244.28        81.41771
244.74        115.5154
245.20        115.4818
245.66        106.3007
246.11        103.0882
246.57        104.0796
247.03        109.5536
247.48        123.2841
247.94        105.6845
248.40        88.33797
248.85        84.20805
249.31        83.91423
249.77        85.17612
250.22        87.71085
250.68        91.92935
251.14        97.54405
251.59        100.1422
252.05        96.04524
252.51        87.83305
252.96        79.33904
253.42        74.15137
253.88        71.74699
254.33        70.88796
254.79        72.04859
255.25        75.21217
255.70         79.3551
256.16        83.94616
256.62        87.03649
257.07        86.67873
257.53        83.72742
257.99        78.95242
258.44        74.05107
258.90        71.89725
259.35        71.65485
259.81         72.2943
260.27        72.13391
260.72        69.58042
261.18        65.33515
261.63        60.05759
262.09        55.18922
262.55        51.69202
263.00        49.55234
263.46        48.43262
263.91          47.532
264.37        46.27801
264.83        44.49569
265.28        42.30716
265.74        40.30542
266.19        39.12169
266.65         38.9295
267.11        39.31829
267.56        39.68325
268.02        39.33875
268.47        38.16232
268.93        36.39368
269.38        34.41825
269.84        33.12969
270.30        32.76635
270.75        33.08018
271.21        33.56797
271.66        33.47326
272.12        32.62229
272.57        31.27377
273.03        29.88772
273.48        29.05993
273.94        28.94241
274.39        29.27138
274.85        29.69178
275.31        29.68189
275.76        29.12222
276.22        28.22971
276.67        27.26072
277.13        26.67376
277.58        26.50306
278.04        26.61481
278.49        26.73561
278.95        26.55433
279.40        25.99315
279.86        25.23696
280.31        24.44344
280.77        23.95381
281.22        23.78572
281.68         23.8345
282.13         23.9496
282.59        23.96096
283.04        23.81624
283.50        23.61811
283.95        23.36617
284.41        23.07827
284.86        22.76886
285.32        22.43186
285.77        22.16723
286.22        22.19249
286.68        22.49474
287.13         22.9748
287.59        23.39544
288.04        23.38974
288.50        22.93093
288.95        22.14031
289.41        21.27738
289.86        20.62722
290.32        20.32322
290.77        20.25969
291.22         20.3849
291.68        20.57917
292.13        20.80261
292.59        21.09676
293.04         21.4637
293.50        21.90245
293.95        22.39044
294.40        22.87732
294.86        23.33838
295.31        23.75902
295.77        24.14005
296.22        24.49871
296.68        24.81715
297.13        25.03649
297.58        25.18064
298.04        25.29257
298.49        25.48384
298.95        25.95953
299.40        26.73627
299.85        27.73953
300.31        28.80203
300.76        29.66713
301.21        30.24325
301.67        30.61952
302.12         30.8488
302.58        31.07531
303.03        31.32233
303.48        31.55771
303.94        31.82259
304.39        32.14509
304.84        32.53165
305.30        32.97966
305.75         33.3877
306.20        33.60661
306.66        33.63519
307.11        33.50446
307.57        33.35257
308.02        33.30995
308.47        33.43525
308.93        33.67989
309.38          33.969
309.83        34.21806
310.29        34.38464
310.74        34.48209
311.19        34.52199
311.65        34.51971
312.10        34.48184
312.55        34.40937
313.00         34.2826
313.46         34.0826
313.91        33.81182
314.36        33.50311
314.82         33.2462
315.27        33.15569
315.72        33.25356
316.18        33.49409
316.63        33.77658
317.08        33.91177
317.53        33.84565
317.99        33.62245
318.44         33.3399
318.89        33.15801
319.35        33.11285
319.80        33.16702
320.25        33.22846
320.70        33.14988
321.16        32.90042
321.61        32.53016
322.06        32.14296
322.51        31.89319
322.97        31.80172
323.42         31.8292
323.87        31.86513
324.32        31.72836
324.78         31.3782
325.23         30.8884
325.68         30.3683
326.13        29.99885
326.59        29.82558
327.04        29.80983
327.49        29.88376
327.94        29.93763
328.39        29.92919
328.85        29.88105
329.30        29.82958
329.75        29.78867
330.20        29.77249
330.66        29.75512
331.11        29.75943
331.56        29.78108
332.01        29.81492
332.46        29.84557
332.92         29.8761
333.37        29.94817
333.82        30.04677
334.27        30.17496
334.72        30.24441
335.17        30.11126
335.63        29.75901
336.08        29.24417
336.53        28.74318
336.98         28.5437
337.43        28.70618
337.88         29.1537
338.34        29.67216
338.79        29.95106
339.24        29.88118
339.69        29.55486
340.14        29.15501
340.59        29.00324
341.05        29.17356
341.50        29.54555
341.95        29.96276
342.40        30.20887
342.85        30.22658
343.30        30.09776
343.75        29.86716
344.20         29.6104
344.66        29.37316
345.11         29.1098
345.56        28.87278
346.01        28.73859
346.46        28.70987
346.91        28.78438
347.36         28.8506
347.81        28.72138
348.26        28.38077
348.72        27.91999
349.17        27.46804
349.62        27.31672
350.07        27.52686
350.52        27.98546
350.97        28.54542
351.42        28.98643
351.87        29.23024
352.32        29.33203
352.77        29.29857
353.22        29.14536
353.67        28.89923
354.13        28.56536
354.58        28.19596
355.03        27.91605
355.48        27.75819
355.93        27.70842
356.38         27.7102
356.83         27.6588
357.28        27.52336
357.73        27.32865
358.18        27.11719
358.63        26.95607
359.08        26.86098
359.53        26.81087
359.98        26.75398
360.43        26.61427
360.88        26.37955
361.33        26.07327
361.78        25.77055
362.23        25.59227
362.68        25.55585
363.13        25.61207
363.58        25.66524
364.03        25.56659
364.48        25.28449
364.93        24.87664
365.38        24.41236
365.83        24.00162
366.28        23.68786
366.73        23.44135
367.18        23.26545
367.63        23.16545
368.08        23.12654
368.53        23.14331
368.98        23.16853
369.43        23.12195
369.88        22.98725
370.33        22.78896
370.78        22.55291
371.23         22.3317
371.68        22.14877
372.13        21.98385
372.58        21.87127
373.03        21.86564
373.48        21.96407
373.93        22.14996
374.38        22.32449
374.83         22.3336
375.28        22.14897
375.72        21.80103
376.17        21.42264
376.62        21.19452
377.07        21.16399
377.52        21.27247
377.97        21.42345
378.42        21.46037
378.87        21.34459
379.32        21.13708
379.77        20.90134
380.22        20.72343
380.67         20.6256
381.11        20.57554
381.56        20.54648
382.01        20.50742
382.46        20.44401
382.91        20.36628
383.36        20.27754
383.81        20.17957
384.26        20.07584
384.71         19.9686
385.15        19.84592
385.60        19.70459
386.05        19.53825
386.50        19.34611
386.95        19.16459
387.40        19.05689
387.85        19.03802
388.29        19.08577
388.74         19.1468
389.19          19.119
389.64        18.98866
390.09        18.77279
390.54        18.55727
390.98        18.48725
391.43        18.59614
391.88         18.8233
392.33        19.03885
392.78         19.0524
393.23        18.84678
393.67        18.49324
394.12        18.14725
394.57        17.95933
395.02        17.96379
395.47        18.10525
395.91        18.32147
396.36        18.47503
396.81        18.52003
397.26        18.48043
397.71        18.39491
398.15        18.30275
398.60         18.2456
399.05        18.21528
399.50        18.17166
399.95        18.00927
400.39        17.80364
400.84        17.51986
401.29        17.27586
401.74        17.24578
402.18        17.47353
402.63        17.87863
403.08        18.31581
403.53        18.55256
403.97        18.53128
404.42        18.31946
404.87        18.01853
405.32        17.80849
405.76        17.74635
406.21        17.77932
406.66        17.86214
407.11        17.93808
407.55        17.99182
408.00         18.0433
408.45        18.08236
408.90        18.07228
409.34        18.00894
409.79        17.90018
410.24         17.7937
410.68        17.76094
411.13        17.81813
411.58        17.94765
412.03        18.10253
412.47        18.19979
412.92        18.20024
413.37        18.12866
413.81        18.03182
414.26        17.99956
414.71        18.04191
415.15        18.13502
415.60          18.213
416.05        18.18992
416.49        18.05021
416.94        17.83989
417.39        17.61753
417.83        17.48027
418.28        17.46407
418.73        17.52517
419.17        17.64243
419.62        17.78004
420.07        17.91838
420.51        18.06846
420.96        18.18032
421.41        18.16776
421.85        18.01853
422.30        17.78454
422.74        17.54494
423.19        17.45346
423.64        17.52163
424.08        17.71862
424.53        17.95616
424.98        18.10773
425.42        18.13724
425.87        18.06948
426.31        17.95316
426.76        17.91783
427.21        17.96206
427.65        17.92743
428.10         17.8714
428.54        17.99925
428.99        18.31354
429.44        18.72387
429.88        19.05298
430.33         19.0844
430.77        18.78806
431.22        18.23598
431.66        17.65897
432.11        17.48071
432.56        17.73515
433.00        18.20513
433.45        18.66458
433.89        18.95425
434.34        18.94375
434.78        18.52502
435.23        18.00317
435.67        17.98365
436.12        18.41283
436.57        18.64308
437.01         18.5878
437.46        18.56858
437.90        18.60989
438.35        18.61623
438.79        18.58152
439.24         18.5505
439.68         18.5406
440.13         18.4649
440.57         18.3742
441.02        18.59901
441.46        18.99972
441.91        18.90034
442.35        18.39479
442.80        18.17715
443.24        18.22267
443.69         18.2622
444.13        18.23172
444.58        18.02811
445.02         17.7311
445.47        17.73049
445.91        17.96381
446.36         18.0045
446.80        17.82516
447.24        17.67104
447.69         17.5965
448.13        17.56912
448.58         17.6047
449.02        17.70267
449.47        17.81308
449.91        17.85353
450.36        17.80837
450.80        17.69844
451.25        17.57515
451.69        17.50629
452.13        17.51455
452.58        17.56913
453.02        17.64372
453.47        17.69707
453.91        17.71776
454.36         17.7218
454.80        17.71025
455.24         17.6809
455.69        17.64547
456.13        17.59418
456.58        17.55947
457.02        17.56439
457.46        17.62045
457.91        17.71314
458.35        17.81097
458.79         17.8589
459.24        17.85345
459.68        17.79394
460.13        17.72641
460.57        17.67948
461.01        17.68088
461.46        17.71829
461.90        17.76619
462.34        17.77666
462.79        17.73593
463.23        17.65002
463.68         17.5786
464.12        17.62437
464.56        17.80144
465.01        18.08397
465.45        18.33009
465.89        18.40162
466.34        18.29187
466.78        17.94588
467.22         17.5457
467.67        17.56022
468.11        17.94989
468.55        18.16753
468.99        18.12846
469.44        18.06409
469.88        18.02754
470.32        18.09554
470.77        18.23156
471.21        18.24319
471.65         18.1177
472.10        18.02117
472.54         17.9833
472.98        17.99242
473.42        18.05643
473.87        18.18371
474.31        18.32457
474.75        18.39515
475.20        18.38437
475.64        18.30911
476.08        18.21942
476.52        18.19242
476.97        18.24862
477.41        18.36786
477.85        18.50764
478.29        18.63467
478.74        18.73554
479.18        18.72537
479.62        18.63985
480.06        18.85146
480.50         18.9785
480.95        19.07229
481.39        18.99137
481.83        18.91323
482.27        18.84436
482.72        18.62234
483.16        18.34703
483.60        18.41473
484.04        18.84009
484.48        19.08638
484.93        19.33671
485.37        19.76645
485.81        20.32905
486.25        20.30027
486.69        26.97047
487.14        21.54444
487.58        14.09177
488.02        17.13553
488.46        19.68661
488.90        19.57445
489.34        19.67691
489.79        19.41926
490.23        20.36387
490.67        21.00153
491.11        21.04265
491.55        21.00308
491.99        20.81599
492.43        20.60374
492.88        20.44454
493.32        20.37495
493.76        20.29081
494.20         20.4159
494.64        20.70243
495.08        21.08863
495.52        21.50793
495.96        21.88231
496.41         22.1233
496.85         22.2259
497.29        22.21769
497.73        21.92697
498.17        21.63066
498.61        21.85116
499.05        22.57539
499.49        22.72496
499.93        22.83631
500.37        22.95144
500.82        23.00738
501.26        23.23052
501.70        23.50387
502.14        23.63209
502.58        23.59598
503.02        23.59175
503.46        23.62961
503.90        23.58951
504.34        23.49516
504.78        23.44209
505.22        23.44559
505.66        23.48869
506.10        23.55244
506.54        23.60191
506.98        23.62905
507.42        23.64562
507.86        23.68237
508.30         23.7855
508.74        23.95745
509.18        24.17414
509.62         24.3881
510.06        24.52388
510.50         24.5641
510.94        24.53819
511.38        24.47953
511.82        24.44067
512.26        24.44179
512.70        24.46523
513.14        24.51778
513.58        24.60999
514.02        24.72597
514.46        24.85489
514.90        24.95966
515.34        24.94666
515.78        24.77724
516.22        24.62955
516.66        24.55598
517.10         24.2128
517.54        23.61671
517.98        24.30942
518.42         24.0574
518.86        24.35279
519.30        24.51054
519.74        24.73309
520.18        24.95238
520.62        25.03076
521.06          24.972
521.50        24.79631
521.93        24.57131
522.37        24.41976
522.81        24.37642
523.25        24.40735
523.69        24.48316
524.13        24.55652
524.57        24.60635
525.01        24.64628
525.45        24.66628
525.89        24.64823
526.32        24.58797
526.76        24.48796
527.20        24.36353
527.64         24.2511
528.08        24.16652
528.52        24.08244
528.96        23.98641
529.40        23.92297
529.83        23.90348
530.27         23.6757
530.71        23.70906
531.15        23.62641
531.59        23.57042
532.03        23.52491
532.46        23.51363
532.90        23.57337
533.34         23.6929
533.78        23.85235
534.22        23.99721
534.66        24.04966
535.09        23.99036
535.53        23.85465
535.97        23.67862
536.41        23.52689
536.85        23.42642
537.28        23.36567
537.72        23.34401
538.16        23.35959
538.60        23.40734
539.04        23.46994
539.47        23.53989
539.91        23.66456
540.35        23.81367
540.79        23.88856
541.22        23.89683
541.66        23.94812
542.10        24.04678
542.54        24.12406
542.97        24.19184
543.41        24.31098
543.85        24.47991
544.29        24.69387
544.72        24.89599
545.16        25.00695
545.60        25.01464
546.04        24.93958
546.47        24.87594
546.91        24.99131
547.35        25.30243
547.79         25.7397
548.22        26.16832
548.66        26.40307
549.10        26.39152
549.53        26.14626
549.97        25.83034
550.41        25.72022
550.84         25.8776
551.28        26.19885
551.72        26.60979
552.15        27.00047
552.59        27.31125
553.03        27.56673
553.46        27.75964
553.90        27.90527
554.34        28.01783
554.77        28.05886
555.21        28.04667
555.65        28.10175
556.08        28.25233
556.52        28.13016
556.96        28.38136
557.39        28.45142
557.83        28.53929
558.27        28.62601
558.70        28.73223
559.14        28.87301
559.57        29.03251
560.01        29.21223
560.45        29.36463
560.88        29.40809
561.32        29.35628
561.75        29.24873
562.19         29.1544
562.63        29.08333
563.06        29.07679
563.50        29.23856
563.93        29.51578
564.37        29.73177
564.80        29.84841
565.24        29.96405
565.68        30.06652
566.11         30.1076
566.55        30.11524
566.98         30.0975
567.42        30.10958
567.85        30.23182
568.29        30.49417
568.72        30.78273
569.16        31.10834
569.60        31.53835
570.03        31.90967
570.47        31.99458
570.90        31.95448
571.34        31.32712
571.77         31.9152
572.21        31.94869
572.64        32.03439
573.08        31.52523
573.51        30.59734
573.95        31.97982
574.38        34.08244
574.82        33.23593
575.25        32.92575
575.69        31.82244
576.12        31.23482
576.56        31.05053
576.99        31.85841
577.42        33.35157
577.86        33.42476
578.29        32.90176
578.73        34.82626
579.16        31.99451
579.60         29.2202
580.03        30.47609
580.47        32.42843
580.90        33.12331
581.33        32.26005
581.77        32.07869
582.20        35.08891
582.64        34.68111
583.07        29.64929
583.51        28.90956
583.94        28.15745
584.37        29.21527
584.81        30.59337
585.24        32.18233
585.68        32.97516
586.11        32.31462
586.54        30.05715
586.98        29.22826
587.41        29.42064
587.85        30.66161
588.28        31.71672
588.71        30.10058
589.15        29.24093
589.58        29.67979
590.01        30.11869
590.45        30.62553
590.88        30.38925
591.31        30.02538
591.75        30.12342
592.18        30.24645
592.61         30.7227
593.05        31.28764
593.48        32.89007
593.91        32.79484
594.35        30.44951
594.78        29.90529
595.21        29.94025
595.65        31.30812
596.08        32.41037
596.51        31.27622
596.94        30.63429
597.38        31.19764
597.81        32.72686
598.24        33.38522
598.68         33.0181
599.11        33.06398
599.54        34.39597
599.97        35.56528
600.41          33.763
600.84        34.11044
601.27        35.10303
601.70        34.86542
602.14        35.11475
602.57        34.90287
603.00        35.43817
603.43        37.10218
603.87        38.08398
604.30        38.34928
604.73        37.74004
605.16        37.40743
605.60        38.34061
606.03        39.49044
606.46        40.74941
606.89        40.54798
607.32        40.00093
607.76        40.36005
608.19        41.92447
608.62        41.69381
609.05        41.30498
609.48        42.01427
609.92        42.35738
610.35        42.69656
610.78        44.20171
611.21        44.85438
611.64        43.25978
612.07        44.04697
612.50        44.66539
612.94        45.24668
613.37        45.08887
613.80        45.79489
614.23        46.24393
614.66        46.58293
615.09        47.10594
615.52        47.43699
615.96        47.65734
616.39        47.93896
616.82        47.47175
617.25        47.68257
617.68        48.27265
618.11        48.93652
618.54        49.43864
618.97        49.34428
619.40        48.94159
619.84        49.02205
620.27        50.01545
620.70        50.67722
621.13        50.97065
621.56         50.5547
621.99        49.81198
622.42        50.48923
622.85        52.16857
623.28        52.26329
623.71        51.85816
624.14        51.50787
624.57        51.64373
625.00        51.43861
625.43        51.44791
625.86        50.88122
626.29        50.88136
626.72        51.01656
627.15        50.70017
627.58        50.65825
628.01        50.61294
628.44        50.50786
628.87        50.33915
629.30        50.24243
629.73        50.17439
630.16        49.93842
630.59        49.52355
631.02        49.03378
631.45        48.52048
631.88         48.0265
632.31        47.57112
632.74          47.143
633.17        46.72714
633.60        46.29771
634.03        45.84898
634.46        45.39768
634.89        44.94094
635.32        44.47013
635.75         43.9904
636.18        43.50694
636.61        43.04211
637.04        42.62437
637.47        42.24545
637.89         41.9178
638.32        41.61471
638.75        41.23862
639.18        40.76824
639.61        40.55646
640.04         40.0369
640.47        39.66772
640.90        39.28946
641.33        38.91592
641.76        38.57014
642.18        38.35895
642.61        38.29914
643.04        38.26773
643.47        38.19362
643.90        38.45682
644.33        38.24015
644.76        38.20597
645.18        38.14194
645.61        38.10779
646.04        38.11517
646.47        38.15064
646.90        38.24935
647.33        38.45673
647.75         38.7958
648.18        39.22591
648.61        39.65737
649.04         40.0965
649.47        40.44715
649.89        40.32238
650.32        40.03005
650.75        40.44049
651.18        41.54688
651.61        42.71519
652.03        43.60361
652.46        44.04258
652.89        44.33154
653.32        44.33311
653.74        44.29826
654.17        46.25177
654.60        47.35096
655.03        45.91143
655.46        47.05914
655.88        50.40783
656.31        54.56883
656.74        124.9499
657.16        81.96335
657.59        28.81177
658.02        22.03197
658.45        38.35761
658.87        49.78704
659.30         52.5586
659.73        52.18048
660.15        50.65887
660.58        53.20228
661.01        54.98277
661.44        53.55803
661.86        53.33079
662.29        53.72614
662.72        54.75837
663.14        56.18834
663.57        56.36397
664.00        55.52644
664.42        55.53484
664.85        56.48374
665.27        57.21228
665.70         57.5036
666.13        57.66949
666.55        57.68348
666.98         57.4604
667.41        57.18937
667.83        57.21888
668.26        57.62047
668.69        58.25937
669.11        58.90469
669.54        59.45584
669.96         59.2807
670.39        58.98835
670.82        58.61952
671.24        58.45456
671.67        58.65942
672.09        59.22194
672.52        59.99723
672.94        60.72942
673.37        60.35825
673.80        60.29408
674.22        60.32932
674.65        60.37108
675.07         60.4223
675.50        60.44606
675.92        60.49651
676.35        60.64338
676.77        60.87705
677.20        61.44114
677.62        61.67476
678.05        61.98974
678.47        62.16767
678.90         62.2652
679.32        62.31453
679.75        62.26319
680.17        62.37803
680.60        62.44485
681.02         62.5261
681.45           62.52
681.87        62.43486
682.30        62.46085
682.72         62.5951
683.15        62.52347
683.57        62.39218
684.00        62.75009
684.42        63.63612
684.85        64.04756
685.27        63.95732
685.70        63.81116
686.12        63.69487
686.54         63.6365
686.97        63.67213
687.39        63.75993
687.82        63.86063
688.24        64.05817
688.66        64.27879
689.09         64.3174
689.51        64.22116
689.94        64.26556
690.36        64.46486
690.78        64.61827
691.21        64.75582
691.63        65.01753
692.06        65.26085
692.48        65.80598
692.90        65.32088
693.33         65.4205
693.75        65.71735
694.17         65.9696
694.60        66.14072
695.02        66.29284
695.44         66.3886
695.87        66.60721
696.29        66.92753
696.71        66.67439
697.14        66.08955
697.56        66.60032
697.98        67.90746
698.41        67.87144
698.83        67.03979
699.25        66.52052
699.68        66.58668
700.10        66.57756
700.52         66.5229
700.94         66.7848
701.37        67.26685
701.79        67.70612
702.21        68.00086
702.64        68.22329
703.06        68.33193
703.48        68.25733
703.90        68.02199
704.33        67.65286
704.75        67.25509
705.17         67.0864
705.59         67.2149
706.01        67.46603
706.44        67.73409
706.86        68.42692
707.28        68.57462
707.70        68.90369
708.12        69.11493
708.55        69.18349
708.97        69.09495
709.39        68.86645
709.81        68.61211
710.23        68.52026
710.66        68.64172
711.08        68.95614
711.50        69.30902
711.92         69.4631
712.34        69.36553
712.76        69.07894
713.19        68.76334
713.61        68.70717
714.03        68.95956
714.45        69.42712
714.87         69.9154
715.29        70.11848
715.71        69.97066
716.13        69.57939
716.56        69.11729
716.98        68.89088
717.40        68.97395
717.82        69.26434
718.24        69.64397
718.66        69.91327
719.08        70.00482
719.50         69.9876
719.92         69.8844
720.34        69.74899
720.76        69.61855
721.19        69.36189
721.61        69.26221
722.03        69.29697
722.45        69.54365
722.87        69.96081
723.29          70.438
723.71         70.7788
724.13        70.92119
724.55        70.91088
724.97        70.81887
725.39        70.77216
725.81        70.81053
726.23         70.8934
726.65        70.98817
727.07        71.04493
727.49        71.05423
727.91        71.05001
728.33        71.05022
728.75        71.07661
729.17        71.13705
729.59        71.20734
730.01         71.2822
730.43         71.4237
730.85        71.64622
731.27        71.82423
731.69        71.85719
732.10         72.3083
732.52        71.96593
732.94        71.86137
733.36        71.76914
733.78         71.7787
734.20        71.90443
734.62        72.46681
735.04         73.2645
735.46         73.1552
735.88        72.41142
736.30        72.77605
736.72        74.16162
737.13        74.71759
737.55         74.1721
737.97        74.05447
738.39        74.39444
738.81         73.5648
739.23        72.10466
739.65        72.92178
740.06        75.53303
740.48        75.86282
740.90        74.00258
741.32        73.02644
741.74        73.25091
742.16        73.57729
742.57        73.57526
742.99         74.4294
743.41        75.69132
743.83        76.43977
744.25        76.49998
744.67        76.11845
745.08        75.60184
745.50        75.44175
745.92        75.78056
746.34        76.42664
746.75        77.15931
747.17        77.61156
747.59        77.70506
748.01        77.59208
748.42        77.43221
748.84        77.44997
749.26        77.75835
749.68        78.21142
750.09        78.72058
750.51         79.4065
750.93        80.03969
751.35        79.84792
751.76        79.04094
752.18        78.81596
752.60        79.18169
753.01        79.23046
753.43        78.99555
753.85        79.16085
754.27        79.76082
754.68        80.51808
755.10        81.23714
755.52        81.76691
755.93        82.00648
756.35         81.9266
756.77        81.71808
757.18        81.60909
757.60        81.68836
758.02        82.19269
758.43        82.64991
758.85        82.29167
759.26        80.49197
759.68        79.85275
760.10        81.11736
760.51        82.32899
760.93        82.23716
761.34        80.70087
761.76        80.37493
762.18         79.6949
762.59        79.65594
763.01        80.06423
763.42        80.89207
763.84          81.635
764.26        82.16145
764.67         82.5694
765.09         82.7532
765.50        82.72243
765.92        82.42439
766.33        81.08501
766.75        79.57752
767.16        79.00146
767.58        79.15285
768.00        80.57394
768.41        82.72194
768.83        84.47194
769.24        85.07722
769.66         84.2327
770.07        82.55138
770.49        80.86098
770.90        79.69041
771.32        80.69269
771.73        83.12376
772.15        82.72746
772.56        79.94975
772.97        79.39026
773.39        81.00187
773.80        81.62098
774.22         81.0075
774.63        80.96574
775.05         81.4238
775.46        81.59085
775.88         81.3734
776.29        80.95409
776.70        80.50221
777.12        80.36683
777.53        80.63222
777.95        81.13023
778.36        81.65061
778.77        81.82835
779.19        81.61235
779.60        81.12119
780.02        80.59888
780.43        80.48724
780.84        80.93669
781.26        81.41185
781.67        81.83383
782.09        82.91471
782.50        84.11832
782.91        83.17861
783.33        80.78845
783.74        79.98394
784.15        80.92424
784.57        81.64654
784.98         81.8166
785.39        81.81136
785.81        81.59248
786.22        81.11841
786.63        80.71265
787.04        80.77695
787.46        81.38873
787.87        82.54113
788.28        83.83657
788.70        84.46082
789.11        84.24615
789.52        83.49751
789.93        82.57989
790.35        81.97909
790.76        81.84255
791.17        82.07946
791.58        82.51231
792.00        82.74539
792.41         82.6544
792.82        82.50839
793.23        82.49763
793.65        82.18735
794.06        81.90108
794.47        83.27159
794.88        85.40712
795.29        85.04624
795.71        82.40938
796.12        79.96589
796.53          78.492
796.94        78.00471
797.35        78.64329
797.76        80.15567
798.18         81.8485
798.59        82.97819
799.00        83.13357
799.41        82.24816
799.82        80.84876
800.23        79.99364
800.64        79.93264
801.06        80.25712
801.47        80.81674
801.88        81.26459
802.29         81.4551
802.70        81.53953
803.11        81.55671
803.52        81.51891
803.93        81.45583
804.34        81.36179
804.75        81.30202
805.17        81.37091
805.58        81.60979
805.99        82.18509
806.40         82.0273
806.81        82.67512
807.22        83.37167
807.63        82.23947
808.04        79.87258
808.45        78.88081
808.86        79.49875
809.27        80.41298
809.68        81.21252
810.09        81.70824
810.50        81.69827
810.91        81.27333
811.32        80.68166
811.73        80.32574
812.14        80.31969
812.55        80.49578
812.96        80.82627
813.37        81.24915
813.78        81.69398
814.19        82.23597
814.60        82.61661
815.01         82.4268
815.42        81.63284
815.83        80.30672
816.24         78.9736
816.65          78.562
817.05        79.33319
817.46        80.99722
817.87        82.84419
818.28        83.60138
818.69           82.93
819.10        81.15788
819.51        79.10242
819.92        78.14713
820.33        78.65922
820.74        80.22423
821.14        82.07608
821.55        82.86304
821.96        82.27805
822.37        80.78243
822.78        79.06591
823.19        78.14285
823.60        78.28235
824.00        79.21691
824.41        80.43741
824.82        81.18344
825.23        81.15538
825.64         80.6305
826.04        79.92999
826.45        79.51527
826.86          79.507
827.27        79.70557
827.68        79.97753
828.08        80.15733
828.49        80.10924
828.90        79.98296
829.31        79.75414
829.72        79.36025
830.12        78.86946
830.53        78.28841
830.94        77.86275
831.35        77.92711
831.75        78.56532
832.16        79.62441
832.57        80.85271
832.97        81.70618
833.38         81.9176
833.79        81.62084
834.20        81.08276
834.60        80.72375
835.01        80.68927
835.42        80.85774
835.82        81.04797
836.23        80.87505
836.64        80.31075
837.04        79.52869
837.45        78.80938
837.86        78.58249
838.26        78.94733
838.67        79.71244
839.08        80.64262
839.48        81.30824
839.89        81.51469
840.29        81.40248
840.70        81.04962
841.11        80.56453
841.51        80.02673
841.92        79.37653
842.33        78.77528
842.73        78.50793
843.14        78.58823
843.54        79.00093
843.95        79.45883
844.35        79.52885
844.76        79.10282
845.17        78.33926
845.57        77.51136
845.98        77.04835
846.38        77.05493
846.79        77.36879
847.19        77.85778
847.60        78.19261
848.00        78.29565
848.41        78.24341
848.81        78.12085
849.22        77.97414
849.62        77.89234
850.03        77.85602
850.43        77.93671
850.84        78.18094
851.24        78.63341
851.65        79.08936
852.05         79.6639
852.46        80.35699
852.86        81.11925
853.27        81.95453
853.67        82.33913
854.07        81.60314
854.48        79.80507
854.88        77.21764
855.29        74.72649
855.69        73.60388
856.10         74.1033
856.50        76.06284
856.90        78.77325
857.31        80.55446
857.71        80.82758
858.12        79.96033
858.52        78.62613
858.92        77.74061
859.33        77.51826
859.73        77.70714
860.13        78.13966
860.54        78.50006
860.94        78.74406
861.34        78.96693
861.75         79.2088
862.15          79.594
862.55        80.09115
862.96        80.60979
863.36        81.07727
863.76         81.3386
864.17        81.36018
864.57        81.26598
864.97        81.12462
865.38        81.03239
865.78        81.07879
866.18        81.14919
866.58        81.33769
866.99         81.7899
867.39        82.56147
867.79        83.64785
868.19        84.63106
868.60        84.72428
869.00        83.76935
869.40        81.98618
869.80        80.23899
870.21        79.88854
870.61        81.33147
871.01        84.17365
871.41        87.44199
871.81        89.45702
872.22        89.72938
872.62        88.72759
873.02        87.31915
873.42        86.99615
873.82        87.96571
874.22        89.57362
874.63        91.26917
875.03         91.8979
875.43        90.96762
875.83        89.60796
876.23        87.42435
876.63        86.47349
877.03        86.86669
877.44        88.83802
877.84        102.2625
878.24        96.05576
878.64        95.58624
879.04        94.20804
879.44        90.16811
879.84        88.28471
880.24         91.9043
880.64          94.394
881.04        96.40053
881.44        97.49094
881.84        96.64691
882.24        94.41768
882.65        92.10637
883.05        91.09189
883.45        91.61162
883.85        93.45839
884.25        95.90058
884.65        97.41261
885.05        97.48288
885.45        96.63873
885.85        95.53687
886.25        95.06856
886.65        95.44885
887.05        96.33984
887.45        97.46408
887.85        98.35213
888.25        98.79616
888.65        98.98867
889.04        98.94522
889.44        98.72403
889.84        98.35833
890.24        97.76902
890.64        97.17014
891.04        96.91293
891.44        97.03852
891.84         97.5117
892.24        97.94495
892.64        97.62635
893.04         96.5108
893.44        94.96398
893.83        93.58265
894.23        93.22086
894.63        94.00343
895.03        95.58093
895.43        97.65368
895.83        99.62803
896.23        101.1546
896.63        102.3747
897.02        102.9404
897.42        102.3429
897.82        100.6609
898.22        98.10871
898.62        95.60266
899.01         94.4947
899.41        95.04613
899.81         96.8286
900.21        99.03428
900.61        100.3112
901.00        100.2747
901.40        99.34169
901.80         98.0375
902.20        97.18911
902.59        97.04718
902.99        97.33671
903.39        97.78156
903.79        97.93034
904.18        97.66452
904.58        97.23466
904.98        96.88435
905.38        96.95708
905.77        97.48132
906.17        98.24715
906.57        99.06884
906.96        99.75121
907.36        100.1518
907.76        100.3582
908.15        100.2743
908.55        99.63026
908.95        98.49364
909.34         96.9343
909.74        95.41019
910.14         94.4568
910.53         94.2471
910.93        94.72297
911.33        95.61686
911.72        96.41446
912.12        96.84204
912.52        96.95838
912.91        97.01656
913.31        97.38779
913.70        98.18561
914.10        99.32088
914.49        100.3545
914.89        100.1546
915.29        98.49262
915.68        95.85837
916.08        93.48777
916.47        92.49633
916.87        92.98441
917.26        94.58905
917.66        96.47084
918.05        97.26994
918.45        96.62421
918.84        95.01729
919.24        93.28824
919.64        92.65602
920.03        93.44007
920.42        95.22025
920.82        97.38742
921.21        99.03377
921.61        99.63614
922.00        99.51329
922.40        98.85696
922.79        97.89966
923.19        96.83364
923.58        95.58514
923.98        94.23579
924.37        93.23459
924.77        92.95493
925.16        91.85239
925.55        92.84106
925.95         94.0701
926.34        96.27138
926.74        98.98912
927.13        101.4728
927.52        102.3029
927.92        101.3269
928.31        98.98374
928.70        96.07313
929.10        93.95365
929.49        93.00709
929.89        92.92279
930.28        93.54765
930.67        94.59888
931.07        95.75597
931.46        97.16013
931.85         98.3681
932.24        98.72899
932.64        98.16211
933.03        96.70309
933.42        94.66114
933.82         92.9024
934.21        91.73459
934.60        91.09334
934.99        90.79501
935.39        90.61961
935.78        90.54938
936.17        90.44545
936.56        90.10054
936.96        91.05077
937.35        90.34362
937.74        90.22853
938.13        90.21786
938.53        90.84754
938.92        92.15986
939.31        94.15137
939.70        96.22623
940.09         96.7795
940.49        95.33974
940.88         92.6171
941.27        89.83683
941.66        88.41083
942.05         88.5076
942.44        89.67962
942.84        91.37561
943.23        92.70272
943.62         93.2282
944.01        93.21552
944.40        92.87326
944.79        92.52417
945.18        92.27583
945.57        91.94894
945.97        91.48813
946.36        90.91666
946.75        90.35855
947.14        89.98479
947.53        89.79774
947.92        89.70889
948.31        89.69552
948.70        89.75832
949.09        89.97872
949.48        90.50047
949.87        91.28737
950.26        92.19559
950.65        92.99282
951.04        93.38786
951.43        93.30959
951.82        92.81952
952.21        91.99619
952.60        91.03243
952.99        90.03974
953.38        88.98914
953.77        88.00755
954.16        87.24066
954.55        86.71239
954.94        86.48077
955.33        86.30263
955.72        85.73345
956.11        84.71739
956.50        83.36429
956.89        82.22569
957.28        82.30595
957.66        83.89745
958.05        86.43138
958.44        89.11405
958.83        90.77617
959.22        91.08985
959.61        90.30007
960.00        88.86073
960.39        87.53553
960.78        86.60384
961.16        85.94878
961.55        85.25108
961.94        84.01837
962.33        82.26472
962.72        80.32497
963.11        78.79684
963.49         78.4022
963.88        79.22314
964.27        81.10812
964.66        83.43163
965.04        84.81066
965.43        84.61438
965.82        83.29551
966.21        81.73341
966.60        81.12495
966.98        81.69648
967.37        83.01601
967.76        84.55983
968.15        85.30869
968.53         84.9355
968.92        83.83881
969.31        82.46995
969.69        81.35422
970.08        80.66576
970.47        80.25145
970.86        80.04328
971.24        79.96641
971.63        79.96413
972.02        80.06718
972.40        80.36679
972.79        80.93034
973.17        81.84879
973.56         82.9856
973.95        83.98978
974.33        84.21436
974.72         83.4527
975.11        81.87882
975.49        80.31413
975.88        79.94417
976.26        80.91463
976.65        83.07226
977.04        85.36099
977.42        85.23389
977.81        81.94772
978.19        76.60622
978.58        71.76945
978.96        70.08043
979.35        71.90543
979.74        76.71378
980.12        83.25106
980.51        87.39215
980.89        87.69829
981.28        85.26984
981.66        81.95284
982.05        80.12411
982.43        80.18328
982.82        81.27477
983.20         82.8867
983.59        84.42024
983.97        85.72412
984.35        87.07493
984.74        88.20313
985.12        88.80436
985.51        88.47855
985.89        87.14919
986.28        85.07434
986.66        82.64005
987.04        80.44749
987.43        78.81326
987.81        77.61829
988.20        76.53808
988.58        75.36856
988.96        73.79201
989.35        72.61346
989.73        74.66799
990.12        80.56599
990.50        88.28432
990.88         93.6914
991.27        94.25247
991.65        90.66179
992.03         83.7468
992.42        75.96807
992.80        72.04183
993.18        73.37737
993.56        77.59795
993.95        82.37851
994.33        85.53381
994.71        86.56686
995.10        86.60583
995.48        85.69806
995.86        83.63307
996.24        80.50831
996.63        75.91304
997.01        71.10809
997.39        69.87383
997.77        73.69541
998.15        81.62006
998.54        90.02411
998.92        94.03931
999.30        92.27188
999.68        85.93987
1000.06        76.81094
1000.45        69.50436
1000.83        66.18563
1001.21        65.49846
1001.59        66.65763
1001.97        68.81955
1002.35        71.61443
1002.73        75.96587
1003.12        80.48096
1003.50        80.71865
1003.88        75.04939
1004.26        65.78545
1004.64        57.22325
1005.02        52.92439
1005.40        53.03575
1005.78        57.21438
1006.16        66.22455
1006.54        76.09132
1006.92        80.73702
1007.30        81.06795
1007.69        79.65149
1008.07        78.54375
1008.45        77.88477
1008.83        76.54873
1009.21        72.58788
1009.59        59.77289
1009.97        25.28509
1010.35       -19.14023
1010.73       -8.608587
1011.11        18.98107
1011.49        37.71546
1011.86        51.60582
1012.24         59.3935
1012.62        62.64445
1013.00         63.1993
1013.38        61.42292
1013.76         59.4469
1014.14        64.18143
1014.52        81.19471
1014.90        112.6685
1015.28        149.7836
1015.66        167.5107
1016.04        151.3779
1016.41          106.47
1016.79        58.73347
1017.17        35.91877
1017.55        35.32145
1017.93        42.94075
1018.31        51.94721
1018.69        59.18445
1019.06        65.32594
1019.44        72.59121
1019.82        83.17425
1020.20        98.27393
1020.58        118.8481
1020.95        145.8514
1021.33        190.2813
1021.71        -480.979
1022.09        54.97005
1022.46        84.30486
1022.84        94.32806
1023.22        101.6503
1023.60        114.3777
1023.97        222.1919
1024.35        41.53434
1024.73        62.67617
