SpectraSmart Spectrum 2.9.0.0
--------- Device Information -----------
Spectrum Name :  反射率_0
Saving Time :  2024/04/26 00:56:23
Spectro-Module Model Name : SE2030-DUVN
Spectro-Module Serial Number : OS361AC55029948
Wavelength Start : 200
Wavelength End : 1025
Wavelength Unit : Wavelength(nm)
Spectrum Unit : Reflectance(%)
-----------Spectrum Setting ------------
Integration Time : 20ms
Average : 10
Boxcar : 0
Background removal :  enabled
linearity correction :  enabled
SC :  disabled
Intensity correction :  disabled
DWT denoise :  enabled
savitzky-golay :  disabled
FFT :  disabled
Running average :  disabled
Kalman :  disabled
High pass :  disabled
---------------BEGIN--------------------
Wavelength(nm)             Reflectance(%)
200.29               0
200.75        90.87019
201.21         88.3531
201.67        84.80154
202.13        82.46867
202.58        81.76296
203.04        82.47301
203.50        83.71716
203.96        84.12514
204.42        83.46144
204.88        82.22184
205.34         81.4323
205.80        82.32794
206.26        85.65385
206.72        93.35052
207.18        108.0812
207.64        119.5023
208.10        108.3997
208.55        89.22953
209.01        77.69608
209.47        74.08048
209.93        75.04881
210.39        79.12427
210.85        84.27513
211.31        86.09077
211.77        83.14487
212.23        77.10358
212.69        71.35941
213.14        71.22108
213.60        77.36357
214.06        88.08215
214.52        99.65446
214.98        106.5141
215.44        107.2316
215.90         103.684
216.36        98.40576
216.81        94.78729
217.27        94.07551
217.73        95.15709
218.19        96.41721
218.65        95.79018
219.11        92.55164
219.57        86.27056
220.02        78.55535
220.48        76.29124
220.94         82.3697
221.40        94.12011
221.86         103.439
222.32        102.5366
222.77        93.12622
223.23        80.61781
223.69        70.25931
224.15        67.44966
224.61        71.57758
225.06        79.86222
225.52        88.79968
225.98        93.80415
226.44        93.94076
226.90        91.06577
227.36        87.29858
227.81        85.47365
228.27        86.52388
228.73        89.06686
229.19        92.05278
229.65        94.02492
230.10        94.55006
230.56        94.51299
231.02        94.17109
231.48        93.78973
231.93        93.42569
232.39        92.99887
232.85        92.65669
233.31        92.80936
233.77        93.44747
234.22        94.48874
234.68        95.35427
235.14        94.98258
235.60        93.17593
236.05         90.4182
236.51        87.38412
236.97        84.86458
237.43        82.97796
237.88        81.48865
238.34        80.33312
238.80        80.00352
239.26         80.6538
239.71        82.58007
240.17        84.49467
240.63        84.64977
241.08        82.79427
241.54        79.38416
242.00        75.85994
242.46        74.11396
242.91        75.12067
243.37        79.95702
243.83        96.78361
244.28        151.0323
244.74        208.6755
245.20        172.8958
245.66        141.1233
246.11        129.8541
246.57        127.9689
247.03        132.6238
247.48         140.875
247.94        98.55991
248.40        79.81994
248.85        78.36121
249.31        80.24659
249.77        83.72794
250.22        89.11439
250.68        97.83456
251.14        109.4261
251.59        115.2403
252.05        107.8009
252.51        91.86181
252.96         76.1219
253.42        68.18286
253.88        67.34472
254.33        70.88021
254.79        77.70387
255.25        85.48042
255.70        92.38793
256.16         98.6884
256.62        102.8166
257.07        103.1849
257.53        100.8544
257.99        96.39089
258.44        91.45872
258.90        89.08839
259.35        88.41589
259.81        88.60555
260.27         88.0123
260.72        85.02559
261.18        80.48338
261.63         75.0403
262.09        70.12433
262.55        66.58499
263.00        64.36297
263.46        63.13779
263.91        62.23341
264.37        61.36108
264.83         60.2561
265.28         58.9299
265.74        57.58781
266.19        56.19938
266.65        55.02104
267.11        53.99318
267.56        53.02688
268.02        52.04902
268.47        50.94069
268.93        49.76109
269.38        48.58147
269.84        47.72689
270.30        47.26749
270.75        47.13152
271.21        47.11194
271.66         46.8885
272.12        46.37932
272.57        45.65324
273.03        44.92252
273.48        44.41055
273.94        44.19924
274.39        44.14993
274.85         44.1043
275.31        43.79442
275.76        43.15372
276.22        42.31464
276.67         41.4042
277.13        40.73828
277.58        40.30242
278.04        40.04956
278.49        39.76517
278.95        39.24977
279.40        38.43101
279.86        37.48093
280.31         36.4963
280.77        35.76321
281.22        35.28719
281.68        35.01175
282.13         34.8372
282.59        34.69364
283.04        34.51525
283.50        34.36035
283.95        34.14949
284.41        33.80493
284.86        33.30758
285.32        32.69833
285.77        32.09159
286.22        31.74099
286.68        31.66433
287.13        31.75634
287.59        31.83252
288.04        31.58623
288.50        31.00196
288.95        30.16958
289.41        29.29477
289.86        28.56299
290.32        28.08728
290.77        27.77454
291.22        27.60619
291.68        27.51517
292.13        27.46925
292.59        27.49301
293.04        27.56462
293.50        27.65402
293.95        27.73863
294.40        27.79432
294.86        27.82562
295.31        27.85126
295.77        27.88217
296.22        27.92358
296.68        27.95137
297.13        27.89791
297.58        27.78047
298.04        27.64311
298.49        27.58072
298.95        27.77316
299.40        28.22774
299.85        28.87038
300.31        29.55517
300.76        30.06557
301.21        30.32502
301.67        30.42045
302.12        30.38115
302.58        30.30912
303.03        30.22544
303.48        30.11811
303.94        30.06377
304.39        30.14655
304.84        30.37812
305.30        30.72469
305.75        31.05718
306.20        31.18391
306.66        31.08793
307.11         30.8197
307.57         30.5042
308.02        30.25506
308.47        30.13699
308.93        30.10868
309.38         30.1492
309.83        30.25827
310.29        30.40657
310.74         30.5817
311.19        30.72884
311.65        30.76029
312.10        30.65603
312.55        30.44076
313.00        30.14385
313.46        29.83012
313.91         29.5258
314.36        29.23916
314.82        29.01359
315.27        28.89654
315.72        28.89659
316.18        28.99551
316.63         29.1423
317.08        29.22686
317.53        29.21344
317.99        29.11664
318.44        28.98277
318.89        28.89385
319.35        28.86147
319.80        28.86278
320.25        28.83919
320.70        28.70061
321.16        28.43548
321.61        28.08389
322.06        27.71472
322.51        27.42682
322.97        27.23686
323.42        27.12564
323.87        27.04715
324.32        26.92649
324.78        26.74239
325.23        26.52514
325.68        26.30159
326.13        26.11738
326.59         25.9823
327.04        25.89907
327.49        25.84903
327.94        25.80777
328.39         25.7679
328.85        25.72398
329.30        25.72029
329.75        25.79189
330.20        25.94009
330.66        26.13081
331.11        26.32346
331.56        26.40929
332.01        26.36152
332.46        26.19485
332.92        25.97094
333.37        25.83789
333.82        25.83365
334.27        25.94032
334.72         26.0708
335.17        26.07203
335.63        25.90749
336.08        25.62948
336.53        25.36316
336.98        25.31289
337.43        25.51707
337.88        25.90918
338.34        26.31519
338.79        26.49959
339.24        26.37902
339.69        26.02978
340.14        25.61569
340.59        25.42203
341.05        25.51707
341.50        25.80681
341.95        26.15594
342.40        26.36973
342.85        26.39791
343.30        26.31553
343.75        26.15993
344.20        25.99489
344.66        25.85306
345.11        25.68017
345.56        25.52871
346.01        25.47901
346.46        25.53031
346.91        25.67803
347.36        25.78584
347.81        25.63005
348.26        25.19552
348.72        24.59146
349.17        23.99912
349.62        23.79462
350.07        24.05948
350.52        24.65723
350.97        25.38839
351.42        25.95052
351.87        26.24313
352.32        26.34162
352.77        26.28743
353.22        26.15233
353.67        25.97519
354.13        25.73955
354.58        25.46321
355.03         25.2193
355.48        25.03062
355.93         24.9042
356.38        24.82023
356.83         24.7298
357.28        24.61583
357.73        24.48501
358.18        24.35217
358.63        24.23987
359.08        24.15339
359.53        24.09007
359.98        24.01409
360.43        23.87374
360.88        23.66391
361.33        23.39479
361.78        23.14265
362.23        23.03158
362.68        23.07392
363.13        23.22035
363.58        23.35171
364.03        23.28168
364.48        22.97594
364.93        22.50571
365.38        21.97679
365.83        21.55949
366.28        21.31062
366.73        21.17991
367.18        21.14099
367.63        21.14776
368.08        21.16866
368.53        21.21667
368.98        21.25112
369.43         21.2024
369.88        21.06318
370.33        20.85271
370.78        20.61796
371.23        20.44828
371.68        20.37132
372.13         20.3563
372.58        20.39874
373.03        20.48542
373.48        20.59432
373.93        20.72681
374.38        20.81943
374.83         20.7743
375.28        20.58056
375.72        20.25642
376.17        19.91661
376.62        19.71056
377.07        19.67894
377.52        19.77647
377.97        19.92633
378.42        20.00089
378.87        19.96174
379.32        19.84893
379.77        19.70255
380.22        19.57855
380.67        19.49143
381.11        19.42048
381.56        19.34248
382.01        19.23264
382.46        19.08645
382.91        18.91736
383.36        18.75034
383.81        18.62014
384.26        18.53658
384.71        18.49353
385.15         18.4555
385.60        18.38119
386.05        18.25503
386.50        18.08377
386.95        17.91342
387.40        17.82562
387.85        17.83587
388.29        17.90931
388.74        17.98543
389.19         17.9579
389.64        17.81443
390.09        17.58328
390.54         17.3441
390.98        17.23104
391.43        17.28258
391.88        17.44201
392.33         17.6157
392.78        17.66558
393.23        17.57111
393.67        17.37689
394.12        17.17929
394.57        17.05239
395.02        17.01676
395.47        17.03823
395.91        17.09757
396.36         17.1397
396.81        17.14891
397.26        17.13059
397.71        17.08813
398.15        17.00738
398.60        16.91686
399.05        16.82698
399.50        16.72911
399.95        16.56273
400.39        16.40225
400.84        16.20411
401.29         16.0449
401.74        16.03028
402.18        16.18761
402.63        16.45878
403.08        16.75434
403.53         16.9287
403.97         16.9405
404.42        16.82694
404.87        16.63871
405.32        16.46964
405.76          16.356
406.21        16.28232
406.66        16.23412
407.11        16.19305
407.55        16.15785
408.00        16.13445
408.45         16.1324
408.90        16.15338
409.34        16.19257
409.79        16.24009
410.24        16.29107
410.68        16.34345
411.13        16.40013
411.58        16.46284
412.03        16.51674
412.47        16.54134
412.92        16.52222
413.37        16.46484
413.81        16.40328
414.26        16.40723
414.71        16.47571
415.15        16.58931
415.60        16.67556
416.05        16.63515
416.49        16.45065
416.94         16.1738
417.39        15.86571
417.83        15.63177
418.28        15.51908
418.73        15.48855
419.17        15.53949
419.62        15.66148
420.07        15.83479
420.51         16.0576
420.96        16.25362
421.41         16.2899
421.85        16.14075
422.30        15.87233
422.74        15.57606
423.19        15.41891
423.64        15.42037
424.08          15.543
424.53        15.71601
424.98        15.84297
425.42        15.89286
425.87        15.88593
426.31        15.84002
426.76        15.82943
427.21        15.84297
427.65        15.74883
428.10        15.62392
428.54        15.69319
428.99         15.9702
429.44        16.36203
429.88        16.69215
430.33        16.73613
430.77        16.46229
431.22        15.94875
431.66        15.41236
432.11        15.24353
432.56        15.47645
433.00        15.91268
433.45        16.35005
433.89         16.6414
434.34        16.66319
434.78        16.31967
435.23        15.86839
435.67        15.82734
436.12         16.1474
436.57        16.26178
437.01        16.11608
437.46        16.02644
437.90        16.02381
438.35        16.01869
438.79        15.98966
439.24         15.9481
439.68        15.90257
440.13        15.78901
440.57        15.66257
441.02        15.82088
441.46        16.14938
441.91        16.06656
442.35        15.64615
442.80        15.47388
443.24        15.52358
443.69        15.56675
444.13        15.54327
444.58        15.35912
445.02         15.0805
445.47        15.04142
445.91        15.18972
446.36         15.1683
446.80        14.95934
447.24        14.77264
447.69        14.65884
448.13        14.59619
448.58        14.60111
449.02        14.67267
449.47        14.76838
449.91        14.81685
450.36        14.80236
450.80        14.73938
451.25         14.6673
451.69        14.63789
452.13        14.66683
452.58        14.72454
453.02        14.78945
453.47         14.8258
453.91        14.82656
454.36        14.80986
454.80        14.77548
455.24        14.72046
455.69        14.65945
456.13        14.58751
456.58        14.54876
457.02        14.58628
457.46        14.71004
457.91        14.89631
458.35        15.09287
458.79        15.20988
459.24        15.23428
459.68        15.17601
460.13         15.0949
460.57        15.04625
461.01        15.06251
461.46        15.12025
461.90        15.18859
462.34        15.20896
462.79        15.16638
463.23        15.07544
463.68        14.99141
464.12        15.00574
464.56        15.13654
465.01        15.35943
465.45        15.56313
465.89        15.64209
466.34        15.58975
466.78        15.35477
467.22         15.0743
467.67        15.12301
468.11        15.45983
468.55        15.61878
468.99        15.54655
469.44        15.47475
469.88        15.45698
470.32        15.55022
470.77        15.70429
471.21        15.72359
471.65        15.59011
472.10        15.45988
472.54        15.37878
472.98        15.36995
473.42        15.44881
473.87        15.61223
474.31        15.79816
474.75        15.90362
475.20        15.91039
475.64        15.83808
476.08        15.74929
476.52        15.74137
476.97        15.83573
477.41        16.00498
477.85        16.18027
478.29        16.28196
478.74        16.29122
479.18        16.15494
479.62        15.94955
480.06           16.06
480.50        16.17406
480.95        16.31493
481.39        16.32599
481.83        16.30192
482.27        16.23675
482.72          16.016
483.16        15.74331
483.60        15.77934
484.04        16.12984
484.48        16.35638
484.93         16.6235
485.37        17.01161
485.81        17.47362
486.25        17.83592
486.69        23.37391
487.14          18.906
487.58        12.16056
488.02         14.6492
488.46         16.7722
488.90        16.68425
489.34        16.90464
489.79        16.78758
490.23         17.6464
490.67        18.12079
491.11        17.99826
491.55        17.87428
491.99        17.71081
492.43        17.50633
492.88        17.33708
493.32        17.32835
493.76        17.36671
494.20        17.53531
494.64        17.77638
495.08        18.07962
495.52        18.40593
495.96        18.69258
496.41        18.88249
496.85        19.00764
497.29        19.06918
497.73        18.84379
498.17        18.56208
498.61        18.71345
499.05        19.29636
499.49        19.39472
499.93        19.47451
500.37        19.56502
500.82        19.61721
501.26        19.83321
501.70        20.11058
502.14        20.28149
502.58        20.30104
503.02         20.2928
503.46        20.26021
503.90        20.11432
504.34        19.91994
504.78        19.82956
505.22        19.87139
505.66        20.00995
506.10        20.18677
506.54        20.29847
506.98         20.3164
507.42        20.27402
507.86        20.22765
508.30        20.26381
508.74         20.3989
509.18        20.59588
509.62        20.80413
510.06        20.94374
510.50         20.9942
510.94        20.99015
511.38        20.95711
511.82        20.93325
512.26        20.93459
512.70         20.9416
513.14        20.97311
513.58        21.06166
514.02        21.19486
514.46        21.35724
514.90        21.48883
515.34        21.45802
515.78        21.22094
516.22        20.97695
516.66        20.81555
517.10        20.43188
517.54        19.85427
517.98        20.67818
518.42        20.52471
518.86        20.90064
519.30        21.07367
519.74        21.27499
520.18        21.44946
520.62        21.47944
521.06        21.38062
521.50        21.16489
521.93        20.91206
522.37        20.76633
522.81        20.76332
523.25        20.86439
523.69        21.01489
524.13        21.12646
524.57        21.16982
525.01        21.16995
525.45        21.14098
525.89         21.1051
526.32        21.06945
526.76        21.02415
527.20        20.96548
527.64        20.89985
528.08        20.83323
528.52        20.74893
528.96        20.64996
529.40        20.59448
529.83        20.59738
530.27        20.43622
530.71        20.49762
531.15        20.42837
531.59        20.34805
532.03        20.25094
532.46        20.18756
532.90        20.23968
533.34        20.40484
533.78        20.64743
534.22        20.87864
534.66         20.9694
535.09        20.89035
535.53        20.69161
535.97        20.44065
536.41        20.25075
536.85        20.16055
537.28        20.14316
537.72        20.17055
538.16        20.19669
538.60        20.20607
539.04        20.19944
539.47        20.19544
539.91        20.26989
540.35        20.40418
540.79        20.50164
541.22        20.54563
541.66        20.59449
542.10         20.6454
542.54        20.65269
542.97        20.65166
543.41        20.73247
543.85        20.90276
544.29        21.14719
544.72        21.39419
545.16        21.54023
545.60         21.5646
546.04        21.49334
546.47        21.42724
546.91         21.5367
547.35        21.83973
547.79        22.28234
548.22        22.72134
548.66        22.91397
549.10        22.82858
549.53        22.58156
549.97        22.31914
550.41         22.2069
550.84        22.30058
551.28        22.56051
551.72        22.91894
552.15         23.2508
552.59        23.50204
553.03         23.7028
553.46        23.85651
553.90        23.98777
554.34        24.11031
554.77        24.18516
555.21        24.21255
555.65        24.27175
556.08        24.38192
556.52        24.23363
556.96        24.40392
557.39         24.4464
557.83        24.53884
558.27        24.65577
558.70        24.79613
559.14        24.94177
559.57        25.07257
560.01        25.19852
560.45        25.29635
560.88        25.33031
561.32         25.3187
561.75        25.26207
562.19        25.20346
562.63        25.17409
563.06        25.18262
563.50        25.22658
563.93        25.30411
564.37        25.42325
564.80        25.56994
565.24        25.74903
565.68        25.92496
566.11        26.04546
566.55        26.12074
566.98        26.15746
567.42        26.20598
567.85        26.33968
568.29        26.58848
568.72         26.8481
569.16        27.10959
569.60        27.47359
570.03        27.81209
570.47        27.80392
570.90        27.58143
571.34        27.33215
571.77          27.702
572.21        27.83325
572.64        27.92811
573.08        27.67459
573.51        26.76085
573.95        27.91071
574.38        29.63636
574.82        29.03538
575.25        28.83749
575.69        27.89579
576.12         27.5193
576.56        27.29966
576.99        27.92513
577.42        29.16387
577.86        29.51762
578.29        28.79875
578.73        30.59443
579.16        28.04777
579.60        25.63392
580.03        26.75361
580.47        28.47459
580.90        29.08882
581.33        28.58848
581.77        28.12228
582.20        30.90389
582.64        30.55351
583.07        26.15087
583.51        25.49272
583.94        24.75898
584.37        25.62356
584.81        26.80038
585.24        28.20881
585.68        28.94373
586.11         28.4066
586.54        26.43031
586.98        25.65095
587.41        25.70406
587.85        26.84464
588.28        27.99987
588.71        26.42373
589.15        25.59151
589.58        26.19722
590.01        26.33686
590.45        26.82608
590.88        26.67181
591.31        26.36625
591.75        26.38745
592.18        26.46073
592.61         26.9321
593.05        27.27102
593.48        28.65095
593.91         28.8738
594.35        26.29522
594.78        25.83979
595.21        26.04576
595.65        27.35205
596.08        28.31345
596.51        27.34578
596.94        26.85225
597.38        27.37955
597.81        28.71265
598.24        29.35633
598.68        28.99367
599.11        28.93747
599.54        30.32674
599.97        31.14476
600.41        29.53501
600.84        29.89379
601.27        30.71404
601.70        30.59333
602.14        30.79459
602.57        30.69168
603.00        31.33638
603.43        32.58412
603.87        33.93343
604.30        34.07233
604.73        33.21269
605.16        33.10286
605.60          33.837
606.03        34.88535
606.46        35.88257
606.89        35.94666
607.32        35.32043
607.76        35.87956
608.19        37.17414
608.62        37.04508
609.05        36.77938
609.48        37.35367
609.92        37.52511
610.35        37.94538
610.78        39.56845
611.21        40.26189
611.64        38.88224
612.07        39.55174
612.50        40.04353
612.94        40.59461
613.37        40.61532
613.80        41.02893
614.23        41.65493
614.66         41.9489
615.09        42.43584
615.52        42.73737
615.96         42.9234
616.39        43.23982
616.82         42.9474
617.25        42.96231
617.68        43.60152
618.11        44.33107
618.54        45.05232
618.97        45.02637
619.40        44.50388
619.84         44.6143
620.27        45.35474
620.70        46.01261
621.13        46.44521
621.56        46.07965
621.99        45.70834
622.42         46.2837
622.85         47.6608
623.28        47.59902
623.71        47.04728
624.14        47.23198
624.57        47.06929
625.00        46.63856
625.43        46.96778
625.86        46.50615
626.29         46.5442
626.72        46.72949
627.15        46.46369
627.58        46.39221
628.01        46.22516
628.44        46.19875
628.87          45.942
629.30         45.7939
629.73        45.59306
630.16        45.46244
630.59        44.93699
631.02        44.47042
631.45        43.97885
631.88        43.51382
632.31        43.08972
632.74        42.69916
633.17        42.32655
633.60        41.93378
634.03        41.51267
634.46        41.07713
634.89        40.63243
635.32        40.18595
635.75        39.74346
636.18        39.30359
636.61        38.86902
637.04        38.44156
637.47        38.01779
637.89        37.59973
638.32        37.17986
638.75        36.77151
639.18        36.38445
639.61        36.02647
640.04         35.6923
640.47        35.36674
640.90        35.04905
641.33        34.74142
641.76        34.45641
642.18         34.2662
642.61        34.17799
643.04        34.09179
643.47        33.96012
643.90        34.14746
644.33         33.9374
644.76        33.91372
645.18        33.87606
645.61        33.86009
646.04        33.86441
646.47        33.87379
646.90        33.93397
647.33        34.09816
647.75        34.39282
648.18        34.81696
648.61        35.24591
649.04        35.56151
649.47        35.72083
649.89        35.49004
650.32        35.18486
650.75        35.70112
651.18        36.92588
651.61         37.8789
652.03        38.33365
652.46        38.55394
652.89        38.83006
653.32        39.07008
653.74        39.46057
654.17        40.72921
654.60        41.66136
655.03         40.5694
655.46        42.14957
655.88         45.1453
656.31        48.87011
656.74        112.5624
657.16        73.94167
657.59        25.87737
658.02        19.49184
658.45        33.98236
658.87        44.10216
659.30        46.79442
659.73         46.7412
660.15        45.33017
660.58        47.21309
661.01        48.96513
661.44        48.26168
661.86        48.15108
662.29         48.1698
662.72        48.96214
663.14        50.40172
663.57        50.83693
664.00        50.38209
664.42        50.55346
664.85        51.41431
665.27        52.02802
665.70        52.24098
666.13        52.34335
666.55        52.33024
666.98        52.13204
667.41        51.90352
667.83        51.92741
668.26        52.26845
668.69        52.82311
669.11        53.40123
669.54        53.95131
669.96        53.90424
670.39        53.75244
670.82        53.52508
671.24        53.55092
671.67        53.91255
672.09        54.45452
672.52        54.96191
672.94        55.52748
673.37        55.19622
673.80        55.23657
674.22        55.41478
674.65        55.53118
675.07          55.575
675.50        55.56059
675.92        55.55927
676.35        55.70883
676.77        56.02916
677.20        56.42383
677.62        56.81829
678.05        57.09423
678.47          57.209
678.90        57.20585
679.32         57.1796
679.75        57.17455
680.17        57.45042
680.60        57.78923
681.02        58.13869
681.45        58.27784
681.87        58.18526
682.30        57.94058
682.72         57.7118
683.15        57.77619
683.57        58.20161
684.00        58.78554
684.42        59.53745
684.85        59.96003
685.27        60.02305
685.70        59.83348
686.12        59.54043
686.54        59.42377
686.97        59.54554
687.39        59.81039
687.82        60.10864
688.24        60.37345
688.66        60.51181
689.09        60.42694
689.51        60.24377
689.94        60.27447
690.36        60.57126
690.78        60.97694
691.21        61.38757
691.63        61.68842
692.06        61.83879
692.48        61.88724
692.90         61.8995
693.33        61.96241
693.75        62.10558
694.17        62.30925
694.60        62.55504
695.02        62.77045
695.44        62.90251
695.87        63.19558
696.29        63.63492
696.71        63.50666
697.14         63.1017
697.56        63.79848
697.98        65.29311
698.41        65.34908
698.83        64.61217
699.25        64.09109
699.68        64.10263
700.10        64.01826
700.52        63.88721
700.94        64.06341
701.37        64.47799
701.79        64.91904
702.21        65.29453
702.64        65.66179
703.06        65.95435
703.48        66.05668
703.90        65.97541
704.33        65.75112
704.75        65.47791
705.17        65.39767
705.59        65.57235
706.01        65.82333
706.44        66.08896
706.86        66.79751
707.28        67.00185
707.70        67.52291
708.12        67.97719
708.55        67.91491
708.97        67.44216
709.39        67.26563
709.81        67.45359
710.23        67.51657
710.66        67.46635
711.08        67.67952
711.50        68.04704
711.92        68.21983
712.34        68.15401
712.76        67.93742
713.19        67.71247
713.61        67.73621
714.03        68.04772
714.45        68.56013
714.87        69.07202
715.29        69.27229
715.71        69.09888
716.13        68.65691
716.56        68.15528
716.98        67.95983
717.40        68.15709
717.82        68.63567
718.24        69.22076
718.66         69.6139
719.08        69.72309
719.50        69.64003
719.92        69.46205
720.34        69.36327
720.76        69.40225
721.19        69.40691
721.61        69.57141
722.03        69.72733
722.45        69.91644
722.87        70.14575
723.29          70.387
723.71        70.57793
724.13        70.69648
724.55        70.74971
724.97        70.76209
725.39        70.76817
725.81        70.78116
726.23        70.84042
726.65        70.93065
727.07         70.9163
727.49        70.85105
727.91        70.99905
728.33         71.3237
728.75         71.5425
729.17        71.61833
729.59        71.66845
730.01        71.75337
730.43        71.91599
730.85        72.17511
731.27        72.53903
731.69        72.89234
732.10        73.03242
732.52        72.91792
732.94        72.64435
733.36        72.40952
733.78        72.38727
734.20         72.6275
734.62        73.40391
735.04        74.40539
735.46        74.37805
735.88        73.56305
736.30        73.64675
736.72        74.66315
737.13         75.2104
737.55        74.97893
737.97        74.97334
738.39        75.19948
738.81        74.33637
739.23        72.95287
739.65        73.93668
740.06        76.70174
740.48         77.1766
740.90        75.40651
741.32        74.60664
741.74        75.09515
742.16        75.36053
742.57        75.45995
742.99         76.2697
743.41        77.50381
743.83        78.11231
744.25        77.99306
744.67        77.65955
745.08        77.37014
745.50        77.30395
745.92        77.57375
746.34        78.16019
746.75        78.87196
747.17        79.31123
747.59        79.42152
748.01        79.37083
748.42        79.29622
748.84        79.44001
749.26         79.9232
749.68        80.42085
750.09        80.89378
750.51        81.97166
750.93        83.21186
751.35        82.84161
751.76        81.23888
752.18         80.6861
752.60        81.24374
753.01        81.46162
753.43        81.30009
753.85        81.43976
754.27         81.8586
754.68        82.89791
755.10        83.30917
755.52        83.92139
755.93        84.31238
756.35        84.44498
756.77        84.45049
757.18        84.46965
757.60        84.58582
758.02        85.11511
758.43        85.55981
758.85        85.14173
759.26        82.89677
759.68        82.27071
760.10         84.5672
760.51        85.76121
760.93        84.97437
761.34        84.19049
761.76        83.48351
762.18        82.65675
762.59        82.11959
763.01        82.63974
763.42        84.21311
763.84        85.33517
764.26        85.78834
764.67         85.7192
765.09        85.30867
765.50         85.4401
765.92        85.84286
766.33        84.61861
766.75        82.33217
767.16         81.5054
767.58        82.39944
768.00        83.91789
768.41        85.69044
768.83        87.26252
769.24        87.99525
769.66        87.50545
770.07        86.24522
770.49        84.57314
770.90        83.08017
771.32        84.03442
771.73        86.68295
772.15        86.22997
772.56        83.15639
772.97        82.46213
773.39        84.11067
773.80        84.76395
774.22        84.16646
774.63        84.17971
775.05        84.73407
775.46        85.00947
775.88        84.89205
776.29        84.59979
776.70        84.28289
777.12        83.99992
777.53        84.28342
777.95        84.59009
778.36        84.90977
778.77        84.97732
779.19        84.78867
779.60        84.44672
780.02        84.09286
780.43         84.0958
780.84        84.59948
781.26        84.85255
781.67        84.94966
782.09        86.48226
782.50         88.6837
782.91        87.86903
783.33        84.83454
783.74        83.88788
784.15         85.2209
784.57         86.1515
784.98         86.2805
785.39        86.15105
785.81        85.78372
786.22         85.3223
786.63         85.0491
787.04        85.09863
787.46        85.53001
787.87        86.48763
788.28        87.67397
788.70        88.27672
789.11        88.13064
789.52        87.76961
789.93         87.3532
790.35        86.50914
790.76        85.58518
791.17        85.78764
791.58        86.91238
792.00        87.35223
792.41        86.89976
792.82        86.64657
793.23        86.76837
793.65         86.1541
794.06        85.30247
794.47        86.72586
794.88        89.47108
795.29        89.40459
795.71         86.7049
796.12        84.50608
796.53        83.48536
796.94        82.87412
797.35         82.9039
797.76        84.23932
798.18        86.22872
798.59        87.43247
799.00        87.42162
799.41         86.5774
799.82        85.39317
800.23        84.68249
800.64         84.6688
801.06        85.00983
801.47        85.56354
801.88         85.9952
802.29        86.16394
802.70        86.19722
803.11        86.15469
803.52        86.07998
803.93        86.02798
804.34        86.01221
804.75        86.04121
805.17        86.09007
805.58        86.48693
805.99        86.66058
806.40        86.65959
806.81        87.56848
807.22        88.73598
807.63        87.39822
808.04        84.29224
808.45        82.98595
808.86        83.76669
809.27        84.79369
809.68        85.59694
810.09        86.15388
810.50        86.23849
810.91        85.88395
811.32        85.34698
811.73        85.02748
812.14        85.03225
812.55        85.25763
812.96        85.63712
813.37        85.88084
813.78        85.99065
814.19        86.43533
814.60        86.94149
815.01        86.75723
815.42        85.84146
815.83        84.47263
816.24        83.18417
816.65        82.81844
817.05        83.62997
817.46        85.33484
817.87        87.23576
818.28        88.08465
818.69        87.55396
819.10        85.96046
819.51        84.05747
819.92        83.21572
820.33         83.8018
820.74        85.14941
821.14        86.61546
821.55         87.6737
821.96        87.76437
822.37        85.92339
822.78        83.04561
823.19        81.65093
823.60        82.10217
824.00        83.29395
824.41        84.62518
824.82        85.59145
825.23        85.84252
825.64        85.57796
826.04        85.04366
826.45        84.59551
826.86        84.35406
827.27        84.16477
827.68        84.04366
828.08        84.08171
828.49        84.21252
828.90        84.52679
829.31        84.86882
829.72        84.90824
830.12        84.60791
830.53        84.04733
830.94        83.52912
831.35        83.47971
831.75        84.02205
832.16         84.9564
832.57        86.07166
832.97         86.9109
833.38        87.21622
833.79        87.11454
834.20        86.77489
834.60        86.45538
835.01        86.27538
835.42        86.15976
835.82        86.03242
836.23        85.69167
836.64        85.16007
837.04        84.54504
837.45        84.04176
837.86        83.94697
838.26        84.31823
838.67        85.00501
839.08         85.7906
839.48        86.27972
839.89        86.30222
840.29        85.98902
840.70        85.46458
841.11        84.90299
841.51        84.39754
841.92         83.8914
842.33        83.47881
842.73        83.32716
843.14        83.42104
843.54        83.76303
843.95        84.16688
844.35        84.37581
844.76        84.29971
845.17        84.02146
845.57        83.64542
845.98        83.35761
846.38        83.21632
846.79        83.13611
847.19         83.1397
847.60         83.1672
848.00        83.23846
848.41        83.35484
848.81        83.49474
849.22        83.54268
849.62        83.53822
850.03        83.50243
850.43        83.55473
850.84        83.80595
851.24        84.32359
851.65        84.85725
852.05        85.47349
852.46        86.09501
852.86        86.67332
853.27        87.27398
853.67        87.43239
854.07        86.56187
854.48        84.74743
854.88         82.2216
855.29         79.8799
855.69        79.01663
856.10        79.87087
856.50        82.28653
856.90        85.43983
857.31        87.39527
857.71        87.50258
858.12        86.21704
858.52        84.38055
858.92        83.13577
859.33        82.74488
859.73        82.90688
860.13        83.44212
860.54        83.99133
860.94        84.48249
861.34        85.01733
861.75        85.56829
862.15        86.15396
862.55        86.71687
862.96        87.16524
863.36        87.48984
863.76        87.66058
864.17        87.67541
864.57        87.61133
864.97         87.4954
865.38        87.35337
865.78        87.25921
866.18        87.15098
866.58        87.11631
866.99         87.2753
867.39        87.71144
867.79        88.43031
868.19        89.13621
868.60        89.25945
869.00        88.69165
869.40        87.56986
869.80        86.56815
870.21        86.74393
870.61        88.39381
871.01        91.17606
871.41        94.19223
871.81        95.91362
872.22        95.91444
872.62        94.64839
873.02        92.99939
873.42        92.41609
873.82        93.17267
874.22        94.79115
874.63        96.68696
875.03         97.5863
875.43        96.93496
875.83        95.54317
876.23        93.90951
876.63        93.66435
877.03        95.18997
877.44        98.83756
877.84        98.58864
878.24        106.9087
878.64        105.7539
879.04        102.3313
879.44        99.76287
879.84        98.31789
880.24        99.24755
880.64        100.8919
881.04        103.2201
881.44        104.6499
881.84        104.0467
882.24        102.0871
882.65        99.99903
883.05         99.2298
883.45        100.0287
883.85        102.0141
884.25         104.387
884.65        105.6756
885.05        105.3991
885.45        104.1023
885.85        102.5622
886.25        101.8179
886.65        102.1022
887.05        103.0479
887.45        104.2907
887.85        105.1922
888.25        105.4965
888.65        105.4521
889.04        105.1455
889.44        104.7481
889.84        104.3276
890.24        103.7679
890.64        103.2532
891.04        103.0961
891.44         103.319
891.84        103.8936
892.24        104.4366
892.64        104.2351
893.04        103.2361
893.44        101.8006
893.83        100.4955
894.23        100.1483
894.63        100.8844
895.03        102.3659
895.43        104.3538
895.83        106.3638
896.23         108.068
896.63        109.5657
897.02        110.4241
897.42        109.9851
897.82        108.2908
898.22        105.6113
898.62         102.908
899.01        101.5982
899.41        101.9804
899.81        103.6018
900.21        105.7028
900.61        107.0075
901.00        107.1313
901.40        106.4727
901.80        105.4477
902.20        104.7115
902.59        104.4767
902.99        104.4958
903.39        104.6069
903.79        104.5678
904.18        104.3086
904.58        104.0082
904.98        103.7848
905.38        103.7807
905.77         103.997
906.17        104.3396
906.57        104.7209
906.96        105.0808
907.36        105.3272
907.76        105.4914
908.15        105.5053
908.55        105.1467
908.95        104.4555
909.34         103.467
909.74        102.4908
910.14          101.83
910.53        101.6108
910.93        101.8346
911.33        102.3532
911.72        102.8865
912.12        103.2549
912.52        103.4473
912.91        103.6838
913.31        104.3209
913.70        105.4711
914.10        107.0864
914.49        108.6687
914.89        108.8139
915.29        107.1741
915.68        104.2636
916.08         101.541
916.47        100.3724
916.87        100.9019
917.26        102.7008
917.66        104.7512
918.05        105.3952
918.45        104.2188
918.84        101.8169
919.24        99.30542
919.64        98.30663
920.03        99.23965
920.42        101.6085
920.82        104.5126
921.21        106.5057
921.61        106.9225
922.00        106.2496
922.40        105.0581
922.79        104.0863
923.19        103.5774
923.58        103.3668
923.98        103.2649
924.37        102.7202
924.77        101.7702
925.16        100.8753
925.55        100.1846
925.95        100.6758
926.34        102.3879
926.74        104.7979
927.13        107.1855
927.52        108.2113
927.92        107.6944
928.31        106.0471
928.70        103.8139
929.10        101.9109
929.49        100.6353
929.89        99.78699
930.28        99.52614
930.67        100.1194
931.07        101.3974
931.46        103.3393
931.85        105.2531
932.24        106.0976
932.64         105.677
933.03        104.1674
933.42        101.9626
933.82        100.0992
934.21        98.94517
934.60        98.33179
934.99        98.11572
935.39        98.03751
935.78        98.05306
936.17        98.32369
936.56        98.62517
936.96        98.58913
937.35        97.72368
937.74        96.59348
938.13        95.82891
938.53        96.19473
938.92        97.68195
939.31         100.198
939.70        102.9462
940.09        103.8443
940.49        102.2294
940.88        99.02452
941.27         95.7028
941.66        93.96018
942.05        94.03585
942.44        95.38515
942.84         97.4629
943.23        99.40804
943.62        100.6973
944.01        101.4938
944.40        101.8878
944.79        102.0378
945.18         101.998
945.57        101.6514
945.97        100.7033
946.36         98.9285
946.75        96.67638
947.14        94.47174
947.53        92.95592
947.92        92.59113
948.31         93.2964
948.70        94.95177
949.09        97.11432
949.48        98.65957
949.87        99.01366
950.26         98.3471
950.65        97.20564
951.04        96.50961
951.43        96.51209
951.82        96.96629
952.21        97.41972
952.60        97.17558
952.99        96.09429
953.38        94.43695
953.77        92.83336
954.16        92.14551
954.55        92.53071
954.94         93.8027
955.33        95.16149
955.72        95.27409
956.11        93.84381
956.50        91.19351
956.89        88.51857
957.28        88.01622
957.66        90.32256
958.05        94.49095
958.44        98.94888
958.83        101.3621
959.22        101.1583
959.61        98.97113
960.00        95.88396
960.39        93.67456
960.78        92.91976
961.16        93.18841
961.55        93.70673
961.94        93.19695
962.33        91.40789
962.72        88.94814
963.11        86.73147
963.49        85.88538
963.88        86.58676
964.27        88.52958
964.66        90.93117
965.04        92.14719
965.43        91.47077
965.82         89.5245
966.21        87.36057
966.60        86.33024
966.98        86.68993
967.37        87.97034
967.76        89.58398
968.15        90.40845
968.53        90.06748
968.92        88.95363
969.31        87.61609
969.69        86.72588
970.08           86.47
970.47         86.6668
970.86        87.02158
971.24        87.06059
971.63         86.6261
972.02        85.85549
972.40        85.23846
972.79        85.56386
973.17        87.14401
973.56        89.62276
973.95        92.20595
974.33        93.37421
974.72        92.64214
975.11        90.51833
975.49        88.10143
975.88        86.90891
976.26        87.16307
976.65        88.51863
977.04        90.13133
977.42        89.97785
977.81        87.45148
978.19        83.54035
978.58        80.14906
978.96         79.1202
979.35         80.7027
979.74        84.40114
980.12        89.58956
980.51         93.5575
980.89        95.25687
981.28        95.21828
981.66        93.99975
982.05        92.41141
982.43        90.80738
982.82        89.04266
983.20        87.69579
983.59        87.76846
983.97        89.51392
984.35         92.8485
984.74        96.86243
985.12        99.59818
985.51        99.72314
985.89        97.63045
986.28        94.02402
986.66        90.23599
987.04        87.26707
987.43        85.04582
987.81        83.57642
988.20        82.77971
988.58        82.51119
988.96        82.86627
989.35        84.21366
989.73        87.04247
990.12        90.37747
990.50        93.38203
990.88        94.78504
991.27         94.2662
991.65        92.27316
992.03        88.93847
992.42        85.29459
992.80        83.18361
993.18        83.33494
993.56        84.77667
993.95        86.64586
994.33        88.33437
994.71        89.51451
995.10        90.59946
995.48        91.20554
995.86        90.55367
996.24        88.51035
996.63        84.93907
997.01        80.87881
997.39        79.41216
997.77        81.82032
998.15        87.27177
998.54        93.03735
998.92        95.54893
999.30        93.70703
999.68        88.54296
1000.06        81.35923
1000.45        75.54119
1000.83        72.70122
1001.21        71.83634
1001.59        72.57523
1001.97        74.59461
1002.35        77.67081
1002.73        82.57832
1003.12        87.84299
1003.50        88.79226
1003.88        83.49835
1004.26        74.33809
1004.64        65.83598
1005.02        61.84032
1005.40        62.66986
1005.78        68.20319
1006.16        79.15036
1006.54        90.24134
1006.92         94.5512
1007.30        93.73073
1007.69        91.63058
1008.07        91.17005
1008.45        92.99926
1008.83        97.44066
1009.21        106.7764
1009.59        121.6404
1009.97         126.362
1010.35        86.65253
1010.73        45.94036
1011.11        45.72341
1011.49        56.75322
1011.86        68.96155
1012.24        76.66093
1012.62        79.17378
1013.00        78.15502
1013.38        74.23418
1013.76         70.2101
1014.14         75.7739
1014.52         99.1153
1014.90        143.0344
1015.28        196.8107
1015.66        228.7602
1016.04        218.5991
1016.41        170.0189
1016.79        109.7059
1017.17        70.70356
1017.55        56.44527
1017.93        53.78568
1018.31        56.32024
1018.69        61.02382
1019.06        67.57411
1019.44        77.98263
1019.82         94.3875
1020.20        114.7528
1020.58        135.0964
1020.95        150.4048
1021.33        154.3751
1021.71        21.47879
1022.09        114.9701
1022.46        118.2846
1022.84        119.2954
1023.22         122.308
1023.60        131.3792
1023.97        216.2388
1024.35        75.73212
1024.73        95.80295
