SpectraSmart Spectrum 2.9.0.0
--------- Device Information -----------
Spectrum Name :  反射率_0
Saving Time :  2024/04/25 23:58:20
Spectro-Module Model Name : SE2030-DUVN
Spectro-Module Serial Number : OS361AC55029948
Wavelength Start : 200
Wavelength End : 1025
Wavelength Unit : Wavelength(nm)
Spectrum Unit : Reflectance(%)
-----------Spectrum Setting ------------
Integration Time : 20ms
Average : 10
Boxcar : 0
Background removal :  enabled
linearity correction :  enabled
SC :  disabled
Intensity correction :  disabled
DWT denoise :  enabled
savitzky-golay :  disabled
FFT :  disabled
Running average :  disabled
Kalman :  disabled
High pass :  disabled
---------------BEGIN--------------------
Wavelength(nm)             Reflectance(%)
200.29               0
200.75        81.86984
201.21        79.95961
201.67        76.48501
202.13        72.54977
202.58        68.54075
203.04        64.42245
203.50        60.98762
203.96        59.91767
204.42        61.19897
204.88        63.85486
205.34        66.54077
205.80        67.96263
206.26        67.91621
206.72        66.29185
207.18        61.45381
207.64         53.8011
208.10        50.78447
208.55        52.56735
209.01        55.30571
209.47        58.17351
209.93        61.45524
210.39         65.9621
210.85        70.60786
211.31        72.32256
211.77        70.11836
212.23        64.94173
212.69        59.69147
213.14        59.08381
213.60        63.66053
214.06        72.18066
214.52        81.24136
214.98        85.62067
215.44        84.16861
215.90         78.6928
216.36         72.0258
216.81        68.05447
217.27         67.7883
217.73        69.75232
218.19        71.63015
218.65        70.38856
219.11        64.86132
219.57        54.30689
220.02        40.03581
220.48        30.70525
220.94        31.50647
221.40         40.6669
221.86        49.80666
222.32        49.90158
222.77        42.06456
223.23        31.25609
223.69        22.67563
224.15        21.63536
224.61        27.36386
225.06        36.93523
225.52        46.42906
225.98        50.83193
226.44        49.21941
226.90        43.81001
227.36        37.11047
227.81        32.46865
228.27        31.07283
228.73        31.65462
229.19        33.50656
229.65        35.59312
230.10        37.37643
230.56        39.08489
231.02        40.61401
231.48        41.78293
231.93        42.59576
232.39        43.04045
232.85        43.15998
233.31        43.11825
233.77        42.94003
234.22        42.56244
234.68        41.99195
235.14        41.20393
235.60        40.28339
236.05        39.40816
236.51        38.59929
236.97        37.71736
237.43        36.76134
237.88        35.81451
238.34        35.21609
238.80        35.87759
239.26        38.14711
239.71        41.74348
240.17        45.88664
240.63        49.65639
241.08        52.60036
241.54        54.64174
242.00        55.74665
242.46        55.98313
242.91        55.40393
243.37        52.93118
243.83        46.77045
244.28        39.99634
244.74        57.01308
245.20        78.91602
245.66        84.40426
246.11        86.71917
246.57        89.92287
247.03        96.75753
247.48        111.4011
247.94        93.37749
248.40        75.27648
248.85        70.81804
249.31        69.81054
249.77        69.77805
250.22          70.186
250.68        71.02486
251.14        72.07086
251.59        71.70827
252.05        69.36872
252.51        66.31563
252.96        63.30436
253.42        61.37883
253.88        60.04432
254.33        58.68968
254.79        58.58271
255.25        60.83248
255.70         64.7592
256.16        69.57447
256.62        72.70955
257.07        71.62667
257.53        67.30286
257.99        60.88804
258.44        55.11887
258.90        53.82048
259.35        55.82721
259.81        59.20831
260.27        61.21119
260.72        59.26682
261.18        54.33354
261.63         47.7949
262.09        41.86112
262.55        38.43157
263.00        37.39621
263.46        37.79059
263.91           38.33
264.37        37.90372
264.83        36.36242
265.28        34.06617
265.74        31.80279
266.19         30.5164
266.65        30.41248
267.11         30.9579
267.56        31.46028
268.02        31.09952
268.47        29.77418
268.93        27.80919
269.38         25.6386
269.84        24.23487
270.30        23.87518
270.75        24.26417
271.21        24.96772
271.66        25.34365
272.12        25.18673
272.57         24.7012
273.03        24.09196
273.48        23.58731
273.94        23.28635
274.39         23.0569
274.85         22.8392
275.31        22.56415
275.76        22.20176
276.22        21.81625
276.67        21.41971
277.13        21.09288
277.58        20.81241
278.04         20.5819
278.49        20.33384
278.95         20.0164
279.40        19.60159
279.86        19.15642
280.31        18.70169
280.77        18.36726
281.22        18.13909
281.68        17.99777
282.13        17.90055
282.59        17.80604
283.04        17.69955
283.50        17.62367
283.95        17.54269
284.41        17.41455
284.86        17.23366
285.32        17.00974
285.77        16.84112
286.22        16.93073
286.68         17.2683
287.13        17.76256
287.59         18.1912
288.04        18.22472
288.50        17.83739
288.95        17.14056
289.41        16.38309
289.86        15.84247
290.32        15.64064
290.77        15.67896
291.22        15.88103
291.68        16.09353
292.13         16.2734
292.59        16.46278
293.04        16.70918
293.50          17.081
293.95        17.57212
294.40        18.12185
294.86         18.6361
295.31        18.99243
295.77        19.17552
296.22        19.23443
296.68        19.25755
297.13        19.35939
297.58        19.59174
298.04        19.93023
298.49        20.35061
298.95        20.84565
299.40        21.38745
299.85        21.97471
300.31        22.55088
300.76         23.0409
301.21        23.41135
301.67        23.69448
302.12        23.90041
302.58        24.09372
303.03         24.2804
303.48        24.45863
303.94        24.67043
304.39        24.94686
304.84        25.29298
305.30        25.68911
305.75        26.05796
306.20        26.28798
306.66        26.37647
307.11         26.3496
307.57        26.28767
308.02        26.24646
308.47        26.27344
308.93        26.34522
309.38        26.46434
309.83        26.66253
310.29         26.9174
310.74        27.20506
311.19         27.4531
311.65        27.55026
312.10        27.47498
312.55        27.26407
313.00        26.96597
313.46        26.67349
313.91        26.41957
314.36        26.20136
314.82        26.04855
315.27        25.99085
315.72        26.02942
316.18        26.15149
316.63        26.30479
317.08        26.37863
317.53        26.33807
317.99        26.19573
318.44        26.00675
318.89        25.86641
319.35        25.79193
319.80         25.7631
320.25        25.71023
320.70        25.52254
321.16        25.18693
321.61        24.74873
322.06          24.305
322.51        23.99805
322.97        23.84657
323.42        23.80952
323.87         23.7952
324.32        23.65192
324.78        23.33972
325.23        22.91562
325.68        22.44287
326.13        22.02604
326.59        21.69973
327.04        21.45014
327.49        21.26784
327.94        21.13856
328.39         21.0517
328.85        21.00698
329.30        21.00827
329.75        21.02593
330.20        21.04538
330.66        21.04492
331.11        21.03149
331.56        20.97934
332.01        20.87959
332.46        20.72543
332.92        20.53024
333.37        20.34138
333.82        20.17409
334.27        20.04152
334.72        19.91575
335.17        19.74399
335.63        19.51977
336.08        19.25922
336.53        19.04576
336.98        19.01374
337.43        19.17772
337.88        19.49579
338.34        19.80082
338.79        19.86277
339.24        19.60889
339.69        19.10721
340.14        18.55314
340.59         18.2914
341.05        18.39699
341.50        18.75824
341.95        19.18547
342.40        19.39852
342.85        19.32894
343.30        19.07796
343.75        18.72076
344.20        18.39242
344.66        18.14996
345.11        17.91551
345.56        17.73364
346.01        17.66958
346.46        17.71349
346.91        17.87461
347.36        17.98695
347.81        17.77778
348.26        17.22673
348.72         16.4489
349.17        15.68906
349.62        15.43482
350.07        15.78349
350.52        16.55976
350.97        17.46711
351.42        18.05225
351.87        18.19056
352.32        18.01725
352.77        17.66419
353.22        17.34624
353.67        17.14296
354.13        16.98813
354.58        16.86237
355.03        16.77631
355.48        16.72384
355.93        16.73215
356.38        16.75837
356.83        16.71535
357.28        16.58426
357.73        16.37548
358.18        16.15352
358.63        16.02694
359.08        16.01657
359.53        16.09385
359.98        16.16983
360.43        16.10634
360.88        15.87969
361.33        15.53277
361.78        15.18092
362.23        15.01034
362.68         15.0543
363.13        15.24232
363.58        15.44483
364.03        15.46087
364.48        15.24625
364.93        14.87749
365.38        14.44868
365.83         14.1075
366.28        13.90932
366.73        13.81281
367.18        13.80342
367.63        13.85828
368.08        13.95006
368.53        14.07488
368.98        14.20006
369.43        14.27021
369.88        14.27234
370.33        14.22244
370.78        14.11579
371.23        13.95581
371.68        13.75709
372.13        13.51626
372.58        13.31215
373.03        13.27358
373.48        13.41779
373.93        13.70722
374.38        14.00357
374.83        14.09062
375.28        13.92561
375.72        13.56059
376.17        13.15557
376.62        12.93252
377.07        12.95093
377.52        13.13575
377.97        13.37675
378.42        13.49725
378.87        13.44913
379.32        13.29846
379.77        13.10952
380.22         12.9694
380.67        12.90281
381.11        12.87689
381.56        12.86765
382.01        12.84934
382.46        12.80955
382.91        12.75847
383.36        12.70123
383.81        12.64069
384.26        12.57997
384.71        12.52137
385.15        12.45137
385.60        12.35703
386.05        12.23531
386.50        12.08769
386.95        11.95372
387.40        11.90069
387.85        11.93873
388.29        12.04295
388.74        12.14755
389.19        12.15992
389.64         12.0688
390.09        11.89767
390.54        11.71781
390.98        11.64843
391.43        11.72347
391.88        11.89402
392.33        12.07138
392.78        12.12567
393.23        12.03898
393.67         11.8537
394.12        11.66728
394.57        11.57165
395.02        11.58784
395.47        11.68186
395.91        11.80626
396.36        11.86157
396.81        11.82034
397.26        11.70242
397.71        11.55844
398.15        11.44966
398.60         11.4085
399.05        11.41981
399.50        11.42448
399.95        11.30644
400.39        11.10458
400.84        10.81284
401.29         10.5433
401.74        10.47748
402.18        10.66426
402.63        11.02541
403.08        11.42304
403.53        11.63729
403.97        11.61131
404.42        11.41035
404.87        11.12916
405.32        10.93577
405.76        10.88377
406.21        10.92027
406.66        10.99657
407.11        11.04783
407.55        11.05788
408.00        11.05175
408.45        11.03461
408.90        11.00348
409.34        10.96172
409.79        10.90204
410.24        10.85113
410.68        10.85078
411.13        10.90891
411.58        11.02285
412.03         11.1441
412.47        11.18676
412.92        11.12373
413.37        10.97731
413.81         10.8278
414.26        10.81334
414.71        10.94741
415.15        11.18814
415.60        11.41577
416.05        11.45671
416.49        11.27372
416.94        10.94018
417.39        10.56002
417.83        10.31211
418.28        10.25939
418.73        10.33331
419.17        10.48918
419.62        10.64856
420.07         10.7816
420.51        10.91539
420.96        11.00422
421.41        10.96488
421.85        10.79174
422.30        10.52642
422.74        10.26192
423.19        10.15947
423.64        10.23344
424.08        10.44657
424.53        10.69824
424.98        10.82716
425.42        10.78637
425.87        10.62088
426.31        10.39947
426.76        10.26389
427.21        10.23245
427.65        10.19397
428.10        10.17734
428.54        10.28689
428.99        10.51324
429.44        10.80923
429.88        11.05711
430.33        11.09996
430.77        10.91995
431.22        10.56644
431.66        10.19284
432.11        10.07644
432.56        10.24253
433.00        10.55585
433.45        10.87246
433.89        11.07854
434.34        11.08301
434.78        10.82733
435.23        10.48849
435.67         10.4091
436.12        10.55808
436.57        10.56506
437.01        10.40275
437.46        10.28821
437.90        10.24732
438.35        10.22403
438.79        10.20737
439.24        10.21045
439.68        10.23194
440.13        10.21709
440.57        10.18891
441.02        10.32061
441.46        10.53015
441.91         10.4487
442.35        10.11525
442.80        9.900272
443.24        9.788305
443.69        9.644746
444.13        9.475734
444.58        9.303559
445.02        9.180174
445.47        9.280856
445.91        9.527505
446.36        9.619083
446.80        9.515456
447.24          9.3701
447.69        9.235126
448.13        9.126173
448.58        9.069252
449.02        9.055372
449.47        9.061621
449.91        9.051015
450.36        9.016478
450.80        8.967575
451.25        8.930593
451.69        8.934199
452.13         8.98391
452.58        9.054931
453.02        9.123504
453.47        9.145704
453.91        9.117501
454.36        9.059602
454.80        8.983001
455.24        8.909097
455.69        8.855409
456.13        8.808421
456.58        8.802896
457.02        8.875653
457.46        9.028774
457.91        9.243151
458.35        9.453557
458.79        9.545379
459.24        9.505898
459.68        9.358249
460.13        9.194768
460.57        9.128763
461.01        9.198467
461.46         9.35909
461.90        9.544565
462.34        9.635873
462.79        9.604805
463.23        9.482795
463.68        9.343649
464.12        9.307109
464.56        9.405317
465.01        9.596676
465.45        9.784406
465.89        9.862019
466.34        9.819081
466.78         9.64329
467.22        9.435412
467.67        9.451606
468.11        9.672287
468.55        9.794257
468.99        9.785458
469.44         9.79423
469.88         9.85063
470.32        9.991765
470.77         10.1585
471.21        10.18209
471.65        10.04516
472.10        9.867254
472.54        9.719589
472.98        9.691518
473.42        9.807563
473.87        10.03762
474.31        10.30335
474.75        10.47321
475.20        10.51737
475.64        10.46848
476.08        10.38416
476.52        10.35477
476.97        10.40419
477.41        10.50642
477.85        10.61748
478.29        10.68907
478.74        10.70864
479.18        10.64122
479.62        10.53126
480.06        10.62405
480.50        10.70931
480.95        10.80096
481.39        10.79873
481.83        10.77293
482.27        10.72547
482.72        10.58313
483.16        10.41037
483.60        10.46237
484.04        10.75074
484.48        10.93761
484.93        11.16816
485.37        11.61189
485.81        12.10639
486.25        12.44422
486.69        15.98627
487.14        12.63825
487.58        8.628263
488.02        10.59281
488.46         11.9727
488.90        11.98356
489.34        12.09439
489.79        12.08867
490.23        12.77361
490.67        13.23015
491.11        13.24971
491.55        13.15007
491.99        12.93287
492.43        12.76162
492.88        12.70846
493.32        12.75243
493.76        12.81297
494.20        13.01499
494.64        13.31531
495.08        13.67243
495.52         14.0441
495.96        14.38592
496.41        14.63941
496.85        14.79522
497.29        14.86056
497.73        14.70754
498.17        14.52251
498.61         14.6665
499.05        15.14536
499.49        15.25879
499.93        15.37406
500.37        15.51155
500.82         15.6226
501.26        15.85461
501.70        16.12311
502.14         16.2962
502.58        16.34727
503.02        16.39264
503.46        16.43634
503.90        16.39751
504.34        16.31304
504.78        16.28327
505.22        16.32725
505.66        16.42751
506.10         16.5466
506.54        16.61716
506.98        16.62511
507.42        16.59377
507.86        16.57788
508.30        16.66144
508.74        16.85551
509.18        17.12313
509.62        17.39942
510.06        17.57958
510.50         17.6364
510.94        17.60908
511.38        17.53587
511.82        17.47768
512.26        17.45838
512.70        17.45457
513.14        17.48068
513.58        17.56036
514.02        17.67998
514.46        17.83003
514.90        17.95546
515.34        17.92966
515.78        17.70711
516.22        17.48734
516.66        17.35766
517.10        16.99049
517.54        16.41109
517.98        17.28822
518.42        17.13143
518.86        17.49764
519.30        17.62551
519.74        17.76141
520.18        17.87759
520.62        17.89888
521.06          17.849
521.50        17.72434
521.93         17.5691
522.37         17.4693
522.81        17.44451
523.25        17.47318
523.69        17.52869
524.13         17.5666
524.57         17.5702
525.01        17.55204
525.45        17.51178
525.89        17.44862
526.32        17.36514
526.76        17.26316
527.20        17.15181
527.64        17.05389
528.08        16.97836
528.52        16.90399
528.96        16.82579
529.40         16.7803
529.83        16.77478
530.27        16.62955
530.71        16.65772
531.15         16.5691
531.59        16.46171
532.03        16.33253
532.46        16.22739
532.90        16.22361
533.34        16.32351
533.78        16.49819
534.22        16.67508
534.66        16.74752
535.09        16.68884
535.53        16.53728
535.97        16.34605
536.41        16.20465
536.85        16.14222
537.28        16.13721
537.72        16.16155
538.16        16.16888
538.60        16.14927
539.04        16.11128
539.47        16.08496
539.91        16.15189
540.35        16.30235
540.79         16.4513
541.22         16.5767
541.66        16.71106
542.10        16.84361
542.54        16.93581
542.97        17.00924
543.41        17.12868
543.85        17.30009
544.29        17.51676
544.72        17.72517
545.16        17.84941
545.60        17.87933
546.04        17.83608
546.47         17.8157
546.91        17.97811
547.35        18.33737
547.79        18.84099
548.22        19.34546
548.66        19.60763
549.10        19.59254
549.53        19.40846
549.97        19.19984
550.41        19.13823
550.84        19.28006
551.28        19.58429
551.72        19.98141
552.15        20.34483
552.59        20.61957
553.03        20.83583
553.46        21.00592
553.90        21.16363
554.34        21.32574
554.77        21.45661
555.21        21.54383
555.65          21.636
556.08         21.7476
556.52        21.61012
556.96        21.76217
557.39        21.84381
557.83        22.01611
558.27        22.23753
558.70        22.47647
559.14         22.6667
559.57        22.77883
560.01        22.84372
560.45         22.8559
560.88        22.80731
561.32        22.72989
561.75        22.61942
562.19        22.53485
562.63        22.53386
563.06        22.62386
563.50        22.79253
563.93        23.00049
564.37        23.19193
564.80        23.33918
565.24        23.46369
565.68        23.56638
566.11        23.65335
566.55        23.74793
566.98        23.83921
567.42         23.9523
567.85        24.12185
568.29        24.36458
568.72        24.59497
569.16        24.81992
569.60        25.15226
570.03        25.48116
570.47        25.51095
570.90        25.34581
571.34        25.12207
571.77        25.44285
572.21        25.52069
572.64        25.58494
573.08        25.34222
573.51        24.70062
573.95        25.84653
574.38        27.42538
574.82        26.99074
575.25        26.78787
575.69        25.87362
576.12        25.36991
576.56        25.32071
576.99        26.04736
577.42         27.1294
577.86        26.96926
578.29        26.94785
578.73        28.11601
579.16        25.89549
579.60         23.7235
580.03        24.73454
580.47        26.38735
580.90        26.57783
581.33        26.16724
581.77         25.6142
582.20        28.04963
582.64        27.42309
583.07        23.60221
583.51        23.07005
583.94        22.53228
584.37        23.40401
584.81        24.46169
585.24        25.61379
585.68        26.08822
586.11        25.55744
586.54        23.66284
586.98         23.0288
587.41        23.24053
587.85        24.18372
588.28        24.87814
588.71        23.69558
589.15        22.96841
589.58        23.39501
590.01        23.74126
590.45        24.17079
590.88        24.00202
591.31        23.69807
591.75        23.74431
592.18        23.87328
592.61         24.2977
593.05        24.91049
593.48        25.68232
593.91        25.88359
594.35        23.80782
594.78        23.47007
595.21          23.596
595.65        24.79924
596.08        25.78194
596.51        24.93733
596.94        24.46322
597.38        24.97151
597.81        26.28428
598.24        26.89165
598.68        26.65542
599.11        26.72332
599.54        28.00271
599.97        28.84006
600.41        27.56478
600.84        28.00738
601.27        28.81714
601.70        28.72232
602.14        28.93211
602.57        28.94353
603.00        29.71543
603.43        30.90157
603.87        32.06795
604.30        32.26093
604.73        31.65769
605.16        31.71568
605.60        32.50598
606.03        33.53125
606.46        34.46919
606.89        34.63971
607.32        34.14129
607.76        34.79551
608.19        35.96261
608.62        35.76939
609.05        35.44691
609.48        36.06025
609.92        36.39842
610.35         36.7939
610.78        38.34386
611.21        39.09058
611.64         37.6563
612.07        38.34933
612.50        38.88594
612.94        39.42238
613.37        39.38272
613.80        39.62996
614.23        40.21276
614.66        40.45321
615.09        40.91504
615.52        41.24882
615.96        41.51756
616.39        41.84329
616.82        41.49955
617.25        41.72414
617.68        42.27385
618.11        42.93189
618.54        43.46349
618.97        43.42657
619.40        43.09659
619.84        42.97916
620.27        44.02242
620.70        44.56155
621.13        44.75237
621.56        44.44469
621.99        43.87181
622.42        44.45681
622.85        45.84344
623.28        45.68256
623.71        45.14196
624.14         45.1825
624.57        44.82352
625.00         44.7631
625.43        44.74313
625.86        44.30386
626.29        44.29655
626.72        44.59267
627.15         44.2449
627.58        44.21799
628.01        44.14545
628.44        44.06133
628.87        43.97078
629.30        43.84648
629.73        43.60484
630.16        43.62954
630.59        42.93626
631.02        42.39922
631.45        41.81176
631.88        41.29982
632.31        40.88669
632.74        40.55595
633.17        40.26256
633.60        39.90235
634.03         39.4521
634.46        38.94419
634.89        38.41739
635.32        37.93408
635.75        37.51361
636.18        37.13542
636.61        36.77195
637.04        36.37873
637.47        35.94052
637.89        35.47478
638.32        34.99727
638.75        34.55739
639.18        34.17618
639.61        33.84864
640.04        33.55475
640.47        33.25764
640.90        32.94919
641.33        32.63844
641.76        32.34467
642.18        32.14738
642.61        32.05646
643.04        31.97331
643.47        31.84754
643.90        32.01167
644.33        31.79435
644.76        31.75207
645.18        31.70403
645.61        31.69232
646.04        31.72035
646.47        31.77385
646.90        31.89965
647.33        32.14583
647.75        32.52838
648.18        33.05973
648.61        33.61116
649.04        33.98048
649.47        34.13845
649.89        34.05587
650.32        33.99617
650.75         34.4843
651.18        35.49918
651.61        36.60504
652.03        37.53136
652.46        38.02814
652.89        38.31855
653.32        38.50951
653.74        38.84971
654.17        40.15793
654.60        41.23855
655.03        40.30642
655.46        41.49884
655.88        44.42671
656.31        47.51871
656.74        108.7936
657.16        70.57889
657.59        24.96443
658.02        19.21836
658.45        33.62447
658.87         43.9251
659.30        46.38606
659.73        46.34045
660.15        44.99769
660.58        46.99992
661.01        48.55505
661.44        47.43482
661.86        47.16206
662.29        47.26515
662.72        48.01925
663.14        49.27307
663.57        49.58844
664.00         49.0815
664.42        49.16103
664.85        49.88548
665.27        50.35154
665.70        50.44051
666.13        50.49044
666.55        50.50223
666.98        50.38013
667.41          50.237
667.83         50.2909
668.26        50.58117
668.69        51.02088
669.11        51.43772
669.54        51.77805
669.96        51.50443
670.39        51.16666
670.82        50.80306
671.24        50.57324
671.67        50.64633
672.09        51.25372
672.52        52.08935
672.94        52.74583
673.37        52.27263
673.80        52.12183
674.22        52.14192
674.65        52.16496
675.07        52.20942
675.50        52.27589
675.92        52.37444
676.35         52.5478
676.77        52.79248
677.20         53.0423
677.62        53.27193
678.05        53.44328
678.47        53.53531
678.90        53.56638
679.32        53.58222
679.75        53.54939
680.17        53.68985
680.60        53.84939
681.02        54.02393
681.45        53.98183
681.87        53.75219
682.30        53.62069
682.72         53.6359
683.15         53.6013
683.57         53.6085
684.00        53.90256
684.42        54.58223
684.85        54.91606
685.27        54.89744
685.70        54.78712
686.12        54.67023
686.54        54.61085
686.97        54.65414
687.39        54.84277
687.82        55.08943
688.24        55.24087
688.66        55.24974
689.09        55.18656
689.51         55.1326
689.94        55.17991
690.36         55.3584
690.78        55.62988
691.21        55.91236
691.63        56.07992
692.06        56.10325
692.48        56.03019
692.90        55.93919
693.33        55.93053
693.75         56.0325
694.17        56.24532
694.60        56.51189
695.02        56.64537
695.44         56.6146
695.87        56.77779
696.29        57.13192
696.71        56.99438
697.14        56.56232
697.56        57.11063
697.98        58.35656
698.41        58.34185
698.83        57.64766
699.25        57.13457
699.68        57.09425
700.10        57.04386
700.52         56.9799
700.94        57.21169
701.37        57.62434
701.79        58.10388
702.21        58.34519
702.64        58.58719
703.06        58.72694
703.48        58.69782
703.90        58.51601
704.33        58.20493
704.75        57.86861
705.17        57.75047
705.59        57.90895
706.01        58.18321
706.44        58.45712
706.86         59.0327
707.28        59.06444
707.70        59.23123
708.12        59.29601
708.55        59.19507
708.97        58.96122
709.39        58.76069
709.81        58.66389
710.23        58.63832
710.66        58.70656
711.08        58.95734
711.50        59.27108
711.92        59.41937
712.34        59.35888
712.76        59.14225
713.19        58.90298
713.61        58.88457
714.03        59.12706
714.45        59.55244
714.87        59.98532
715.29        60.15083
715.71         59.9924
716.13        59.60492
716.56         59.1609
716.98        58.96144
717.40        59.07978
717.82        59.42398
718.24        59.85726
718.66        60.14707
719.08        60.22073
719.50        60.14964
719.92        60.00486
720.34        59.91618
720.76        59.92635
721.19        59.89072
721.61        59.98159
722.03         60.0625
722.45        60.17421
722.87         60.3237
723.29        60.48317
723.71        60.59433
724.13        60.64173
724.55        60.63368
724.97        60.60818
725.39        60.63369
725.81        60.72432
726.23         60.8597
726.65        60.99652
727.07         61.0645
727.49        61.05288
727.91        60.99232
728.33        60.92472
728.75        60.92005
729.17        60.99377
729.59        61.11129
730.01        61.25751
730.43        61.40197
730.85          61.533
731.27        61.68573
731.69        61.80643
732.10        61.79031
732.52        61.62644
732.94        61.37618
733.36        61.18505
733.78        61.17294
734.20        61.37453
734.62        62.01634
735.04        62.85661
735.46        62.91576
735.88        62.39512
736.30         62.5862
736.72        63.49335
737.13        64.12803
737.55        64.15022
737.97        63.91561
738.39        63.56778
738.81        62.82351
739.23        62.09251
739.65        62.93137
740.06        64.85177
740.48        65.09776
740.90        63.73332
741.32        63.10319
741.74        63.45034
742.16        63.63826
742.57        63.71821
742.99        64.34605
743.41        65.30909
743.83         65.8721
744.25        65.90437
744.67        65.59869
745.08        65.17764
745.50        65.00114
745.92        65.18113
746.34        65.59377
746.75        66.07052
747.17         66.3279
747.59        66.31444
748.01        66.12661
748.42        65.94517
748.84        66.05704
749.26        66.52838
749.68        67.18817
750.09        67.88989
750.51        68.44859
750.93        68.70535
751.35        68.53924
751.76        68.17638
752.18        67.53379
752.60        68.03805
753.01         67.9709
753.43        67.76428
753.85         67.8192
754.27        68.16693
754.68        68.63671
755.10        69.09631
755.52         69.4461
755.93         69.6444
756.35        69.76752
756.77        69.91384
757.18        70.03505
757.60        70.14261
758.02        70.60912
758.43        71.10744
758.85        70.64598
759.26        68.95467
759.68        68.75466
760.10        69.74445
760.51        70.23055
760.93        69.93387
761.34         69.0872
761.76        68.87943
762.18        68.36731
762.59        68.09003
763.01        68.55809
763.42        69.68129
763.84        70.40338
764.26        70.57369
764.67        70.63911
765.09        70.61496
765.50         70.4651
765.92        70.17324
766.33        69.25802
766.75        68.09205
767.16        67.84483
767.58        68.61948
768.00        69.78734
768.41        71.07082
768.83        72.26852
769.24           72.84
769.66         72.0471
770.07         70.4187
770.49        68.90089
770.90        67.92885
771.32        68.81589
771.73        70.89844
772.15        70.52979
772.56        68.08828
772.97         67.4972
773.39        68.72969
773.80        69.24689
774.22          68.619
774.63        68.73335
775.05        69.42098
775.46        69.83295
775.88        69.84709
776.29        69.70728
776.70        69.51763
777.12        69.46617
777.53        69.61412
777.95        69.84724
778.36        70.03806
778.77        69.97491
779.19         69.6587
779.60        69.17294
780.02        68.70805
780.43        68.64455
780.84        69.09772
781.26        69.50939
781.67        69.82821
782.09        70.90689
782.50        72.22075
782.91        71.29923
783.33        69.03303
783.74         68.2075
784.15        69.05701
784.57        69.66371
784.98        69.75053
785.39        69.79341
785.81        69.74142
786.22        69.42631
786.63        69.06911
787.04        69.11695
787.46        69.62446
787.87        70.32824
788.28        70.94597
788.70        71.73756
789.11          71.335
789.52          70.998
789.93        70.52658
790.35        70.01425
790.76        69.60678
791.17        69.64726
791.58        70.07111
792.00        70.27569
792.41        70.15869
792.82        70.24713
793.23        70.56583
793.65        70.14967
794.06        69.37998
794.47        70.35948
794.88        72.35421
795.29        72.12036
795.71        69.85122
796.12        67.87948
796.53        66.84837
796.94        66.71822
797.35        67.51836
797.76        68.77579
798.18        69.93496
798.59        70.73342
799.00        70.86679
799.41        70.07797
799.82         68.8044
800.23        68.05192
800.64        68.03079
801.06        68.37419
801.47        68.93902
801.88        69.39225
802.29        69.59554
802.70        69.68235
803.11        69.69643
803.52        69.67551
803.93        69.66094
804.34        69.60373
804.75        69.53313
805.17        69.60917
805.58        69.89027
805.99        70.03597
806.40         70.0016
806.81        70.45976
807.22         71.0262
807.63        70.04762
808.04        68.03171
808.45         67.2083
808.86        67.76595
809.27        68.58285
809.68        69.30337
810.09        69.76702
810.50        69.78933
810.91        69.42865
811.32        68.89695
811.73        68.52808
812.14        68.41413
812.55        68.46737
812.96        68.62843
813.37        68.67496
813.78        68.61226
814.19        68.79224
814.60        69.03998
815.01        68.84713
815.42        68.18678
815.83         67.2381
816.24        66.38311
816.65        66.22504
817.05        66.94139
817.46         68.3222
817.87        69.82131
818.28        70.46116
818.69        69.98472
819.10        68.63671
819.51        67.05338
819.92        66.32041
820.33        66.72524
820.74        67.94148
821.14        69.38535
821.55        70.01053
821.96        69.57854
822.37         68.4444
822.78         67.1152
823.19        66.33201
823.60        66.29852
824.00        66.82558
824.41        67.55995
824.82        67.99836
825.23        67.94501
825.64        67.59442
826.04        67.17159
826.45        66.99019
826.86        67.12232
827.27        67.41425
827.68        67.74902
828.08        67.97481
828.49        67.98006
828.90        67.89326
829.31        67.68926
829.72        67.31744
830.12        66.84977
830.53        66.28952
830.94        65.89665
831.35        66.02785
831.75        66.75973
832.16        67.93613
832.57        69.25491
832.97        70.07797
833.38        70.13139
833.79        69.58646
834.20        68.77322
834.60        68.20277
835.01        68.04631
835.42        68.15864
835.82         68.3561
836.23        68.25703
836.64        67.81255
837.04        67.19084
837.45        66.62057
837.86         66.4483
838.26        66.75258
838.67        67.36587
839.08        68.10162
839.48        68.62861
839.89        68.79558
840.29        68.71788
840.70        68.43999
841.11        68.02235
841.51        67.52856
841.92        66.91665
842.33         66.3564
842.73         66.1396
843.14        66.28744
843.54        66.77415
843.95        67.31007
844.35        67.45317
844.76         67.0902
845.17        66.37296
845.57        65.58902
845.98        65.18501
846.38         65.2669
846.79        65.67344
847.19        66.22684
847.60        66.53699
848.00        66.51469
848.41        66.26564
848.81        65.94312
849.22         65.6917
849.62        65.61342
850.03          65.661
850.43        65.84406
850.84        66.13082
851.24        66.51903
851.65        66.85575
852.05        67.25336
852.46        67.72748
852.86        68.25687
853.27        68.84821
853.67        69.06481
854.07        68.35756
854.48        66.78351
854.88        64.57211
855.29         62.4855
855.69        61.62061
856.10        62.19196
856.50        64.05539
856.90        66.57456
857.31        68.23091
857.71        68.49789
858.12        67.70626
858.52           66.48
858.92        65.64923
859.33        65.42107
859.73        65.55976
860.13        65.94505
860.54        66.35019
860.94        66.72234
861.34        67.12836
861.75        67.53469
862.15         67.9514
862.55        68.32656
862.96        68.62418
863.36        68.80732
863.76        68.81002
864.17        68.64121
864.57        68.39824
864.97        68.19514
865.38        68.19647
865.78        68.47881
866.18        68.89719
866.58        69.40783
866.99        69.92657
867.39        70.43465
867.79        70.98558
868.19        71.30531
868.60        70.89742
869.00        69.70678
869.40         67.9168
869.80        66.30767
870.21        66.08758
870.61        67.58807
871.01        70.45346
871.41        73.76116
871.81        75.90532
872.22        76.41753
872.62        75.70625
873.02        74.49251
873.42         74.2023
873.82         74.8904
874.22        75.55758
874.63        75.98569
875.03        75.88135
875.43        75.07832
875.83        75.21629
876.23        73.21386
876.63        71.86205
877.03        70.67885
877.44        69.72627
877.84        109.2199
878.24        76.14753
878.64        77.97063
879.04        81.07216
879.44        75.42783
879.84        72.75254
880.24        79.70605
880.64        82.25257
881.04        81.87524
881.44        81.05793
881.84        79.78635
882.24        78.05004
882.65        76.74525
883.05        76.43659
883.45        77.20557
883.85        79.33997
884.25        82.11002
884.65        83.73392
885.05        83.67644
885.45        82.47507
885.85        80.92092
886.25        80.13166
886.65        80.36063
887.05        81.22633
887.45        82.33907
887.85        83.02601
888.25        83.04131
888.65        82.66138
889.04        82.07538
889.44        81.58203
889.84        81.28012
890.24        81.03927
890.64          80.887
891.04        80.90008
891.44        81.05141
891.84        81.33542
892.24        81.59055
892.64        81.49991
893.04        81.04419
893.44        80.40197
893.83        79.76484
894.23        79.40214
894.63        79.36522
895.03        79.50276
895.43        79.90292
895.83        80.70087
896.23        81.83441
896.63        83.27571
897.02        84.45777
897.42        84.47097
897.82        83.21862
898.22        81.03601
898.62        78.82587
899.01          77.929
899.41        78.60143
899.81        80.35871
900.21         82.4799
900.61        83.78726
901.00          83.929
901.40        83.29667
901.80        82.26235
902.20        81.39355
902.59        80.89951
902.99        80.58883
903.39        80.42429
903.79        80.37154
904.18        80.40006
904.58        80.61338
904.98        80.95964
905.38        81.32159
905.77         81.6418
906.17        81.88689
906.57        82.07178
906.96        82.29782
907.36        82.49437
907.76          82.622
908.15        82.59402
908.55        82.16605
908.95        81.37395
909.34        80.32313
909.74        79.23737
910.14         78.2632
910.53        77.50275
910.93        76.96969
911.33        76.83187
911.72        77.38547
912.12        78.50005
912.52        79.93118
912.91        81.32008
913.31        82.23771
913.70         82.6721
914.10        82.70678
914.49        82.29622
914.89        81.46752
915.29        80.39771
915.68        79.13287
916.08        78.15621
916.47        77.80847
916.87        78.07605
917.26        78.89606
917.66        79.76289
918.05         79.8731
918.45        79.06853
918.84        77.66334
919.24        76.27778
919.64        75.81209
920.03        76.49162
920.42        78.00558
920.82        79.93807
921.21         81.6629
921.61        82.70081
922.00        83.21469
922.40        83.12352
922.79        82.40162
923.19         81.2403
923.58        79.42983
923.98        77.13006
924.37        75.77032
924.77        76.08614
925.16        73.01309
925.55        75.49004
925.95        76.41901
926.34        78.34457
926.74        80.74332
927.13         83.0783
927.52        84.11534
927.92        83.65862
928.31        82.09642
928.70        79.95652
929.10        78.19762
929.49        77.08562
929.89        76.40517
930.28         76.2291
930.67        76.67172
931.07         77.5565
931.46        78.97377
931.85        80.26278
932.24        80.41064
932.64         79.2715
933.03        76.92982
933.42        74.10062
933.82        72.38121
934.21        72.19355
934.60        73.12153
934.99        74.21836
935.39        74.66787
935.78        74.37608
936.17        72.74577
936.56         69.6162
936.96        71.65633
937.35        70.28175
937.74        72.08618
938.13        73.67966
938.53        74.94386
938.92        75.95024
939.31        76.94005
939.70          77.768
940.09        77.75571
940.49        76.82681
940.88        75.33607
941.27        73.86684
941.66        73.10008
942.05        73.10727
942.44        73.63622
942.84        74.57139
943.23        75.74918
943.62        76.92205
944.01        78.09769
944.40        78.88543
944.79        78.68515
945.18        77.35736
945.57        74.91444
945.97        71.93519
946.36        69.93709
946.75        69.67859
947.14        70.66132
947.53        72.07558
947.92        73.06898
948.31        73.52338
948.70        73.70975
949.09        73.72674
949.48         73.7367
949.87        73.79823
950.26        73.75391
950.65        73.60983
951.04        73.44322
951.43        73.26339
951.82        73.10027
952.21        72.86994
952.60        72.42448
952.99        71.74829
953.38        70.87659
953.77        70.01001
954.16        69.41779
954.55        69.16496
954.94        69.27019
955.33        69.42506
955.72        69.10044
956.11        68.21942
956.50        66.90062
956.89        65.83714
957.28        66.26692
957.66        68.51022
958.05         71.9226
958.44        75.40331
958.83        77.34508
959.22        77.36845
959.61        75.86307
960.00         73.6568
960.39        72.13239
960.78        71.71927
961.16        72.10551
961.55         72.6354
961.94        72.16029
962.33        70.49158
962.72        68.19463
963.11        66.11436
963.49        65.30406
963.88        65.94034
964.27        67.74518
964.66         70.1101
965.04        71.69427
965.43          71.827
965.82        70.92196
966.21        69.68556
966.60        69.06481
966.98        69.27683
967.37        69.99313
967.76        70.81151
968.15        71.00455
968.53        70.36393
968.92        69.13133
969.31        67.83134
969.69        67.09306
970.08        67.03734
970.47        67.54658
970.86         68.1011
971.24        67.78842
971.63        66.40067
972.02        64.15461
972.40        61.96845
972.79        61.51497
973.17        63.33818
973.56        66.92776
973.95        71.02109
974.33        73.20261
974.72        72.64903
975.11        70.14743
975.49        67.08261
975.88        65.25806
976.26        64.98174
976.65        65.82084
977.04        66.93969
977.42        66.47105
977.81        63.92078
978.19        60.19255
978.58        57.08782
978.96        56.33744
979.35        58.17383
979.74        62.21527
980.12         67.5323
980.51        70.95687
980.89        71.41727
981.28        69.70509
981.66        67.24242
982.05        65.83984
982.43        65.83761
982.82        66.54321
983.20        67.71201
983.59        69.06491
983.97        70.52661
984.35        72.30782
984.74        73.88652
985.12        74.27145
985.51        72.87225
985.89        69.73728
986.28        65.80508
986.66        62.55312
987.04        60.73297
987.43        60.12729
987.81        59.90675
988.20        58.79538
988.58        56.25602
988.96        51.83042
989.35        46.14665
989.73        43.18205
990.12        46.13676
990.50         53.3863
990.88        60.12555
991.27        62.53191
991.65        61.18175
992.03        57.20851
992.42        52.81457
992.80        51.72162
993.18        54.81822
993.56        59.82149
993.95        64.84515
994.33        68.46738
994.71         70.2692
995.10        71.12369
995.48        70.91033
995.86        69.11427
996.24        65.73097
996.63        60.53744
997.01        54.66066
997.39        51.83558
997.77        53.75475
998.15        59.65136
998.54        66.45586
998.92        69.92966
999.30        68.74341
999.68        64.02884
1000.06        57.07036
1000.45        51.23177
1000.83        48.15637
1001.21        46.87894
1001.59        47.11133
1001.97        48.63973
1002.35        51.16399
1002.73        55.23483
1003.12        59.61042
1003.50        59.93931
1003.88        54.74153
1004.26        46.57852
1004.64        38.74606
1005.02        33.60744
1005.40         30.9989
1005.78        29.70499
1006.16        31.86921
1006.54        41.33183
1006.92        54.04435
1007.30          64.744
1007.69        70.55309
1008.07        71.27991
1008.45        67.07397
1008.83        54.32036
1009.21        21.50179
1009.59       -55.24561
1009.97       -191.5202
1010.35       -279.4006
1010.73       -163.4105
1011.11       -61.66121
1011.49       -14.28143
1011.86        12.60205
1012.24         26.2038
1012.62        32.87429
1013.00        36.22697
1013.38        36.87588
1013.76         36.2187
1014.14        38.53115
1014.52        46.85851
1014.90        62.01256
1015.28        79.52296
1015.66        86.59964
1016.04        76.06966
1016.41        51.27993
1016.79        26.36984
1017.17        14.63386
1017.55        14.46475
1017.93        18.69801
1018.31        23.39719
1018.69        26.71333
1019.06        28.71581
1019.44        29.39906
1019.82        29.34284
1020.20        29.68602
1020.58        31.01062
1020.95        33.84961
1021.33        21.07518
1021.71        583.6244
1022.09        158.3012
1022.46        145.1382
1022.84        147.9845
1023.22        162.7917
1023.60        207.1928
1023.97        655.7296
1024.35       -106.9568
1024.73       -22.45955
