SpectraSmart Spectrum 2.9.0.0
--------- Device Information -----------
Spectrum Name :  反射率_0
Saving Time :  2024/04/25 23:50:39
Spectro-Module Model Name : SE2030-DUVN
Spectro-Module Serial Number : OS361AC55029948
Wavelength Start : 200
Wavelength End : 1025
Wavelength Unit : Wavelength(nm)
Spectrum Unit : Reflectance(%)
-----------Spectrum Setting ------------
Integration Time : 20ms
Average : 10
Boxcar : 0
Background removal :  enabled
linearity correction :  enabled
SC :  disabled
Intensity correction :  disabled
DWT denoise :  enabled
savitzky-golay :  disabled
FFT :  disabled
Running average :  disabled
Kalman :  disabled
High pass :  disabled
---------------BEGIN--------------------
Wavelength(nm)             Reflectance(%)
200.29               0
200.75        81.40621
201.21        74.97923
201.67        67.38461
202.13          62.587
202.58        61.13319
203.04        62.29022
203.50        65.01054
203.96        67.37182
204.42        68.51611
204.88        68.85811
205.34        68.99383
205.80        69.65768
206.26        71.27084
206.72        74.61279
207.18        79.67281
207.64         78.9296
208.10        66.89185
208.55        55.43768
209.01        50.51516
209.47        50.78408
209.93        54.24907
210.39        60.52347
210.85         67.7518
211.31        71.22491
211.77        69.17586
212.23        63.18863
212.69        56.62233
213.14        54.85411
213.60        58.72954
214.06        66.75081
214.52        75.76828
214.98        81.00423
215.44        81.20224
215.90        77.93209
216.36        73.47425
216.81         70.8327
217.27        70.94807
217.73        72.77306
218.19         74.3963
218.65        73.33701
219.11        68.71415
219.57        59.82611
220.02        48.43125
220.48        43.30478
220.94        48.65884
221.40        61.60535
221.86         72.7194
222.32        72.59663
222.77        62.93736
223.23        49.58218
223.69        38.35032
224.15        35.10588
224.61        39.20033
225.06        47.60585
225.52        56.47006
225.98        60.88023
226.44        59.87766
226.90         55.5366
227.36        50.25533
227.81         47.2364
228.27        47.48682
228.73        49.57749
229.19        52.38956
229.65        54.36145
230.10        55.02546
230.56        55.08807
231.02        54.87833
231.48        54.67836
231.93        54.57118
232.39        54.45467
232.85        54.32196
233.31        54.28755
233.77        54.33706
234.22        54.42044
234.68        54.51523
235.14         54.5018
235.60        54.35362
236.05        54.18478
236.51        53.85753
236.97        53.09252
237.43        51.81582
237.88         49.9724
238.34        48.00086
238.80        47.44219
239.26        49.02111
239.71        52.60769
240.17        56.67224
240.63        58.84626
241.08        58.51529
241.54        56.27536
242.00        53.36595
242.46        51.36154
242.91        50.77842
243.37        51.40657
243.83        56.35069
244.28        80.23984
244.74        120.5594
245.20        116.3297
245.66        103.5962
246.11        99.20708
246.57        100.0977
247.03        105.9119
247.48        119.6756
247.94         98.3059
248.40        79.81499
248.85        75.85691
249.31        75.65336
249.77        76.85583
250.22        79.18768
250.68        83.13717
251.14        88.31046
251.59        90.19474
252.05        85.48287
252.51        76.93204
252.96        68.74242
253.42        64.78491
253.88        64.39754
254.33        65.96946
254.79        69.37553
255.25        73.76961
255.70        78.04303
256.16        82.17304
256.62        84.45654
257.07        83.15013
257.53        79.23102
257.99        73.47192
258.44         67.8782
258.90        65.63026
259.35        65.79881
259.81        67.08379
260.27        67.47427
260.72        65.05686
261.18        60.59697
261.63        54.98909
262.09        49.86333
262.55        46.43257
263.00        44.65372
263.46         43.9873
263.91        43.55603
264.37        42.69594
264.83        41.23384
265.28        39.34186
265.74        37.55047
266.19        36.39709
266.65         36.0659
267.11        36.20678
267.56        36.35686
268.02        35.97985
268.47        34.97276
268.93        33.53854
269.38        31.95213
269.84        30.89579
270.30        30.54933
270.75        30.72755
271.21        31.07144
271.66        31.05093
272.12        30.52138
272.57        29.63998
273.03        28.71452
273.48        28.12202
273.94        27.96725
274.39        28.08017
274.85        28.19962
275.31        27.93591
275.76        27.22644
276.22        26.26068
276.67        25.29525
277.13         24.7857
277.58        24.75013
278.04        25.03458
278.49        25.35298
278.95        25.36983
279.40        24.98993
279.86        24.39415
280.31        23.68947
280.77        23.14429
281.22        22.78659
281.68        22.55363
282.13        22.39242
282.59        22.26698
283.04        22.14735
283.50        22.08711
283.95         22.0195
284.41        21.85378
284.86        21.57524
285.32        21.21371
285.77         20.8907
286.22        20.85486
286.68        21.10649
287.13        21.53102
287.59        21.90618
288.04        21.89459
288.50        21.46751
288.95        20.74092
289.41        19.93692
289.86        19.28437
290.32        18.90833
290.77         18.7236
291.22        18.71723
291.68        18.83036
292.13        19.03491
292.59        19.34822
293.04        19.74292
293.50        20.17004
293.95        20.59577
294.40        20.99108
294.86        21.34179
295.31        21.64877
295.77        21.92055
296.22        22.16566
296.68        22.38372
297.13         22.5466
297.58        22.67827
298.04        22.81015
298.49        23.01296
298.95        23.42505
299.40        24.05192
299.85        24.84163
300.31        25.66975
300.76        26.35183
301.21        26.81843
301.67        27.13692
302.12        27.34123
302.58        27.53789
303.03        27.74294
303.48        27.93788
303.94        28.16441
304.39         28.4537
304.84        28.81221
305.30        29.22872
305.75        29.61543
306.20        29.84432
306.66        29.91171
307.11        29.84264
307.57        29.74212
308.02        29.69741
308.47        29.76029
308.93        29.89828
309.38        30.07437
309.83         30.2608
310.29        30.42847
310.74        30.57492
311.19        30.68049
311.65        30.71331
312.10        30.66732
312.55        30.55436
313.00        30.37635
313.46        30.14929
313.91        29.88368
314.36        29.60033
314.82        29.36234
315.27        29.24764
315.72        29.27195
316.18        29.40578
316.63        29.57952
317.08        29.65486
317.53        29.59055
317.99        29.41307
318.44        29.19171
318.89        29.04198
319.35        28.98483
319.80        28.99028
320.25        28.98027
320.70        28.83167
321.16        28.52427
321.61        28.10679
322.06        27.66975
322.51        27.34548
322.97        27.15434
323.42        27.06241
323.87        26.99573
324.32        26.83368
324.78        26.54508
325.23        26.17946
325.68        25.78846
326.13        25.45692
326.59        25.20936
327.04        25.03727
327.49        24.92261
327.94        24.84025
328.39        24.77684
328.85        24.72826
329.30        24.71703
329.75        24.74093
330.20        24.79482
330.66        24.85644
331.11        24.90963
331.56        24.88785
332.01        24.77436
332.46        24.56806
332.92         24.3249
333.37        24.17703
333.82         24.1553
334.27        24.25175
334.72        24.35617
335.17        24.27611
335.63        23.97224
336.08         23.5048
336.53        23.05735
336.98        22.92673
337.43        23.16886
337.88        23.69409
338.34        24.25239
338.79        24.47901
339.24        24.25686
339.69         23.6921
340.14        23.03231
340.59        22.71248
341.05        22.83756
341.50          23.263
341.95        23.76033
342.40        23.99681
342.85        23.89484
343.30        23.58005
343.75         23.1604
344.20        22.82183
344.66        22.63508
345.11        22.49882
345.56        22.42814
346.01        22.44838
346.46          22.534
346.91        22.70032
347.36        22.79109
347.81        22.54808
348.26         21.9589
348.72        21.14238
349.17        20.33236
349.62        19.99864
350.07        20.24378
350.52        20.90265
350.97        21.72656
351.42        22.33206
351.87        22.59782
352.32        22.62921
352.77        22.48373
353.22        22.25952
353.67        22.00868
354.13         21.7006
354.58        21.37729
355.03        21.15037
355.48        21.04549
355.93        21.06428
356.38        21.13139
356.83        21.10703
357.28         20.9573
357.73        20.71113
358.18         20.4572
358.63        20.33815
359.08         20.3788
359.53        20.53243
359.98        20.67779
360.43        20.63056
360.88        20.35809
361.33        19.91996
361.78        19.46214
362.23        19.22049
362.68        19.24204
363.13        19.44046
363.58        19.66685
364.03        19.68903
364.48        19.45303
364.93        19.04658
365.38         18.5677
365.83        18.17028
366.28        17.91191
366.73        17.74366
367.18        17.65881
367.63        17.64963
368.08        17.69179
368.53        17.78286
368.98        17.86942
369.43        17.86068
369.88        17.74058
370.33        17.53804
370.78        17.28714
371.23        17.05478
371.68         16.8721
372.13        16.71891
372.58        16.63235
373.03        16.67014
373.48        16.82499
373.93        17.07231
374.38        17.30783
374.83        17.36996
375.28        17.22692
375.72        16.91411
376.17        16.55023
376.62        16.29267
377.07        16.19256
377.52        16.20347
377.97        16.27353
378.42        16.31674
378.87        16.30189
379.32        16.25808
379.77        16.19905
380.22        16.13849
380.67        16.08225
381.11        16.02367
381.56        15.95035
382.01        15.85678
382.46        15.74269
382.91        15.60667
383.36        15.47651
383.81        15.39429
384.26        15.36417
384.71        15.37697
385.15        15.37077
385.60        15.26024
386.05        15.02955
386.50          14.705
386.95        14.37638
387.40        14.20144
387.85        14.21848
388.29         14.3708
388.74        14.55797
389.19        14.63602
389.64        14.58098
390.09        14.42919
390.54        14.26358
390.98        14.22035
391.43        14.33528
391.88        14.54858
392.33        14.75432
392.78        14.80098
393.23        14.67199
393.67         14.4218
394.12        14.17432
394.57        14.04905
395.02        14.07218
395.47        14.20002
395.91        14.37279
396.36        14.46378
396.81        14.43703
397.26        14.32138
397.71        14.17093
398.15        14.05025
398.60        13.99876
399.05        13.99882
399.50        14.00027
399.95        13.89416
400.39        13.73175
400.84        13.49511
401.29        13.28536
401.74        13.25646
402.18        13.44847
402.63         13.7877
403.08        14.15237
403.53        14.34843
403.97        14.32643
404.42         14.1454
404.87         13.8875
405.32        13.69825
405.76        13.62768
406.21        13.63566
406.66        13.68958
407.11        13.74842
407.55        13.80052
408.00        13.85891
408.45        13.91733
408.90        13.94814
409.34        13.94174
409.79        13.89816
410.24        13.84183
410.68        13.81205
411.13        13.82098
411.58         13.8643
412.03        13.91675
412.47        13.93521
412.92        13.90214
413.37        13.83338
413.81        13.77274
414.26        13.80135
414.71        13.92152
415.15        14.10676
415.60        14.27845
416.05         14.3305
416.49        14.23869
416.94         14.0512
417.39        13.82479
417.83        13.65854
418.28          13.595
418.73        13.59517
419.17        13.65303
419.62        13.75027
420.07        13.87156
420.51        14.02166
420.96        14.14603
421.41        14.14679
421.85        14.00755
422.30         13.7821
422.74        13.54241
423.19        13.42351
423.64        13.43891
424.08        13.55871
424.53        13.72144
424.98        13.84444
425.42        13.90064
425.87        13.90631
426.31        13.87506
426.76        13.87164
427.21        13.88661
427.65         13.8055
428.10        13.70091
428.54        13.77655
428.99         14.0449
429.44        14.42146
429.88        14.74614
430.33        14.81235
430.77        14.59089
431.22         14.1531
431.66        13.69218
432.11        13.55734
432.56        13.78015
433.00        14.18236
433.45        14.58536
433.89        14.86269
434.34        14.90117
434.78        14.61071
435.23        14.21419
435.67        14.16333
436.12        14.41525
436.57         14.4735
437.01        14.29895
437.46        14.18687
437.90        14.17202
438.35        14.16962
438.79        14.17449
439.24        14.21913
439.68        14.30506
440.13        14.35858
440.57        14.38362
441.02          14.583
441.46        14.83692
441.91        14.63701
442.35        14.10172
442.80        13.82547
443.24        13.79656
443.69         13.7972
444.13        13.76788
444.58        13.61437
445.02        13.38781
445.47        13.38931
445.91        13.56807
446.36        13.59487
446.80        13.44714
447.24        13.30959
447.69        13.22629
448.13          13.178
448.58         13.1801
449.02        13.23099
449.47         13.2964
449.91        13.31829
450.36        13.28644
450.80        13.21662
451.25        13.14228
451.69        13.10467
452.13        13.11806
452.58        13.15585
453.02        13.20907
453.47         13.2594
453.91        13.30167
454.36         13.3473
454.80        13.37526
455.24        13.34913
455.69        13.27555
456.13        13.16067
456.58        13.07097
457.02        13.08547
457.46        13.22034
457.91        13.43981
458.35        13.67511
458.79        13.80899
459.24        13.82222
459.68        13.73779
460.13        13.62582
460.57        13.55788
461.01        13.57158
461.46        13.63758
461.90         13.7252
462.34        13.77585
462.79         13.7729
463.23        13.72951
463.68         13.6924
464.12         13.7362
464.56        13.87309
465.01         14.0797
465.45        14.25528
465.89         14.3049
466.34        14.22596
466.78        13.97646
467.22         13.6855
467.67        13.69849
468.11         13.9815
468.55        14.11368
468.99        14.05562
469.44        14.02744
469.88        14.07611
470.32        14.24701
470.77        14.47751
471.21        14.56023
471.65        14.46891
472.10        14.35514
472.54         14.2699
472.98        14.25133
473.42        14.31996
473.87        14.46732
474.31        14.63891
474.75        14.74271
475.20        14.76166
475.64        14.71577
476.08        14.65387
476.52        14.65046
476.97        14.72378
477.41        14.85364
477.85        14.99105
478.29        15.08697
478.74        15.12882
479.18         15.0569
479.62        14.92484
480.06        15.06932
480.50        15.18937
480.95        15.30887
481.39        15.29325
481.83         15.2524
482.27        15.18958
482.72        14.99535
483.16         14.7512
483.60        14.79373
484.04        15.12974
484.48        15.29769
484.93        15.51347
485.37        16.00632
485.81        16.58654
486.25        17.01063
486.69        22.01399
487.14        17.46539
487.58         11.4888
488.02        14.29318
488.46        16.29134
488.90        16.37266
489.34        16.23862
489.79           16.11
490.23        17.09856
490.67        17.68447
491.11        17.61407
491.55        17.49048
491.99        17.29397
492.43        17.09566
492.88        16.97411
493.32        16.96409
493.76        16.97074
494.20        17.16558
494.64        17.49898
495.08        17.91557
495.52        18.34991
495.96        18.72723
496.41        18.97016
496.85        19.07433
497.29        19.07016
497.73        18.82479
498.17        18.58179
498.61         18.7895
499.05         19.4381
499.49        19.59773
499.93        19.72769
500.37        19.86387
500.82        19.95176
501.26        20.18867
501.70        20.47306
502.14        20.63562
502.58         20.6512
503.02        20.67953
503.46        20.72868
503.90        20.69587
504.34        20.61885
504.78        20.60876
505.22        20.68378
505.66        20.82119
506.10         20.9787
506.54        21.08216
506.98        21.11223
507.42        21.08997
507.86        21.07041
508.30        21.13879
508.74         21.3083
509.18        21.54668
509.62        21.78684
510.06        21.91957
510.50        21.92294
510.94        21.84256
511.38        21.73745
511.82         21.6993
512.26        21.75517
512.70        21.86843
513.14        22.02615
513.58         22.2067
514.02        22.37993
514.46        22.54471
514.90         22.6566
515.34        22.61098
515.78        22.37244
516.22        22.12623
516.66        21.95974
517.10        21.57227
517.54        20.99228
517.98        21.80101
518.42        21.64509
518.86        21.99422
519.30        22.12616
519.74        22.27149
520.18        22.40238
520.62        22.44509
521.06        22.42042
521.50        22.32632
521.93        22.19659
522.37        22.10066
522.81        22.05704
523.25        22.04793
523.69        22.06889
524.13        22.11032
524.57        22.15993
525.01        22.21855
525.45         22.2562
525.89        22.22328
526.32        22.11198
526.76        21.94249
527.20        21.75165
527.64        21.60685
528.08        21.53106
528.52        21.48483
528.96        21.45008
529.40        21.45566
529.83        21.50303
530.27        21.36659
530.71        21.44929
531.15        21.38019
531.59        21.28501
532.03        21.15598
532.46        21.04815
532.90        21.05371
533.34        21.17581
533.78        21.38021
534.22        21.58061
534.66        21.64894
535.09         21.5556
535.53        21.35161
535.97        21.10113
536.41        20.91195
536.85        20.82064
537.28        20.80017
537.72        20.82572
538.16        20.85655
538.60        20.87963
539.04        20.89678
539.47        20.92055
539.91        21.01978
540.35        21.17475
540.79        21.28622
541.22        21.35404
541.66        21.46591
542.10        21.61967
542.54         21.7559
542.97        21.87702
543.41        22.02512
543.85        22.19799
544.29        22.39545
544.72        22.57856
545.16        22.69602
545.60        22.74126
546.04        22.72706
546.47        22.73115
546.91         22.8867
547.35        23.20277
547.79        23.63955
548.22        24.07399
548.66        24.29244
549.10        24.26983
549.53        24.11248
549.97        23.94751
550.41         23.9103
550.84        24.04913
551.28        24.33262
551.72        24.70865
552.15        25.07587
552.59        25.38536
553.03         25.6591
553.46        25.88099
553.90        26.05103
554.34        26.18054
554.77        26.23869
555.21        26.24829
555.65        26.33057
556.08         26.5122
556.52        26.44014
556.96        26.71769
557.39        26.82063
557.83         26.9336
558.27        27.04007
558.70        27.15378
559.14        27.27915
559.57        27.40443
560.01        27.53744
560.45        27.64754
560.88         27.6877
561.32        27.67569
561.75         27.6142
562.19        27.56211
562.63        27.57031
563.06         27.6478
563.50        27.78505
563.93        27.95222
564.37        28.11511
564.80        28.25074
565.24        28.37923
565.68        28.49969
566.11        28.60575
566.55        28.71879
566.98        28.84458
567.42        29.00786
567.85        29.16191
568.29        29.44589
568.72        29.67488
569.16        29.93227
569.60        30.28165
570.03         30.5708
570.47         30.6744
570.90        30.76347
571.34        29.93641
571.77        30.69197
572.21        30.73545
572.64        30.86268
573.08        30.38943
573.51        29.51289
573.95        30.90335
574.38        32.98751
574.82        32.31106
575.25        31.98539
575.69        30.83055
576.12        30.24584
576.56          30.113
576.99        30.98006
577.42        32.36264
577.86        32.27461
578.29        32.05407
578.73        33.56531
579.16        30.97578
579.60        28.12514
580.03        29.31938
580.47        31.20844
580.90        31.79027
581.33        31.27986
581.77         30.7278
582.20         33.8089
582.64        33.27028
583.07        28.35404
583.51        27.72772
583.94        27.22443
584.37        28.30612
584.81         29.4693
585.24        30.82535
585.68        31.45218
586.11        30.91448
586.54        28.58189
586.98        27.84374
587.41        28.15888
587.85        29.37632
588.28        30.23167
588.71        28.95508
589.15        27.98724
589.58        28.46911
590.01        28.74097
590.45        29.37278
590.88        29.45671
591.31        29.14119
591.75        28.99309
592.18        28.97122
592.61        29.46575
593.05        29.81988
593.48        31.33475
593.91        31.43755
594.35        29.11579
594.78        28.67942
595.21        28.79214
595.65        30.23302
596.08        31.40041
596.51         30.2634
596.94        29.53617
597.38         30.0139
597.81        31.46793
598.24        32.34762
598.68        32.18687
599.11        31.89954
599.54        33.52409
599.97        34.47799
600.41        32.64942
600.84        33.08661
601.27        34.04396
601.70        33.99761
602.14        34.32432
602.57        34.31036
603.00        35.06751
603.43        36.53436
603.87         37.5552
604.30        37.79398
604.73        37.25206
605.16         37.0442
605.60        38.00987
606.03        39.02834
606.46        40.02114
606.89         40.0945
607.32         39.6624
607.76        40.38512
608.19        41.73606
608.62         41.5345
609.05        41.21014
609.48        41.83959
609.92        42.06272
610.35        42.25684
610.78        44.16526
611.21        44.95778
611.64         43.3572
612.07        44.11573
612.50        44.68785
612.94        45.33032
613.37        45.37202
613.80         45.8172
614.23        46.52025
614.66        46.79383
615.09        47.24537
615.52        47.46051
615.96        47.54861
616.39        47.81825
616.82        47.49003
617.25        47.51703
617.68        48.35087
618.11         49.1581
618.54          49.882
618.97        49.87365
619.40        49.38567
619.84        49.54868
620.27        50.36414
620.70         50.9973
621.13        51.31131
621.56        51.19055
621.99        50.86861
622.42        51.53959
622.85         52.8183
623.28        52.75496
623.71        52.49108
624.14        52.13888
624.57        52.11139
625.00        52.00449
625.43        51.89364
625.86        51.36756
626.29        51.44154
626.72        51.49778
627.15        51.25607
627.58        51.19696
628.01        51.14453
628.44        51.04412
628.87        50.90534
629.30        50.81631
629.73        50.76263
630.16        50.53996
630.59         49.8927
631.02        49.20296
631.45        48.51509
631.88        47.88814
632.31         47.3426
632.74         47.1897
633.17        46.78018
633.60        46.50026
634.03        46.13717
634.46        45.73648
634.89        45.28776
635.32        44.78659
635.75        44.24874
636.18        43.66776
636.61        43.08723
637.04        42.57697
637.47        42.14684
637.89        41.78293
638.32        41.43595
638.75        41.04807
639.18        40.61024
639.61        40.15545
640.04        39.70782
640.47        39.29767
640.90        38.93877
641.33        38.61648
641.76        38.33661
642.18        38.16759
642.61         38.1096
643.04        38.05661
643.47        37.94756
643.90        38.17442
644.33        37.93612
644.76        37.89212
645.18        37.83155
645.61        37.81312
646.04        37.84342
646.47         37.9031
646.90        38.04025
647.33        38.29913
647.75        38.69537
648.18        39.24862
648.61        39.81516
649.04         40.1659
649.47        40.26947
649.89        40.10217
650.32         39.9662
650.75        40.43315
651.18        41.48481
651.61         42.6896
652.03        43.73149
652.46        44.19921
652.89        44.35645
653.32        44.46817
653.74        44.85949
654.17        46.04319
654.60        47.45689
655.03        46.00027
655.46        47.84844
655.88        50.60048
656.31        54.86966
656.74         124.703
657.16        80.79325
657.59        28.32166
658.02        21.84349
658.45        38.21325
658.87        49.78154
659.30        53.25247
659.73         52.6167
660.15        51.39724
660.58        53.23573
661.01        55.02766
661.44        53.91229
661.86        53.77452
662.29         54.0447
662.72        54.95419
663.14        56.33916
663.57        56.72229
664.00        56.28408
664.42        56.23028
664.85        57.25844
665.27        57.87735
665.70         58.0957
666.13        58.18899
666.55        58.15251
666.98        57.91113
667.41        57.63102
667.83        57.63464
668.26        57.99051
668.69        58.57694
669.11        59.18822
669.54        59.76972
669.96        59.68847
670.39        59.51781
670.82        59.27155
671.24        59.21369
671.67         59.4687
672.09        60.03564
672.52        60.66441
672.94        61.30316
673.37        60.89451
673.80        60.91003
674.22        61.10969
674.65        61.30267
675.07        61.45732
675.50        61.49295
675.92        61.48404
676.35        61.66481
676.77        62.05477
677.20        62.48732
677.62        62.88665
678.05        63.16031
678.47        63.26825
678.90        63.25734
679.32        63.20873
679.75        63.13278
680.17        63.31131
680.60        63.51347
681.02        63.74466
681.45        63.84391
681.87        63.79728
682.30        63.72033
682.72         63.6951
683.15        63.72563
683.57        63.91294
684.00        64.40063
684.42        65.20259
684.85        65.62172
685.27        65.62459
685.70        65.46747
686.12        65.26321
686.54        65.15622
686.97        65.19524
687.39        65.35702
687.82         65.5591
688.24        65.71658
688.66        65.78224
689.09        65.78548
689.51        65.80305
689.94        65.94032
690.36        66.21732
690.78        66.56438
691.21        66.89526
691.63        67.10623
692.06        67.17285
692.48        67.12894
692.90         67.0694
693.33        67.13754
693.75        67.36456
694.17        67.70661
694.60        68.08765
695.02        68.35519
695.44        68.43137
695.87        68.55486
696.29         68.7542
696.71        68.47272
697.14         67.9523
697.56         68.5016
697.98        69.83021
698.41        69.80703
698.83        69.13038
699.25        68.73978
699.68        68.92266
700.10        68.96751
700.52        68.89405
700.94        69.08697
701.37        69.47384
701.79        69.84563
702.21        70.12236
702.64        70.33526
703.06        70.45185
703.48        70.48969
703.90        70.42873
704.33        70.11821
704.75        69.67436
705.17        69.52752
705.59        69.74635
706.01        70.04362
706.44        70.30357
706.86        70.96233
707.28        71.01265
707.70        71.30368
708.12        71.51808
708.55        71.39814
708.97        71.03563
709.39        70.94515
709.81        71.15822
710.23        71.26272
710.66        71.25166
711.08         71.4323
711.50        71.71053
711.92        71.80741
712.34        71.69179
712.76        71.42822
713.19        71.15928
713.61        71.14849
714.03        71.43173
714.45        71.92242
714.87        72.41229
715.29         72.5743
715.71        72.34396
716.13        71.83681
716.56        71.26402
716.98          70.981
717.40        71.07539
717.82        71.45747
718.24        71.99499
718.66        72.27273
719.08        72.57023
719.50        72.50981
719.92        72.29051
720.34        72.18307
720.76        72.24536
721.19        72.19717
721.61        72.25475
722.03        72.38345
722.45        72.60706
722.87        72.76573
723.29        72.85191
723.71        72.96612
724.13        73.08742
724.55        73.17554
724.97        73.26654
725.39        73.28253
725.81        73.19297
726.23        73.60496
726.65        73.63441
727.07        73.45966
727.49        73.69362
727.91        73.67952
728.33        73.68817
728.75        73.72997
729.17        73.82325
729.59        73.92473
730.01        74.04977
730.43        74.23758
730.85          74.486
731.27        74.81479
731.69        75.11138
732.10        75.17429
732.52        74.96714
732.94        74.58302
733.36        74.24389
733.78        74.16236
734.20        74.39922
734.62        75.23008
735.04         76.3057
735.46        76.30251
735.88        75.45385
736.30        75.46357
736.72        76.40711
737.13         77.0046
737.55          76.927
737.97        77.00883
738.39        77.22341
738.81        76.34196
739.23         74.9174
739.65        75.74007
740.06        78.27995
740.48        78.62093
740.90        76.84731
741.32        76.15022
741.74        76.76963
742.16        77.05476
742.57        77.03266
742.99        77.58281
743.41        78.52641
743.83        79.10451
744.25         79.1979
744.67        78.99464
745.08        78.69221
745.50        78.61408
745.92        78.86165
746.34        79.31042
746.75        79.81995
747.17          80.156
747.59        80.28203
748.01        80.27494
748.42        80.27195
748.84        80.53085
749.26        81.11276
749.68        81.72087
750.09        82.25333
750.51        82.97522
750.93        83.61483
751.35        83.20871
751.76        82.08446
752.18        81.52166
752.60        82.00616
753.01        82.15334
753.43        82.08301
753.85        82.19845
754.27        82.89611
754.68        83.63099
755.10        84.32223
755.52          84.811
755.93        84.99516
756.35        84.83675
756.77        84.61311
757.18        84.54828
757.60        84.71852
758.02        85.69313
758.43        86.77036
758.85        85.85686
759.26         83.1961
759.68        82.20869
760.10        85.15794
760.51        86.44641
760.93        85.62497
761.34        84.09218
761.76        83.73798
762.18        83.34669
762.59        83.29951
763.01         83.7566
763.42        84.54263
763.84        85.20127
764.26         85.6167
764.67         85.7196
765.09        85.55351
765.50        85.56586
765.92        85.58089
766.33        84.45315
766.75        82.67934
767.16        81.97612
767.58        82.61879
768.00        84.17977
768.41        86.27232
768.83        87.84419
769.24         88.4557
769.66         87.5853
770.07        85.92358
770.49        84.25607
770.90        83.11221
771.32        84.18785
771.73        86.68751
772.15        86.32505
772.56        83.59377
772.97        82.84147
773.39        84.39834
773.80        85.41495
774.22        84.30399
774.63        84.19428
775.05        84.63277
775.46         84.8906
775.88        84.86309
776.29        84.74896
776.70        84.61466
777.12        84.59148
777.53        84.72356
777.95        84.90009
778.36        85.01897
778.77        84.90546
779.19        84.58392
779.60        84.12065
780.02        83.69883
780.43        83.73359
780.84        84.37514
781.26        84.86986
781.67        85.16583
782.09        86.63164
782.50        88.62959
782.91        87.06367
783.33        84.48392
783.74        83.44943
784.15        84.66981
784.57        85.67039
784.98        86.01328
785.39         86.0327
785.81        85.67756
786.22         85.0617
786.63        84.53059
787.04         84.5074
787.46        85.07745
787.87        86.05587
788.28        87.05145
788.70         88.0409
789.11        87.57214
789.52        87.11003
789.93        86.52397
790.35        85.78023
790.76        85.16952
791.17        85.52983
791.58        86.64175
792.00        87.14201
792.41          86.843
792.82        86.66327
793.23        86.77506
793.65        86.25452
794.06        85.51696
794.47        86.71819
794.88        89.00592
795.29        88.69733
795.71        86.00059
796.12        83.87964
796.53        82.93835
796.94        82.19948
797.35         81.9778
797.76        83.35477
798.18         85.5937
798.59        86.90528
799.00        86.88346
799.41        85.17136
799.82        84.20872
800.23        83.40524
800.64        83.55476
801.06        84.24577
801.47        85.22931
801.88        85.94681
802.29        86.16769
802.70        86.08195
803.11        85.81564
803.52        85.56337
803.93        85.43697
804.34        85.35376
804.75        85.28097
805.17        85.37101
805.58         85.6919
805.99        85.62411
806.40        85.24352
806.81        86.14349
807.22        87.61996
807.63        86.33372
808.04        83.03757
808.45        81.73338
808.86        82.71101
809.27         83.8812
809.68        84.73444
810.09        85.30169
810.50        85.34978
810.91        84.89963
811.32        84.24176
811.73        83.84006
812.14        83.82347
812.55        84.05311
812.96        84.45736
813.37        84.80492
813.78        85.04596
814.19        85.47488
814.60        85.85512
815.01        85.63425
815.42        84.78657
815.83         83.4979
816.24        82.24287
816.65        81.81322
817.05        82.45164
817.46        83.88445
817.87        85.54069
818.28        86.38201
818.69        86.11452
819.10        84.99348
819.51        83.57777
819.92        82.88243
820.33        83.18901
820.74        84.02618
821.14        84.93941
821.55        85.50977
821.96        85.37608
822.37        83.94591
822.78        81.87344
823.19        80.90131
823.60        81.28715
824.00        82.29672
824.41        83.44655
824.82        84.30002
825.23        84.57417
825.64        84.41856
826.04        84.04285
826.45        83.76408
826.86        83.67877
827.27        83.65179
827.68        83.65154
828.08        83.68027
828.49        83.65611
828.90        83.68277
829.31         83.6907
829.72        83.52319
830.12        83.19196
830.53        82.72375
830.94        82.33422
831.35        82.31161
831.75        82.74615
832.16        83.49605
832.57        84.37496
832.97        84.97752
833.38        85.09254
833.79        84.82887
834.20        84.41991
834.60        84.22528
835.01        84.35718
835.42        84.69795
835.82        85.03633
836.23        84.93155
836.64        84.34293
837.04        83.45723
837.45        82.57478
837.86        82.16481
838.26        82.34986
838.67        82.93304
839.08        83.72257
839.48        84.35818
839.89        84.65141
840.29        84.72095
840.70        84.57404
841.11        84.20242
841.51        83.66601
841.92        82.95049
842.33        82.25959
842.73        81.95518
843.14        82.07436
843.54        82.55919
843.95        83.14909
844.35        83.45678
844.76        83.35477
845.17        82.98467
845.57        82.47978
845.98        82.06127
846.38        81.80544
846.79          81.603
847.19        81.51472
847.60        81.55789
848.00        81.75311
848.41        82.07268
848.81         82.3977
849.22        82.46269
849.62        82.27497
850.03        81.89529
850.43        81.52812
850.84        81.45329
851.24        81.81006
851.65        82.32763
852.05        83.02254
852.46        83.72635
852.86        84.35469
853.27        84.98845
853.67        85.20612
854.07        84.48316
854.48        82.89706
854.88        80.64063
855.29        78.51653
855.69        77.68723
856.10        78.36777
856.50        80.43508
856.90        83.16635
857.31        84.86163
857.71        84.97155
858.12        83.88779
858.52        82.35468
858.92        81.38175
859.33        81.19756
859.73        81.53828
860.13        82.21813
860.54        82.85535
860.94        83.36081
861.34        83.81808
861.75        84.22632
862.15        84.66107
862.55         85.0873
862.96        85.42405
863.36        85.64171
863.76        85.66859
864.17        85.50573
864.57        85.25108
864.97        84.99608
865.38        84.86112
865.78        84.92387
866.18        85.07728
866.58        85.30808
866.99        85.57178
867.39        85.89609
867.79         86.3223
868.19        86.62635
868.60        86.38486
869.00        85.55932
869.40        84.27853
869.80        83.19353
870.21        83.30927
870.61        84.90694
871.01        87.66697
871.41        90.73829
871.81        92.65742
872.22        92.99306
872.62        92.14143
873.02        90.86797
873.42        90.48808
873.82        91.22292
874.22        92.56573
874.63        94.03407
875.03        94.62516
875.43        93.91536
875.83        92.80711
876.23         91.2285
876.63        90.86408
877.03        91.94675
877.44        94.75804
877.84        100.1466
878.24        102.5236
878.64        102.2207
879.04        100.1177
879.44        97.73052
879.84        96.27764
880.24        97.38696
880.64        98.55892
881.04        99.82379
881.44        100.4496
881.84        99.76855
882.24        98.23943
882.65        96.77876
883.05        96.37173
883.45        97.18245
883.85         99.0134
884.25        101.1646
884.65        102.2942
885.05        101.9939
885.45        100.7499
885.85         99.3082
886.25        98.68956
886.65         99.1143
887.05        100.2223
887.45        101.6558
887.85        102.7698
888.25        103.2875
888.65        103.4448
889.04        103.2726
889.44        102.8623
889.84        102.2885
890.24        101.4829
890.64        100.7185
891.04        100.4447
891.44        100.7088
891.84        101.4212
892.24        102.1773
892.64        102.2066
893.04        101.4196
893.44        100.2186
893.83        99.05766
894.23        98.60192
894.63        98.97114
895.03        99.83382
895.43        101.2217
895.83        103.1571
896.23        105.4183
896.63         107.956
897.02        109.8675
897.42        109.7023
897.82        107.3454
898.22        103.3767
898.62        99.24242
899.01        97.07175
899.41        97.33646
899.81         99.3387
900.21        102.1302
900.61         104.134
901.00        104.8255
901.40        104.6978
901.80        104.0895
902.20        103.5239
902.59        103.2088
902.99        102.8908
903.39        102.5802
903.79        102.3721
904.18        102.2764
904.58        102.3788
904.98        102.5986
905.38        102.7532
905.77        102.7725
906.17        102.6843
906.57        102.5435
906.96        102.4922
907.36        102.5015
907.76        102.5476
908.15        102.5179
908.55        102.1249
908.95        101.3879
909.34         100.373
909.74        99.42197
910.14        98.87739
910.53        98.86517
910.93        99.36012
911.33        100.1488
911.72         100.842
912.12         101.228
912.52        101.3306
912.91        101.4358
913.31         101.983
913.70        103.0901
914.10        104.6648
914.49        106.1863
914.89         106.226
915.29        104.4424
915.68        101.4334
916.08        98.58858
916.47          97.166
916.87        97.31384
917.26        98.62757
917.66        100.3196
918.05        101.1281
918.45        100.6933
918.84        99.45472
919.24        98.13962
919.64        97.79293
920.03        98.67747
920.42        100.3952
920.82        102.3586
921.21        103.7381
921.61        104.0687
922.00        103.6783
922.40        102.7787
922.79        101.5962
923.19        100.3053
923.58        98.87686
923.98        97.45409
924.37        96.44625
924.77        96.20156
925.16        95.85448
925.55        96.89525
925.95        98.30186
926.34        100.3466
926.74        102.6407
927.13         104.677
927.52        105.4385
927.92        104.8531
928.31        103.2603
928.70        101.0991
929.10        99.14141
929.49        97.65266
929.89        96.47631
930.28        95.96618
930.67        96.68571
931.07        98.49174
931.46        101.2494
931.85        103.8887
932.24        104.7908
932.64        103.6483
933.03        100.7933
933.42        97.04884
933.82        94.33881
934.21        93.33595
934.60        93.56821
934.99        94.41109
935.39        95.12361
935.78          95.556
936.17        95.91449
936.56        96.05972
936.96         96.3243
937.35        95.54496
937.74        94.74613
938.13        94.13525
938.53        94.32005
938.92        95.30537
939.31         97.0231
939.70        98.99148
940.09        99.84968
940.49        99.11932
940.88        97.36285
941.27        95.41285
941.66        94.23745
942.05        94.00236
942.44        94.39684
942.84        95.19421
943.23        96.13569
943.62        96.96202
944.01        97.70513
944.40        98.29749
944.79         98.6412
945.18        98.70065
945.57          98.439
945.97        97.69085
946.36        96.38905
946.75        94.81068
947.14        93.27455
947.53        92.17583
947.92        91.77361
948.31         92.0108
948.70        92.84184
949.09        94.01791
949.48        94.90596
949.87        95.18337
950.26        94.90832
950.65        94.43725
951.04         94.3829
951.43        94.86789
951.82        95.69319
952.21         96.3844
952.60        96.20323
952.99        95.03065
953.38        93.17251
953.77         91.2552
954.16        90.15753
954.55        90.06805
954.94        90.77393
955.33        91.71098
955.72        91.92489
956.11        91.17433
956.50        89.71751
956.89        88.22321
957.28        87.91396
957.66        89.19603
958.05        91.43885
958.44        93.85645
958.83        95.28319
959.22        95.41614
959.61        94.58232
960.00        93.24703
960.39        92.16325
960.78        91.59831
961.16         91.3737
961.55        91.23411
961.94        90.79774
962.33        89.99574
962.72        89.04646
963.11         88.2362
963.49        87.89291
963.88        88.04733
964.27          88.615
964.66        89.29811
965.04         89.5276
965.43        89.02144
965.82        88.03584
966.21        87.04453
966.60        86.64737
966.98        86.95956
967.37         87.7821
967.76        88.73646
968.15        89.09266
968.53        88.63211
968.92        87.54301
969.31        86.35819
969.69        85.76698
970.08         85.9045
970.47        86.62157
970.86        87.38171
971.24        87.24568
971.63        85.96315
972.02        83.80112
972.40        81.65711
972.79        81.09916
973.17        82.70779
973.56         85.9485
973.95         89.7519
974.33        92.01258
974.72        91.93047
975.11        90.12756
975.49        87.70274
975.88        86.16776
976.26        85.78464
976.65         86.1757
977.04        86.61193
977.42        85.53129
977.81        82.62418
978.19        78.79271
978.58        75.84316
978.96        75.47144
979.35        77.88304
979.74        82.69383
980.12        88.99004
980.51        93.36722
980.89         94.5508
981.28        93.28181
981.66        90.78572
982.05        88.72935
982.43        87.54431
982.82        86.80008
983.20        86.58283
983.59        87.14426
983.97        88.56512
984.35        90.95213
984.74        93.78722
985.12        96.04366
985.51        96.83342
985.89        96.23537
986.28        94.47427
986.66        92.03816
987.04        89.61974
987.43         87.4232
987.81        85.63023
988.20         84.3494
988.58        83.43576
988.96        82.68549
989.35        82.42748
989.73         83.8487
990.12        86.76958
990.50        90.43465
990.88        92.59499
991.27        91.78098
991.65        88.43636
992.03        83.03343
992.42         77.3837
992.80        74.86503
993.18        76.43873
993.56        80.19363
993.95        84.42995
994.33        87.71371
994.71        89.61223
995.10        90.90007
995.48        91.29559
995.86        90.12794
996.24        87.34801
996.63        82.69881
997.01        77.50469
997.39        75.65312
997.77        78.77851
998.15        85.91625
998.54        93.65839
998.92        97.41373
999.30        95.80235
999.68        90.00934
1000.06        81.59496
1000.45        74.64136
1000.83        71.15913
1001.21        70.05076
1001.59        70.67599
1001.97        72.32207
1002.35         74.6621
1002.73        78.49207
1003.12        82.79919
1003.50        84.09496
1003.88         80.7992
1004.26        74.49313
1004.64        68.46498
1005.02        65.68362
1005.40        66.43954
1005.78        70.57115
1006.16        78.66046
1006.54         86.9778
1006.92        90.39204
1007.30        90.04752
1007.69        88.52289
1008.07        87.73643
1008.45        87.89499
1008.83        88.33577
1009.21        88.47898
1009.59        84.38599
1009.97         62.8284
1010.35        22.50422
1010.73        15.14436
1011.11        27.90476
1011.49        39.03772
1011.86        48.94526
1012.24        55.42861
1012.62        59.85113
1013.00        63.66329
1013.38        67.61444
1013.76        73.56792
1014.14        84.76927
1014.52        102.7865
1014.90           127.6
1015.28        152.4864
1015.66        163.2439
1016.04         151.145
1016.41        117.7597
1016.79        80.28982
1017.17        57.43978
1017.55        50.21585
1017.93        50.97013
1018.31        54.28853
1018.69        57.16631
1019.06        59.55471
1019.44        61.71938
1019.82        66.42156
1020.20        80.88065
1020.58        115.8045
1020.95        191.6475
1021.33        363.5646
1021.71       -1873.262
1022.09       -45.01314
1022.46        63.95858
1022.84        103.7971
1023.22        124.7538
1023.60        145.8788
1023.97        286.2713
1024.35         60.7905
1024.73        92.28738
