SpectraSmart Spectrum 2.9.0.0
--------- Device Information -----------
Spectrum Name :  反射率_0
Saving Time :  2024/04/26 00:43:20
Spectro-Module Model Name : SE2030-DUVN
Spectro-Module Serial Number : OS361AC55029948
Wavelength Start : 200
Wavelength End : 1025
Wavelength Unit : Wavelength(nm)
Spectrum Unit : Reflectance(%)
-----------Spectrum Setting ------------
Integration Time : 20ms
Average : 10
Boxcar : 0
Background removal :  enabled
linearity correction :  enabled
SC :  disabled
Intensity correction :  disabled
DWT denoise :  enabled
savitzky-golay :  disabled
FFT :  disabled
Running average :  disabled
Kalman :  disabled
High pass :  disabled
---------------BEGIN--------------------
Wavelength(nm)             Reflectance(%)
200.29               0
200.75        93.59756
201.21        87.12117
201.67        79.62751
202.13         75.7196
202.58        75.94916
203.04        79.26485
203.50        83.56242
203.96        85.29056
204.42        83.75646
204.88        80.50905
205.34        77.42004
205.80        76.24066
206.26        77.49728
206.72        82.20162
207.18        91.97832
207.64        99.21597
208.10        90.86012
208.55        77.49403
209.01        70.18988
209.47        69.42231
209.93        72.81544
210.39        79.40372
210.85        86.74143
211.31        89.12627
211.77        84.69238
212.23        75.58338
212.69        66.34586
213.14         64.0178
213.60        69.70123
214.06        81.32807
214.52        94.28545
214.98         101.504
215.44        101.2337
215.90        95.88422
216.36        88.69289
216.81        84.07246
217.27        83.32722
217.73        84.82076
218.19        86.32978
218.65        84.97202
219.11        79.65945
219.57        69.84608
220.02        57.03474
220.48        49.58843
220.94        52.23013
221.40         62.7226
221.86        72.70642
222.32        73.50154
222.77         66.2242
223.23        55.93953
223.69        47.56522
224.15        46.15093
224.61        51.11168
225.06        59.79501
225.52         68.7992
225.98        73.76369
226.44        73.82044
226.90        70.81049
227.36        66.80868
227.81        64.59022
228.27        65.09798
228.73        67.04169
229.19        69.56935
229.65        71.48199
230.10        72.36374
230.56        72.87653
231.02        73.08027
231.48        72.98631
231.93        72.66109
232.39        72.09787
232.85        71.59805
233.31        71.77182
233.77        72.67787
234.22         74.1773
234.68        75.66015
235.14         75.9213
235.60        74.67226
236.05        72.39597
236.51        69.83183
236.97        67.92099
237.43        66.88589
237.88        66.53208
238.34        66.74564
238.80        67.55463
239.26        68.78989
239.71        70.66749
240.17        72.31927
240.63        72.79617
241.08        72.02582
241.54        70.19892
242.00        68.15505
242.46        66.97686
242.91        67.20679
243.37         69.1328
243.83        77.43311
244.28        111.0955
244.74        159.8434
245.20        146.7112
245.66        127.6101
246.11        121.0237
246.57        121.3023
247.03        127.2567
247.48        137.4801
247.94        98.14408
248.40        78.50033
248.85        76.43955
249.31        77.37828
249.77        78.89787
250.22        81.00971
250.68        84.41538
251.14        88.83098
251.59         90.4231
252.05        86.43108
252.51        79.12994
252.96        72.02371
253.42        68.56336
253.88        68.13035
254.33        69.28951
254.79        72.19709
255.25        76.34949
255.70        80.72036
256.16        85.22178
256.62        87.94871
257.07        86.96088
257.53        83.29225
257.99        77.78041
258.44        72.59098
258.90        71.09686
259.35        72.19047
259.81         74.3828
260.27        75.46244
260.72        73.34655
261.18        68.91128
261.63        63.16169
262.09        57.83294
262.55        54.18962
263.00         52.2145
263.46        51.38922
263.91        50.86171
264.37        50.06308
264.83          48.784
265.28        47.15665
265.74        45.61913
266.19        44.52549
266.65         44.0676
267.11        43.96605
267.56        43.85962
268.02        43.35497
268.47        42.35009
268.93         41.0232
269.38        39.58797
269.84        38.61825
270.30        38.26446
270.75        38.36622
271.21        38.65458
271.66        38.72688
272.12        38.45848
272.57        37.95715
273.03        37.39697
273.48        36.94636
273.94        36.68838
274.39        36.51542
274.85        36.34146
275.31        36.02255
275.76        35.52125
276.22        34.92912
276.67        34.32223
277.13        33.91723
277.58        33.68296
278.04        33.58614
278.49        33.45094
278.95        33.11597
279.40        32.51761
279.86        31.78891
280.31        31.00057
280.77        30.38885
281.22         29.9578
281.68        29.67403
282.13        29.45908
282.59        29.25322
283.04        29.01574
283.50        28.80719
283.95        28.58545
284.41        28.31761
284.86         27.9895
285.32         27.6133
285.77        27.26768
286.22         27.1446
286.68        27.23879
287.13        27.46069
287.59        27.62199
288.04        27.42256
288.50        26.85391
288.95        26.01353
289.41        25.13012
289.86         24.4331
290.32         24.0405
290.77        23.85242
291.22        23.83091
291.68        23.87719
292.13         23.9523
292.59        24.09045
293.04        24.27509
293.50        24.48069
293.95        24.68991
294.40        24.87659
294.86        25.05031
295.31        25.24296
295.77         25.4654
296.22        25.71458
296.68        25.96163
297.13        26.12902
297.58         26.2255
298.04        26.29614
298.49        26.41916
298.95        26.75057
299.40        27.30153
299.85        28.01084
300.31        28.77008
300.76        29.41932
301.21        29.89328
301.67        30.26106
302.12        30.51672
302.58          30.712
303.03        30.85332
303.48        30.93575
303.94        31.05885
304.39        31.34204
304.84        31.79974
305.30        32.38382
305.75        32.92321
306.20        33.16451
306.66        33.08569
307.11        32.76332
307.57        32.38226
308.02        32.14022
308.47        32.12128
308.93        32.25974
309.38        32.48794
309.83        32.73125
310.29        32.94106
310.74        33.12675
311.19        33.26827
311.65        33.33113
312.10        33.30646
312.55        33.19854
313.00        33.00674
313.46        32.74944
313.91          32.441
314.36         32.1083
314.82        31.82045
315.27        31.66016
315.72        31.64736
316.18        31.75238
316.63        31.91475
317.08        32.00769
317.53        31.99102
317.99        31.88942
318.44        31.75079
318.89        31.65826
319.35         31.6244
319.80        31.62297
320.25         31.6048
320.70        31.49694
321.16        31.28772
321.61        31.01006
322.06        30.70675
322.51        30.43838
322.97        30.21215
323.42        30.01717
323.87        29.83617
324.32        29.64535
324.78        29.43905
325.23        29.24017
325.68        29.04181
326.13        28.83278
326.59        28.61229
327.04        28.40469
327.49        28.23807
327.94        28.16566
328.39        28.19731
328.85        28.29834
329.30        28.46532
329.75        28.64656
330.20        28.81418
330.66         28.9594
331.11        29.06719
331.56        29.06995
332.01        28.95878
332.46        28.73361
332.92        28.46508
333.37        28.32565
333.82        28.35328
334.27        28.52891
334.72        28.73429
335.17        28.75801
335.63        28.54805
336.08        28.17277
336.53        27.78796
336.98        27.65009
337.43        27.81531
337.88        28.20673
338.34        28.63568
338.79        28.84297
339.24        28.73713
339.69        28.40184
340.14        28.01419
340.59         27.8793
341.05        28.06402
341.50        28.45758
341.95        28.89818
342.40        29.15788
342.85        29.18162
343.30        29.05672
343.75        28.83961
344.20        28.62785
344.66        28.46802
345.11        28.29733
345.56        28.16364
346.01        28.13878
346.46        28.21687
346.91        28.39579
347.36          28.532
347.81        28.38981
348.26        27.95067
348.72        27.32306
349.17        26.69564
349.62        26.45863
350.07        26.69767
350.52        27.27466
350.97        27.98352
351.42        28.50948
351.87        28.75355
352.32        28.80174
352.77        28.70769
353.22        28.56105
353.67        28.40471
354.13        28.21258
354.58        27.99972
355.03         27.8359
355.48        27.73644
355.93        27.70575
356.38        27.70184
356.83        27.64268
357.28        27.50619
357.73        27.30747
358.18        27.09196
358.63        26.93267
359.08        26.84614
359.53        26.81556
359.98         26.7778
360.43        26.63647
360.88        26.37739
361.33        26.02943
361.78        25.69142
362.23        25.52197
362.68        25.54613
363.13        25.70509
363.58        25.87125
364.03         25.8458
364.48        25.58716
364.93        25.16609
365.38        24.68803
365.83        24.32308
366.28        24.12373
366.73        24.03437
367.18        24.01512
367.63        24.00102
368.08        23.96087
368.53        23.91986
368.98        23.85867
369.43        23.73837
369.88        23.56218
370.33        23.34444
370.78         23.1273
371.23        22.98945
371.68        22.95265
372.13         22.9873
372.58        23.08385
373.03        23.22075
373.48        23.36992
373.93        23.52806
374.38        23.63199
374.83        23.58697
375.28        23.38603
375.72        23.05301
376.17        22.69982
376.62        22.47206
377.07        22.41181
377.52        22.47213
377.97        22.59976
378.42        22.70244
378.87        22.74213
379.32        22.74655
379.77         22.7042
380.22        22.59671
380.67        22.42857
381.11        22.20027
381.56        21.95358
382.01        21.77161
382.46        21.67616
382.91        21.65162
383.36        21.65043
383.81        21.58905
384.26         21.4523
384.71        21.27396
385.15        21.09195
385.60        20.97634
386.05        20.92975
386.50        20.91682
386.95        20.91992
387.40        20.91195
387.85        20.88342
388.29        20.84819
388.74         20.7946
389.19        20.66492
389.64        20.45892
390.09        20.17949
390.54        19.92014
390.98        19.84011
391.43        19.97307
391.88        20.25671
392.33        20.53668
392.78        20.58371
393.23        20.37341
393.67         19.9849
394.12        19.59852
394.57         19.3974
395.02        19.42138
395.47        19.60494
395.91        19.86467
396.36        20.02377
396.81        20.02866
397.26        19.91959
397.71        19.76247
398.15        19.63484
398.60        19.58626
399.05        19.59182
399.50        19.59426
399.95        19.46059
400.39        19.26802
400.84        18.98864
401.29        18.74194
401.74        18.70169
402.18        18.91398
402.63        19.29129
403.08        19.70952
403.53        19.97041
403.97        20.01901
404.42         19.9152
404.87        19.71217
405.32        19.50801
405.76        19.34751
406.21        19.20972
406.66        19.11751
407.11        19.11156
407.55        19.19446
408.00        19.35665
408.45         19.5361
408.90        19.59504
409.34        19.49761
409.79        19.29118
410.24        19.06557
410.68        18.94846
411.13        18.97325
411.58        19.10137
412.03        19.28602
412.47        19.44672
412.92        19.53329
413.37        19.56648
413.81        19.56549
414.26        19.57799
414.71        19.60549
415.15        19.63437
415.60        19.61928
416.05        19.51108
416.49        19.30799
416.94        19.04802
417.39        18.78972
417.83        18.62763
418.28        18.59687
418.73        18.66026
419.17        18.78825
419.62        18.93047
420.07        19.06409
420.51        19.20024
420.96        19.30246
421.41        19.30894
421.85        19.20816
422.30        19.04125
422.74         18.8625
423.19        18.79545
423.64        18.84619
424.08        18.99279
424.53        19.16753
424.98        19.28457
425.42        19.32113
425.87        19.28999
426.31        19.21799
426.76        19.20283
427.21        19.23495
427.65        19.16005
428.10        19.05849
428.54        19.18957
428.99        19.56488
429.44        20.04397
429.88        20.43129
430.33        20.54856
430.77        20.32813
431.22        19.72435
431.66        19.01102
432.11        18.78949
432.56        19.10787
433.00        19.62942
433.45        20.11917
433.89        20.52004
434.34        20.65993
434.78        20.26403
435.23        19.66024
435.67        19.61084
436.12         20.0565
436.57         20.2317
437.01         20.0592
437.46        19.95125
437.90        19.94814
438.35        19.93252
438.79        19.89816
439.24        19.88914
439.68        19.91911
440.13        19.89818
440.57        19.86288
441.02        20.14127
441.46        20.57697
441.91        20.44246
442.35        19.86644
442.80        19.63678
443.24        19.73259
443.69        19.85081
444.13        19.89556
444.58        19.70807
445.02        19.36495
445.47        19.30734
445.91        19.49093
446.36        19.49121
446.80        19.29088
447.24        19.14456
447.69        19.09237
448.13        19.07057
448.58         19.0898
449.02         19.1608
449.47        19.24781
449.91        19.28948
450.36         19.2751
450.80         19.2168
451.25        19.15146
451.69         19.1254
452.13        19.15477
452.58        19.21301
453.02        19.28619
453.47        19.35327
453.91        19.40791
454.36        19.46378
454.80        19.50427
455.24        19.49682
455.69        19.44957
456.13        19.36226
456.58        19.30123
457.02        19.33704
457.46        19.48703
457.91        19.71787
458.35        19.95626
458.79        20.08269
459.24        20.08104
459.68        19.97318
460.13        19.84001
460.57        19.76136
461.01         19.7788
461.46        19.86056
461.90         19.9663
462.34        20.02827
462.79        20.02348
463.23        19.96834
463.68        19.91462
464.12        19.95197
464.56        20.09748
465.01        20.33526
465.45        20.54261
465.89        20.61765
466.34        20.55898
466.78        20.28529
467.22        19.96755
467.67        20.08514
468.11        20.57866
468.55        20.83475
468.99        20.77233
469.44          20.688
469.88        20.65201
470.32        20.74002
470.77        20.90702
471.21        20.92686
471.65        20.78529
472.10        20.68196
472.54        20.64924
472.98        20.66418
473.42        20.73783
473.87        20.88286
474.31        21.05902
474.75         21.1995
475.20         21.2898
475.64        21.33049
476.08        21.35093
476.52        21.39769
476.97         21.4838
477.41        21.60084
477.85        21.70757
478.29        21.78064
478.74        21.81845
479.18         21.7241
479.62        21.56272
480.06        21.79862
480.50        21.99277
480.95        22.19241
481.39        22.20466
481.83        22.19078
482.27        22.14878
482.72         21.9019
483.16        21.56927
483.60        21.62804
484.04        22.10456
484.48        22.32819
484.93        22.52887
485.37        23.06659
485.81        23.91962
486.25        23.86608
486.69        31.77663
487.14        25.64287
487.58        16.46934
488.02        20.14835
488.46        22.90546
488.90         22.8529
489.34        23.39485
489.79        23.23054
490.23        24.26768
490.67        24.92292
491.11        24.90865
491.55        24.78322
491.99        24.50518
492.43        24.25691
492.88        24.14401
493.32        24.25367
493.76        24.38809
494.20         24.6426
494.64        24.92926
495.08        25.23293
495.52        25.55053
495.96        25.90585
496.41        26.22506
496.85         26.4601
497.29        26.59428
497.73        26.34304
498.17        26.01247
498.61        26.25824
499.05        27.07745
499.49        27.19847
499.93        27.27918
500.37        27.36092
500.82        27.37784
501.26        27.61292
501.70        27.93111
502.14        28.10455
502.58        28.09797
503.02        28.12098
503.46        28.17967
503.90        28.13179
504.34        28.02435
504.78        28.00372
505.22        28.08989
505.66        28.24853
506.10          28.419
506.54        28.49701
506.98        28.46141
507.42         28.3523
507.86        28.24908
508.30        28.27246
508.74        28.44484
509.18        28.71808
509.62        29.02234
510.06        29.24372
510.50        29.34752
510.94        29.37532
511.38        29.35208
511.82         29.3164
512.26        29.28999
512.70        29.25635
513.14        29.24781
513.58        29.32058
514.02        29.46993
514.46        29.67389
514.90        29.86776
515.34         29.9151
515.78        29.76652
516.22        29.60045
516.66        29.48839
517.10        29.14653
517.54        28.60149
517.98        29.28424
518.42        29.08686
518.86        29.37165
519.30        29.49461
519.74        29.65856
520.18        29.82661
520.62        29.91113
521.06         29.9227
521.50        29.86243
521.93        29.76632
522.37        29.70495
522.81         29.6964
523.25        29.72176
523.69        29.76439
524.13        29.79752
524.57         29.8106
525.01        29.81294
525.45        29.80238
525.89        29.77376
526.32        29.72566
526.76        29.66045
527.20        29.58342
527.64        29.51379
528.08        29.46195
528.52        29.39611
528.96        29.30782
529.40        29.26448
529.83        29.28168
530.27        29.04556
530.71         29.1193
531.15        29.02352
531.59        28.93095
532.03        28.82685
532.46        28.76098
532.90        28.80881
533.34        28.96539
533.78        29.19984
534.22        29.41912
534.66         29.4872
535.09        29.37456
535.53        29.13769
535.97        28.85444
536.41        28.65697
536.85        28.58836
537.28        28.61646
537.72        28.70119
538.16        28.77864
538.60        28.82698
539.04        28.84387
539.47        28.85511
539.91        28.97223
540.35        29.17051
540.79        29.31296
541.22        29.38107
541.66        29.46727
542.10        29.56791
542.54        29.61607
542.97        29.65298
543.41        29.79117
543.85        30.03812
544.29        30.37314
544.72        30.70443
545.16        30.90244
545.60        30.93954
546.04        30.84754
546.47        30.75546
546.91        30.88001
547.35        31.24724
547.79        31.79579
548.22         32.3402
548.66        32.56747
549.10        32.43826
549.53         32.1043
549.97        31.76805
550.41        31.66034
550.84        31.84905
551.28        32.28704
551.72         32.8521
552.15        33.28198
552.59        33.49039
553.03        33.69683
553.46         33.6885
553.90        33.79126
554.34         33.9594
554.77        34.12333
555.21        34.24669
555.65        34.38757
556.08        34.55843
556.52        34.33334
556.96        34.54523
557.39        34.58336
557.83        34.70593
558.27        34.86594
558.70        35.05988
559.14        35.26491
559.57         35.4523
560.01        35.64119
560.45        35.79129
560.88        35.83982
561.32        35.80807
561.75        35.69666
562.19        35.58587
562.63        35.55149
563.06        35.60713
563.50        35.74002
563.93        35.90662
564.37        36.05462
564.80        36.15568
565.24        36.24268
565.68        36.32167
566.11        36.40541
566.55         36.5289
566.98        36.67006
567.42         36.8333
567.85        37.09734
568.29        37.49344
568.72        37.75125
569.16         37.8841
569.60        38.70118
570.03        38.86797
570.47        38.99392
570.90        38.90775
571.34        38.20906
571.77        38.79607
572.21        38.95397
572.64        38.66129
573.08        38.50031
573.51        37.03616
573.95        38.75315
574.38        41.29661
574.82        40.20356
575.25        39.90194
575.69        38.50694
576.12        37.94342
576.56        37.84562
576.99        38.70329
577.42        40.25676
577.86        40.44749
578.29        40.27224
578.73        42.17934
579.16        38.74067
579.60        35.40363
580.03        36.90835
580.47        39.17831
580.90        40.14351
581.33        39.21499
581.77        38.80158
582.20        42.40815
582.64         42.0678
583.07        35.86539
583.51        35.01704
583.94         34.4051
584.37        35.75785
584.81        37.30303
585.24         39.2573
585.68        40.37432
586.11        39.55447
586.54        36.62895
586.98        35.56749
587.41        35.82444
587.85        37.67629
588.28        38.79283
588.71        36.96373
589.15        35.73781
589.58        36.35726
590.01         36.8049
590.45        37.17237
590.88         37.7542
591.31        37.27424
591.75        36.95451
592.18        36.94461
592.61        37.71269
593.05        38.51011
593.48        40.20097
593.91        40.37281
594.35        37.21399
594.78        36.54979
595.21        36.59316
595.65        38.34892
596.08        39.80289
596.51        38.41902
596.94        37.59002
597.38        38.20631
597.81        39.93972
598.24        41.03391
598.68        40.37863
599.11        40.24985
599.54        42.28742
599.97        43.61131
600.41        40.93351
600.84        41.34736
601.27        42.54251
601.70        42.16038
602.14        42.30374
602.57        42.12535
603.00         43.1152
603.43        44.57035
603.87        45.88321
604.30        45.90134
604.73        44.88065
605.16         44.5827
605.60        45.43713
606.03        46.63234
606.46        47.71991
606.89        48.07639
607.32        46.91217
607.76        47.30925
608.19        49.12475
608.62        48.95932
609.05        48.43207
609.48        49.13057
609.92        49.31918
610.35        49.66825
610.78        51.51664
611.21          52.253
611.64         50.3604
612.07        51.14066
612.50        51.67166
612.94        52.27869
613.37         52.2005
613.80        52.58638
614.23        53.40983
614.66        53.48272
615.09        53.71516
615.52        53.97323
615.96        54.28315
616.39        54.95474
616.82        54.45087
617.25        53.88939
617.68        55.12108
618.11        55.68875
618.54        56.08899
618.97        55.97479
619.40        55.63849
619.84        55.94345
620.27        56.76587
620.70        57.42741
621.13          57.826
621.56        57.04687
621.99        56.50488
622.42        57.37627
622.85        59.06255
623.28        58.98293
623.71        58.42908
624.14        58.40005
624.57        57.97167
625.00         57.8738
625.43        57.89914
625.86        57.40636
626.29        57.49084
626.72         57.7999
627.15        57.45337
627.58        57.36411
628.01        57.17489
628.44         57.2709
628.87        57.13641
629.30        57.03072
629.73        57.18142
630.16         57.0102
630.59        56.62033
631.02        56.08147
631.45        55.48812
631.88        54.96288
632.31        54.53839
632.74         54.1713
633.17         53.8328
633.60        53.48599
634.03         53.1161
634.46        52.74338
634.89        52.36294
635.32        51.96248
635.75        51.54459
636.18        51.10866
636.61        50.67877
637.04        50.29446
637.47        49.95758
637.89        49.65935
638.32        49.35539
638.75        49.00713
639.18        48.61095
639.61        48.19381
640.04        47.77966
640.47        47.39872
640.90        47.06636
641.33        46.77289
641.76        46.51781
642.18        46.36882
642.61        46.32456
643.04        46.25793
643.47        46.11753
643.90        46.41788
644.33        46.19011
644.76        46.22313
645.18        46.22453
645.61          46.205
646.04        46.15897
646.47        46.07778
646.90        46.05829
647.33        46.22112
647.75        46.60306
648.18        47.20417
648.61        47.81914
649.04        48.14497
649.47        48.14388
649.89        47.74081
650.32        47.31672
650.75        47.77421
651.18         49.0228
651.61        50.05036
652.03        50.58863
652.46        50.95031
652.89        51.37466
653.32        51.43932
653.74        51.44937
654.17        52.73154
654.60        53.50266
655.03        52.28379
655.46        53.81692
655.88        57.22663
656.31        61.37671
656.74        141.3117
657.16        91.82808
657.59        32.25439
658.02        24.52631
658.45        42.55721
658.87        55.30217
659.30        57.88874
659.73        57.45185
660.15        55.90942
660.58        58.35937
661.01        60.30686
661.44        58.74622
661.86        58.40454
662.29        58.63254
662.72        59.47533
663.14        60.75735
663.57        60.94246
664.00          60.234
664.42        60.27514
664.85        61.14086
665.27        61.77563
665.70        61.98243
666.13        62.05952
666.55        61.98838
666.98        61.68387
667.41        61.33484
667.83        61.29443
668.26        61.64016
668.69        62.23937
669.11         62.8555
669.54        63.41513
669.96        63.24655
670.39        62.93315
670.82        62.53108
671.24        62.45655
671.67        62.80953
672.09        63.41431
672.52        63.99716
672.94        64.58982
673.37        64.06743
673.80        64.05968
674.22        64.08672
674.65        64.17812
675.07        64.26344
675.50        64.34682
675.92        64.45831
676.35        64.68211
676.77        65.01985
677.20        65.37903
677.62        65.72865
678.05        65.99438
678.47        66.13944
678.90        66.30361
679.32        66.32969
679.75         66.3041
680.17        66.44999
680.60        66.59009
681.02        66.69347
681.45        66.71704
681.87        66.64559
682.30        66.50146
682.72        66.39005
683.15        66.49953
683.57        66.87218
684.00        67.34867
684.42        67.94178
684.85        68.26636
685.27         68.3193
685.70        68.13398
686.12         67.8273
686.54        67.79149
686.97        68.10812
687.39        68.06945
687.82        68.67625
688.24        68.87673
688.66        68.93842
689.09        68.89331
689.51        68.84563
689.94        68.90827
690.36        69.11318
690.78        69.42157
691.21        69.76034
691.63        70.02277
692.06        70.18018
692.48        70.27392
692.90        70.35338
693.33        70.47857
693.75        70.66552
694.17         70.8974
694.60        71.14242
695.02        71.31609
695.44        71.36448
695.87        71.52924
696.29        71.79099
696.71        71.55344
697.14        71.11283
697.56        71.74302
697.98        73.01569
698.41        73.70647
698.83        72.39006
699.25        71.89034
699.68        71.94479
700.10        71.94369
700.52        71.92253
700.94        72.27354
701.37        72.90118
701.79        73.47463
702.21        73.87734
702.64        74.20119
703.06        74.39072
703.48        74.35297
703.90        74.11433
704.33        73.70866
704.75        73.27734
705.17        73.14446
705.59        73.38733
706.01        73.79931
706.44        74.23402
706.86        75.06075
707.28        75.19406
707.70        75.52543
708.12        75.73585
708.55        75.64112
708.97        75.31799
709.39        75.16773
709.81        75.24238
710.23        75.26508
710.66         75.2493
711.08        75.44348
711.50        75.74476
711.92          75.887
712.34        75.83331
712.76        75.63867
713.19         75.4557
713.61        75.56438
714.03        75.99653
714.45        76.66007
714.87        77.30307
715.29        77.53187
715.71          77.272
716.13        76.65674
716.56         75.9683
716.98        75.67097
717.40         75.8728
717.82         76.4791
718.24        77.27222
718.66        77.60318
719.08        77.78246
719.50        77.59474
719.92        77.29171
720.34        77.07808
720.76        77.03404
721.19        76.95214
721.61        77.07148
722.03        77.25873
722.45        77.56168
722.87        77.97338
723.29         78.4004
723.71        78.66923
724.13        78.73531
724.55        78.63835
724.97        78.47056
725.39          78.396
725.81        78.46288
726.23        78.62602
726.65        78.83182
727.07         78.9914
727.49        79.08333
727.91        79.14851
728.33        79.21118
728.75        79.30688
729.17        79.44158
729.59        79.57747
730.01        79.70956
730.43        79.88008
730.85         80.0996
731.27        80.30001
731.69        80.37741
732.10        80.66203
732.52        80.30692
732.94        80.05171
733.36        79.81873
733.78        79.83598
734.20        80.15708
734.62        80.91904
735.04        81.76344
735.46        82.19823
735.88        81.06238
736.30        81.25491
736.72        82.39573
737.13        83.10593
737.55        83.02441
737.97        83.07288
738.39        83.28565
738.81        82.48481
739.23        81.21027
739.65        82.15661
740.06        84.75673
740.48        85.08333
740.90         83.2403
741.32        82.48546
741.74        83.10342
742.16        83.42936
742.57        83.49889
742.99        84.28311
743.41        85.52478
743.83         86.1606
744.25        86.09865
744.67        85.87592
745.08        85.71284
745.50        85.69576
745.92        85.92695
746.34        86.43063
746.75        87.04835
747.17        87.42223
747.59        87.50496
748.01        87.44978
748.42        87.40377
748.84        87.55467
749.26        88.04063
749.68         88.6641
750.09         89.3279
750.51        90.20782
750.93        90.99252
751.35        90.66988
751.76        89.56564
752.18        89.07734
752.60        89.58674
753.01        89.74838
753.43        89.69055
753.85        89.76186
754.27         89.8909
754.68        91.34665
755.10        91.64867
755.52        91.88426
755.93        92.62729
756.35        92.75589
756.77        92.81059
757.18        92.88406
757.60        93.04346
758.02        93.69529
758.43        94.32921
758.85        93.70827
759.26        91.35824
759.68         91.1414
760.10        92.46977
760.51        94.11967
760.93        93.50957
761.34        92.13479
761.76        91.91891
762.18        91.16557
762.59         90.8698
763.01        91.28954
763.42        92.69527
763.84         93.6618
764.26        94.11462
764.67        94.36156
765.09        94.38533
765.50        94.47993
765.92        94.40813
766.33        92.76785
766.75        90.28079
767.16        89.39199
767.58        90.40345
768.00        92.36318
768.41        94.72563
768.83        96.52811
769.24         97.0526
769.66        96.12087
770.07        94.41145
770.49        92.63085
770.90         91.3326
771.32        92.45909
771.73        95.17609
772.15        94.67384
772.56        91.47259
772.97        90.80714
773.39        92.62079
773.80        93.26139
774.22        92.50182
774.63        92.58022
775.05        93.38741
775.46        93.78559
775.88        93.63403
776.29        93.27126
776.70        92.85059
777.12        92.65649
777.53        92.77351
777.95        93.02547
778.36        93.28514
778.77        93.30895
779.19        93.09651
779.60        92.80489
780.02        92.53825
780.43         92.4928
780.84        92.87362
781.26        93.12698
781.67        93.34013
782.09        95.06747
782.50        97.40421
782.91        96.24984
783.33        92.56733
783.74        91.33108
784.15        92.78134
784.57        93.86401
784.98        94.09225
785.39        93.99795
785.81        93.59682
786.22        93.12685
786.63        92.90141
787.04        93.02216
787.46        93.54839
787.87        94.61771
788.28        95.86111
788.70        96.46684
789.11        96.27826
789.52        95.58066
789.93        94.73489
790.35        94.23397
790.76        94.21771
791.17        94.58576
791.58        95.14697
792.00         95.4775
792.41        95.44419
792.82        95.32764
793.23        95.31569
793.65         94.9166
794.06        94.47787
794.47        95.78738
794.88        97.93494
795.29        97.43444
795.71        94.56126
796.12        92.08038
796.53        90.75102
796.94        90.28769
797.35        90.82727
797.76        92.36636
798.18        94.20374
798.59        95.42403
799.00        95.59723
799.41        94.73973
799.82        93.38042
800.23         92.5899
800.64        92.61234
801.06        93.03581
801.47         93.7036
801.88        94.20041
802.29        94.35794
802.70        94.51585
803.11        94.46453
803.52        94.34979
803.93        94.10976
804.34        94.00231
804.75        94.19828
805.17        93.55235
805.58        94.63284
805.99        94.97899
806.40        95.18088
806.81        95.86665
807.22        96.52785
807.63        95.09969
808.04        92.29255
808.45        91.10078
808.86        91.79735
809.27         92.9187
809.68         93.9769
810.09        94.69205
810.50        94.80515
810.91        94.42871
811.32        93.83261
811.73        93.45506
812.14        93.42809
812.55        93.57012
812.96        93.85224
813.37        94.22278
813.78        94.61295
814.19        95.09265
814.60        95.42339
815.01        95.21783
815.42        94.44075
815.83        93.16985
816.24        91.86259
816.65        91.32892
817.05        91.82608
817.46        93.10229
817.87        94.59477
818.28        95.26882
818.69        94.84067
819.10        93.55528
819.51        92.08765
819.92        91.58557
820.33        92.32148
820.74        93.92061
821.14        95.64713
821.55        96.22443
821.96         95.3887
822.37        93.56066
822.78        91.48011
823.19        90.27839
823.60        90.24372
824.00        91.07294
824.41        92.27604
824.82        93.15652
825.23        93.39973
825.64        93.26547
826.04         92.9102
826.45        92.55429
826.86        92.28874
827.27         91.9807
827.68        91.72607
828.08        91.77118
828.49         92.0755
828.90        92.67456
829.31        93.31718
829.72        93.50667
830.12        93.14997
830.53         92.3855
830.94        91.59256
831.35        91.29696
831.75        91.66391
832.16         92.4779
832.57         93.5309
832.97        94.37285
833.38        94.73817
833.79        94.74779
834.20        94.58278
834.60        94.52126
835.01        94.66242
835.42        94.89841
835.82        95.05357
836.23        94.75521
836.64        94.00186
837.04        92.97586
837.45        91.98584
837.86        91.50781
838.26        91.66184
838.67        92.24311
839.08        93.05339
839.48        93.71021
839.89        94.00873
840.29        94.07705
840.70        93.89644
841.11        93.41852
841.51        92.70348
841.92        91.74364
842.33        90.82298
842.73        90.43581
843.14        90.64512
843.54        91.36937
843.95        92.22596
844.35        92.62758
844.76        92.40061
845.17        91.74269
845.57        90.93697
845.98        90.43845
846.38        90.37097
846.79        90.55666
847.19        90.89989
847.60        91.12788
848.00        91.18561
848.41        91.13599
848.81        91.04659
849.22        90.92467
849.62        90.85867
850.03        90.85726
850.43        90.97338
850.84        91.18495
851.24        91.54046
851.65         91.7962
852.05        92.22296
852.46        93.06022
852.86        94.27708
853.27        95.80482
853.67        96.78716
854.07        96.06328
854.48        93.64604
854.88        89.97977
855.29        86.37646
855.69        84.73848
856.10        85.46931
856.50        88.29668
856.90        92.16821
857.31        94.61316
857.71        94.76822
858.12        93.25368
858.52        91.15161
858.92        89.94525
859.33        89.96323
859.73         90.7888
860.13        92.06657
860.54        93.08055
860.94        93.61904
861.34        93.87542
861.75        93.98349
862.15        94.22279
862.55        94.62117
862.96        95.00801
863.36        95.32708
863.76         95.4511
864.17        95.35543
864.57        95.18697
864.97        94.97921
865.38         94.7474
865.78        94.57377
866.18        94.38258
866.58        94.32659
866.99        94.64268
867.39        95.43639
867.79          96.675
868.19        97.92203
868.60        98.34319
869.00        97.75339
869.40        96.33849
869.80        94.92136
870.21        94.81036
870.61        96.38809
871.01        99.25721
871.41        102.4233
871.81        104.1924
872.22        104.0805
872.62        102.6039
873.02        100.7701
873.42        100.1206
873.82        101.0335
874.22        103.2187
874.63          105.85
875.03        107.0676
875.43        106.1287
875.83        103.6258
876.23        101.6623
876.63        101.5246
877.03        103.9404
877.44        109.3606
877.84        94.66696
878.24        118.3036
878.64        115.8493
879.04        109.7741
879.44        107.9314
879.84        106.6771
880.24        105.6163
880.64        107.0736
881.04        110.4567
881.44        112.6561
881.84        112.0812
882.24        109.7059
882.65        107.1337
883.05        106.4343
883.45        107.9647
883.85        111.0526
884.25        114.5061
884.65        116.2772
885.05        115.7039
885.45         113.567
885.85        111.0768
886.25        109.8453
886.65        110.2289
887.05        111.6907
887.45        113.6394
887.85        115.0233
888.25        115.4273
888.65        115.2232
889.04         114.628
889.44        114.0137
889.84        113.5118
890.24         112.938
890.64        112.4037
891.04         112.123
891.44        112.1094
891.84        112.3948
892.24        112.7077
892.64        112.5095
893.04        111.7808
893.44        110.8012
893.83        110.0139
894.23        110.0995
894.63        111.1434
895.03        112.8489
895.43        115.0016
895.83        117.1667
896.23        119.0173
896.63         120.594
897.02        121.4743
897.42        121.0205
897.82        119.2857
898.22        116.5808
898.62        113.7765
899.01        112.1347
899.41        111.9743
899.81        112.8982
900.21        114.3994
900.61         115.604
901.00        116.1765
901.40        116.3661
901.80        116.2511
902.20        115.9643
902.59        115.5954
902.99        115.0418
903.39        114.3938
903.79        113.8582
904.18        113.5169
904.58         113.405
904.98        113.5046
905.38         113.746
905.77        114.0499
906.17        114.4087
906.57        114.7515
906.96        115.0266
907.36        115.1663
907.76        115.1917
908.15        115.0572
908.55        114.5916
908.95        113.8516
909.34        112.8587
909.74        111.9322
910.14        111.3864
910.53        111.3388
910.93        111.7799
911.33        112.4834
911.72        113.0223
912.12        113.2072
912.52        113.0965
912.91        113.0189
913.31        113.4906
913.70        114.6382
914.10        116.3418
914.49        118.0963
914.89        118.3823
915.29        116.8037
915.68        113.9173
916.08        111.1291
916.47        109.6922
916.87        109.7846
917.26        110.9916
917.66        112.5016
918.05        113.0277
918.45        112.2318
918.84        110.5922
919.24        108.9269
919.64        108.3976
920.03        109.3074
920.42        111.2539
920.82        113.5703
921.21        115.2846
921.61        115.8554
922.00        115.5926
922.40        114.8153
922.79        113.8712
923.19        112.9039
923.58        112.0201
923.98        111.2326
924.37        110.0457
924.77         108.624
925.16        108.7547
925.55        107.9336
925.95        109.0915
926.34        111.3812
926.74        114.3403
927.13         117.207
927.52        118.6544
927.92        118.5176
928.31        117.1553
928.70        115.0292
929.10        112.9363
929.49        111.1838
929.89        109.6286
930.28        108.6527
930.67         108.879
931.07        110.2241
931.46        112.5749
931.85        115.0126
932.24        116.1259
932.64        115.6202
933.03        113.8017
933.42        111.1883
933.82        109.0859
934.21        107.9635
934.60        107.5293
934.99         107.634
935.39        107.9066
935.78         108.254
936.17        109.2238
936.56        110.6511
936.96        109.5644
937.35        108.9313
937.74        106.7574
938.13        105.1022
938.53        104.8609
938.92        105.9897
939.31        108.3317
939.70        111.0694
940.09         112.153
940.49        110.8773
940.88        108.0675
941.27         105.175
941.66        103.9218
942.05        104.5286
942.44        106.4348
942.84        108.8681
943.23        110.5949
943.62        111.0518
944.01        110.5885
944.40        109.7031
944.79         109.159
945.18        109.1877
945.57        109.5615
945.97        109.8397
946.36        109.2974
946.75        107.8651
947.14        106.1412
947.53        104.7781
947.92        104.2908
948.31        104.6787
948.70        105.7895
949.09        107.3485
949.48        108.6648
949.87        109.3325
950.26        109.4095
950.65        109.2009
951.04        109.2457
951.43        109.6635
951.82        110.2725
952.21        110.6277
952.60         110.069
952.99        108.5209
953.38        106.2715
953.77        104.0188
954.16        102.7316
954.55        102.6017
954.94        103.4239
955.33          104.47
955.72        104.4967
956.11        103.2184
956.50        100.9748
956.89        98.74433
957.28        98.31923
957.66        100.2496
958.05        103.6893
958.44        107.4662
958.83          109.86
959.22        110.3943
959.61        109.4982
960.00        107.8183
960.39        106.4115
960.78         105.661
961.16         105.363
961.55        105.0676
961.94        104.1094
962.33        102.4347
962.72        100.4287
963.11        98.81782
963.49        98.50287
963.88        99.59657
964.27        101.8983
964.66        104.5824
965.04        105.8711
965.43        105.0247
965.82        102.7156
966.21        100.1501
966.60        98.90232
966.98        99.24519
967.37        100.6097
967.76        102.3486
968.15        103.2131
968.53        102.7715
968.92        101.5181
969.31        99.89972
969.69        98.40451
970.08        97.25586
970.47        96.33749
970.86        95.69942
971.24        95.51155
971.63        95.77203
972.02        96.43285
972.40        97.59588
972.79        99.27108
973.17        101.4665
973.56         103.954
973.95        105.9763
974.33        106.1835
974.72        104.3177
975.11        100.9227
975.49         97.4267
975.88        95.73025
976.26        96.09547
976.65         98.1907
977.04        100.9131
977.42        101.4916
977.81        98.93583
978.19        94.35355
978.58        90.24099
978.96        89.22672
979.35        91.67633
979.74         96.9525
980.12        103.7528
980.51        107.7728
980.89        107.6196
981.28        104.6171
981.66        100.5847
982.05        97.85471
982.43        96.86987
982.82        96.84472
983.20        97.69236
983.59        99.51362
983.97         102.296
984.35        106.2692
984.74        110.4325
985.12        112.7572
985.51        111.9271
985.89        108.3265
986.28        103.2162
986.66        98.95064
987.04        96.69271
987.43        96.06214
987.81        96.42859
988.20         97.0864
988.58        97.87657
988.96        99.12313
989.35        101.2753
989.73        105.1392
990.12        109.3485
990.50        112.7037
990.88        113.6794
991.27        111.9247
991.65        107.8762
992.03        101.8031
992.42        95.27735
992.80        91.40075
993.18        91.28294
993.56        93.39731
993.95        96.23025
994.33         98.3601
994.71         99.3704
995.10          100.01
995.48        99.99966
995.86        98.71735
996.24        96.11605
996.63        91.88217
997.01        87.40768
997.39        86.54685
997.77        90.77875
998.15        99.01073
998.54        107.5336
998.92        111.4355
999.30        109.3449
999.68        102.5525
1000.06        92.94282
1000.45        85.38445
1000.83        82.16599
1001.21        81.82497
1001.59         83.5134
1001.97         86.3718
1002.35        90.08464
1002.73        95.73283
1003.12         101.782
1003.50         103.298
1003.88        98.09194
1004.26        88.49589
1004.64        79.49506
1005.02        75.54462
1005.40        77.05446
1005.78         83.9245
1006.16        96.63452
1006.54        108.1858
1006.92        111.0383
1007.30        108.3511
1007.69        104.7154
1008.07        102.9399
1008.45        103.3391
1008.83        105.2468
1009.21        110.1516
1009.59        121.3664
1009.97        138.4107
1010.35        146.4651
1010.73        124.9233
1011.11        102.8007
1011.49        90.13647
1011.86        84.31451
1012.24        81.62706
1012.62        80.78346
1013.00        81.27711
1013.38        82.60471
1013.76        86.75128
1014.14        98.67884
1014.52        121.7853
1014.90        157.3221
1015.28        197.4859
1015.66        222.6009
1016.04        219.0123
1016.41         186.153
1016.79        140.2903
1017.17        104.0345
1017.55        84.34668
1017.93        74.92471
1018.31         71.8535
1018.69        73.07919
1019.06        77.87198
1019.44        87.10237
1019.82        103.4877
1020.20        127.9146
1020.58        161.3708
1020.95        209.9289
1021.33        300.7587
1021.71       -1074.632
1022.09        25.80868
1022.46         85.6327
1022.84        104.8681
1023.22          112.53
1023.60        114.9976
1023.97        97.46449
1024.35        138.6918
1024.73          144.05
