SpectraSmart Spectrum 2.9.0.0
--------- Device Information -----------
Spectrum Name :  反射率_0
Saving Time :  2024/04/25 23:55:09
Spectro-Module Model Name : SE2030-DUVN
Spectro-Module Serial Number : OS361AC55029948
Wavelength Start : 200
Wavelength End : 1025
Wavelength Unit : Wavelength(nm)
Spectrum Unit : Reflectance(%)
-----------Spectrum Setting ------------
Integration Time : 20ms
Average : 10
Boxcar : 0
Background removal :  enabled
linearity correction :  enabled
SC :  disabled
Intensity correction :  disabled
DWT denoise :  enabled
savitzky-golay :  disabled
FFT :  disabled
Running average :  disabled
Kalman :  disabled
High pass :  disabled
---------------BEGIN--------------------
Wavelength(nm)             Reflectance(%)
200.29               0
200.75        74.86317
201.21        69.48826
201.67         63.6094
202.13        60.08353
202.58        59.20166
203.04        60.51301
203.50        62.92707
203.96        64.50265
204.42        64.66455
204.88        64.03136
205.34        63.44848
205.80        63.90226
206.26        65.95537
206.72        70.73921
207.18        79.94032
207.64        87.49319
208.10        81.17798
208.55         69.3583
209.01        62.15086
209.47        60.19817
209.93        61.42729
210.39        65.13885
210.85        69.25686
211.31        69.35538
211.77        64.31882
212.23        55.75237
212.69        48.09942
213.14        48.28277
213.60        57.10447
214.06        72.40716
214.52        88.44011
214.98        96.43917
215.44        94.54658
215.90        85.92802
216.36        75.11928
216.81        68.48336
217.27        67.64109
217.73        70.22418
218.19         73.3485
218.65        73.36375
219.11        69.01118
219.57        60.06504
220.02        47.84808
220.48        40.23351
220.94        41.70737
221.40        50.23806
221.86        58.28255
222.32        57.95232
222.77         50.3798
223.23        40.28419
223.69        32.25727
224.15        30.97052
224.61        35.80201
225.06        44.19061
225.52        52.89468
225.98          57.859
226.44        58.20472
226.90        55.62393
227.36          51.897
227.81        49.37409
228.27        48.99856
228.73        49.78385
229.19        51.19411
229.65        52.51171
230.10        53.39742
230.56        54.11098
231.02        54.73586
231.48        55.31753
231.93        55.83252
232.39        56.26261
232.85        56.41492
233.31        56.07355
233.77        55.20773
234.22        53.87651
234.68         52.3797
235.14        51.30413
235.60        50.90713
236.05        51.12208
236.51        51.60828
236.97        51.78339
237.43        51.49238
237.88        50.85837
238.34        50.14585
238.80        50.31749
239.26        51.75783
239.71        54.28269
240.17         56.8788
240.63        58.28585
241.08        58.25188
241.54        57.16996
242.00        55.73422
242.46        54.77915
242.91          54.663
243.37        55.12977
243.83        59.16933
244.28        83.84241
244.74        132.3564
245.20        131.7803
245.66        117.6465
246.11        110.7645
246.57        106.9662
247.03         100.505
247.48         70.9266
247.94        34.60451
248.40        53.36048
248.85        65.32149
249.31        71.77115
249.77        76.09048
250.22        80.30613
250.68        85.96552
251.14        93.28362
251.59        97.93467
252.05        95.54969
252.51        88.10774
252.96        79.25966
253.42        72.82475
253.88        68.50172
254.33        65.13544
254.79        64.10365
255.25        66.58488
255.70        71.53023
256.16        77.78257
256.62        82.30133
257.07        82.08775
257.53        78.14632
257.99        71.77219
258.44        65.62906
258.90        63.59008
259.35        64.60104
259.81        66.89963
260.27        68.01272
260.72        65.62312
261.18        60.62945
261.63        54.22626
262.09        48.37172
262.55        44.64117
263.00        42.97434
263.46        42.62405
263.91        42.51372
264.37         41.7699
264.83        40.22004
265.28        38.12838
265.74        36.13321
266.19        34.93563
266.65        34.73061
267.11        35.08104
267.56        35.43865
268.02        35.17709
268.47        34.18754
268.93         32.7075
269.38        31.04518
269.84         29.9389
270.30        29.58771
270.75        29.78678
271.21         30.1624
271.66        30.16188
272.12        29.64049
272.57        28.78138
273.03        27.89503
273.48        27.35828
273.94        27.27901
274.39        27.47643
274.85        27.71537
275.31        27.65198
275.76        27.20592
276.22         26.5245
276.67        25.78844
277.13        25.34641
277.58        25.20585
278.04        25.27038
278.49        25.30896
278.95          25.059
279.40        24.45964
279.86        23.68295
280.31        22.86445
280.77        22.31047
281.22        22.04456
281.68         21.9822
282.13        22.01855
282.59        22.04148
283.04        21.99977
283.50        21.95779
283.95        21.86826
284.41        21.67659
284.86        21.37717
285.32        20.98844
285.77        20.62212
286.22        20.51106
286.68        20.66274
287.13        20.98761
287.59        21.28164
288.04        21.23082
288.50        20.81142
288.95        20.12358
289.41        19.39682
289.86        18.87338
290.32          18.665
290.77        18.67348
291.22        18.82961
291.68        18.99167
292.13        19.12122
292.59        19.26337
293.04        19.45751
293.50        19.76367
293.95        20.17525
294.40        20.63025
294.86        21.06548
295.31        21.40356
295.77        21.63073
296.22        21.78216
296.68        21.88208
297.13        21.94002
297.58        21.99586
298.04        22.07041
298.49        22.22576
298.95        22.58912
299.40        23.16149
299.85        23.89252
300.31         24.6711
300.76        25.33138
301.21        25.80408
301.67        26.14975
302.12         26.3695
302.58         26.5204
303.03        26.61596
303.48        26.65468
303.94        26.72622
304.39        26.93757
304.84        27.30499
305.30        27.78656
305.75        28.24632
306.20        28.47972
306.66        28.46688
307.11        28.26688
307.57        28.01232
308.02        27.83187
308.47        27.79332
308.93        27.85193
309.38         27.9832
309.83        28.17792
310.29        28.40431
310.74        28.65511
311.19        28.87753
311.65        28.98757
312.10        28.96768
312.55        28.83948
313.00        28.63268
313.46        28.41294
313.91        28.20062
314.36         27.9964
314.82        27.83681
315.27        27.76147
315.72        27.77788
316.18         27.8752
316.63        27.99796
317.08        28.02946
317.53        27.93983
317.99        27.74971
318.44        27.53676
318.89        27.42963
319.35        27.44853
319.80        27.55889
320.25        27.66044
320.70        27.59014
321.16        27.31533
321.61        26.89313
322.06        26.43461
322.51        26.10598
322.97        25.94018
323.42        25.89852
323.87        25.89516
324.32        25.78792
324.78        25.53902
325.23        25.20084
325.68        24.84562
326.13        24.59126
326.59        24.46424
327.04        24.44049
327.49        24.45956
327.94        24.42733
328.39        24.31595
328.85        24.14598
329.30        23.98619
329.75        23.91596
330.20        23.96035
330.66        24.07791
331.11         24.2336
331.56        24.32774
332.01        24.32981
332.46        24.25053
332.92        24.13661
333.37         24.1003
333.82        24.16258
334.27        24.30532
334.72        24.43099
335.17        24.37791
335.63        24.11444
336.08        23.69768
336.53        23.28481
336.98        23.12886
337.43         23.2824
337.88        23.67327
338.34        24.10177
338.79        24.28429
339.24        24.12161
339.69        23.69565
340.14         23.1988
340.59        22.96591
341.05        23.07696
341.50        23.42791
341.95        23.83211
342.40        24.01904
342.85        23.93016
343.30        23.66388
343.75        23.33944
344.20        23.15943
344.66        23.18185
345.11        23.29922
345.56        23.45612
346.01        23.57228
346.46        23.60994
346.91        23.61339
347.36         23.5226
347.81        23.23409
348.26        22.76815
348.72        22.19919
349.17        21.66422
349.62         21.4696
350.07        21.67827
350.52         22.1822
350.97        22.82129
351.42        23.34566
351.87        23.66759
352.32        23.84653
352.77        23.88297
353.22        23.78788
353.67        23.58606
354.13        23.27428
354.58        22.92445
355.03        22.69414
355.48         22.6191
355.93        22.67894
356.38        22.77495
356.83        22.73442
357.28        22.51922
357.73        22.18042
358.18        21.82542
358.63        21.62223
359.08          21.608
359.53        21.72951
359.98         21.8745
360.43        21.87186
360.88        21.68459
361.33        21.36464
361.78        21.02697
362.23        20.85736
362.68        20.88936
363.13        21.04682
363.58        21.20718
364.03        21.18338
364.48        20.93358
364.93        20.53326
365.38        20.06376
365.83        19.65077
366.28        19.34723
366.73        19.12059
367.18        18.98017
367.63        18.94086
368.08        18.98709
368.53        19.10868
368.98        19.24849
369.43        19.31169
369.88        19.27563
370.33        19.16452
370.78         19.0026
371.23        18.84134
371.68        18.70469
372.13        18.57362
372.58        18.48157
373.03        18.48363
373.48        18.57841
373.93        18.74849
374.38        18.90961
374.83        18.92773
375.28        18.77852
375.72        18.49276
376.17        18.17516
376.62        17.95878
377.07        17.88362
377.52         17.9029
377.97        17.97186
378.42        18.01704
378.87        18.00936
379.32        17.97624
379.77        17.91234
380.22        17.80391
380.67        17.65742
381.11        17.47779
381.56        17.29525
382.01        17.17239
382.46         17.1236
382.91        17.12846
383.36        17.16126
383.81        17.17654
384.26        17.15678
384.71        17.11629
385.15        17.04219
385.60        16.92673
386.05        16.76685
386.50        16.55911
386.95        16.34609
387.40        16.20724
387.85        16.16387
388.29        16.19462
388.74        16.24228
389.19        16.20542
389.64        16.07032
390.09        15.85997
390.54        15.65264
390.98        15.57953
391.43        15.67411
391.88        15.87964
392.33         16.0894
392.78        16.14725
393.23        16.03425
393.67        15.80355
394.12        15.57241
394.57        15.45019
395.02        15.46049
395.47        15.55541
395.91        15.69266
396.36        15.77571
396.81         15.7743
397.26        15.71105
397.71         15.5991
398.15        15.44035
398.60        15.27453
399.05        15.11192
399.50        14.96176
399.95        14.79338
400.39        14.67346
400.84        14.55566
401.29        14.49059
401.74        14.53783
402.18        14.70736
402.63        14.95263
403.08        15.19983
403.53         15.3296
403.97         15.3129
404.42        15.18467
404.87        14.99571
405.32        14.84081
405.76        14.75396
406.21        14.71315
406.66        14.71003
407.11        14.73566
407.55        14.78561
408.00        14.86349
408.45        14.94116
408.90        14.95292
409.34         14.8838
409.79        14.75281
410.24        14.61909
410.68        14.56837
411.13        14.61964
411.58        14.75063
412.03         14.9082
412.47        14.99913
412.92        14.98445
413.37        14.89285
413.81         14.7787
414.26        14.74119
414.71         14.7916
415.15        14.89967
415.60        14.99297
416.05        14.97627
416.49         14.8289
416.94        14.59957
417.39        14.34444
417.83        14.15775
418.28        14.08046
418.73        14.07642
419.17        14.13391
419.62        14.22615
420.07        14.33727
420.51        14.47341
420.96        14.59113
421.41        14.61227
421.85        14.52028
422.30        14.35717
422.74        14.17916
423.19        14.10253
423.64        14.13675
424.08        14.25918
424.53        14.40898
424.98        14.50728
425.42        14.53082
425.87        14.49242
426.31        14.41855
426.76        14.39446
427.21        14.41273
427.65        14.35413
428.10        14.26927
428.54        14.32753
428.99        14.53679
429.44        14.82473
429.88        15.06289
430.33        15.09436
430.77        14.89538
431.22        14.51462
431.66        14.11714
432.11        14.01645
432.56        14.23416
433.00         14.6018
433.45        14.94625
433.89         15.1615
434.34        15.15037
434.78        14.81986
435.23        14.40788
435.67         14.3881
436.12        14.71643
436.57        14.87934
437.01        14.81299
437.46        14.78198
437.90        14.80692
438.35        14.80745
438.79        14.77603
439.24        14.74608
439.68        14.72896
440.13         14.6562
440.57        14.56299
441.02        14.70138
441.46        14.96017
441.91        14.81342
442.35         14.3512
442.80        14.13576
443.24        14.14627
443.69        14.17011
444.13        14.14722
444.58        13.98369
445.02        13.73641
445.47        13.71212
445.91         13.8675
446.36        13.88292
446.80        13.73934
447.24        13.62195
447.69        13.56808
448.13        13.54326
448.58         13.5601
449.02        13.62397
449.47        13.70159
449.91         13.7368
450.36        13.72019
450.80        13.66239
451.25         13.6056
451.69        13.60575
452.13        13.67596
452.58        13.78419
453.02        13.89688
453.47        13.95871
453.91        13.95932
454.36        13.92238
454.80        13.85819
455.24        13.78335
455.69        13.71834
456.13        13.65235
456.58        13.62455
457.02        13.67204
457.46        13.80128
457.91        13.99118
458.35         14.1878
458.79        14.29648
459.24        14.30575
459.68        14.23049
460.13        14.13464
460.57        14.08159
461.01        14.10512
461.46        14.17627
461.90        14.26816
462.34        14.32802
462.79        14.33864
463.23         14.3115
463.68         14.2795
464.12        14.29588
464.56        14.37379
465.01        14.50381
465.45        14.60949
465.89        14.62964
466.34        14.56609
466.78        14.36191
467.22        14.12989
467.67        14.19608
468.11        14.51596
468.55        14.66058
468.99        14.59225
469.44        14.54792
469.88        14.58042
470.32        14.73199
470.77        14.94381
471.21         15.0129
471.65        14.91518
472.10        14.80713
472.54        14.73184
472.98         14.7108
473.42        14.76284
473.87         14.8855
474.31        15.03697
474.75        15.14486
475.20        15.19513
475.64        15.19963
476.08         15.1928
476.52        15.22791
476.97        15.31717
477.41        15.44478
477.85        15.57087
478.29        15.66324
478.74         15.7131
479.18        15.65249
479.62        15.52542
480.06        15.66384
480.50         15.7536
480.95        15.83045
481.39        15.76829
481.83        15.69947
482.27        15.62867
482.72        15.43152
483.16         15.1904
483.60        15.24495
484.04        15.60388
484.48        15.80191
484.93        16.03255
485.37        16.48945
485.81        17.03718
486.25        17.27711
486.69        22.58919
487.14        17.90845
487.58        11.90068
488.02        14.54281
488.46        16.43519
488.90        16.47729
489.34        16.54343
489.79        16.46005
490.23        17.33643
490.67        17.91208
491.11        17.91714
491.55        17.76759
491.99        17.46506
492.43        17.23489
492.88        17.16891
493.32        17.24191
493.76        17.32277
494.20        17.54158
494.64        17.83537
495.08         18.1688
495.52        18.50656
495.96        18.81761
496.41        19.03902
496.85        19.15513
497.29         19.1837
497.73        18.96964
498.17        18.74821
498.61        18.97617
499.05        19.64634
499.49        19.82026
499.93          19.961
500.37        20.10295
500.82        20.18165
501.26        20.38427
501.70          20.609
502.14        20.69156
502.58        20.63093
503.02        20.62424
503.46        20.68502
503.90        20.69669
504.34        20.67135
504.78        20.67877
505.22        20.72589
505.66        20.80457
506.10        20.88386
506.54        20.90926
506.98        20.87527
507.42        20.80177
507.86        20.75464
508.30          20.836
508.74        21.05756
509.18         21.3765
509.62        21.71076
510.06          21.925
510.50        21.98379
510.94        21.93638
511.38        21.83039
511.82        21.74205
512.26        21.70348
512.70        21.68818
513.14        21.71672
513.58          21.824
514.02        21.99366
514.46        22.20659
514.90        22.39617
515.34        22.41884
515.78        22.22512
516.22        22.01484
516.66        21.86341
517.10         21.4514
517.54        20.80957
517.98        21.52533
518.42         21.2835
518.86        21.63091
519.30        21.85246
519.74         22.1583
520.18        22.45826
520.62        22.57779
521.06        22.51316
521.50        22.29026
521.93        22.00273
522.37         21.8187
522.81        21.78527
523.25        21.85912
523.69        21.98349
524.13         22.0682
524.57        22.08377
525.01        22.05604
525.45        22.00982
525.89        21.98217
526.32        21.97856
526.76        21.98196
527.20        21.96039
527.64         21.8766
528.08         21.7321
528.52        21.52768
528.96        21.30106
529.40        21.16727
529.83        21.15452
530.27        21.01442
530.71        21.12634
531.15        21.09835
531.59        21.04198
532.03          20.962
532.46        20.90058
532.90        20.92532
533.34        21.03613
533.78        21.20095
534.22         21.3591
534.66        21.42591
535.09        21.37804
535.53        21.25197
535.97        21.08405
536.41        20.93618
536.85        20.83569
537.28        20.77431
537.72        20.74709
538.16        20.74585
538.60        20.76684
539.04        20.79572
539.47         20.8443
539.91        20.98169
540.35        21.18194
540.79        21.34653
541.22        21.44714
541.66        21.52686
542.10        21.58021
542.54        21.56473
542.97        21.52913
543.41        21.58776
543.85        21.75566
544.29        22.01264
544.72        22.28247
545.16        22.45312
545.60        22.50112
546.04        22.45675
546.47        22.42097
546.91        22.56363
547.35        22.90231
547.79        23.38118
548.22        23.85803
548.66        24.09233
549.10         24.0519
549.53        23.85279
549.97        23.63685
550.41        23.56106
550.84        23.67969
551.28        23.95555
551.72        24.32512
552.15        24.66939
552.59        24.93639
553.03        25.15542
553.46        25.32584
553.90         25.4677
554.34        25.59553
554.77        25.67305
555.21        25.70689
555.65        25.79022
556.08        25.94495
556.52        25.83573
556.96        26.07084
557.39        26.16633
557.83        26.30661
558.27        26.46221
558.70        26.63147
559.14        26.79499
559.57        26.93289
560.01        27.06146
560.45        27.15045
560.88        27.15366
561.32        27.09369
561.75        26.97456
562.19        26.87011
562.63        26.85482
563.06        26.94024
563.50        27.10894
563.93        27.31238
564.37         27.4852
564.80        27.59686
565.24        27.67595
565.68        27.73372
566.11        27.79036
566.55        27.87543
566.98        27.97449
567.42        28.10207
567.85        28.27606
568.29        28.51157
568.72        28.71634
569.16        28.92539
569.60        29.28245
570.03        29.65912
570.47        29.74725
570.90        29.64999
571.34        29.28516
571.77        29.70081
572.21        29.69224
572.64        29.66629
573.08        29.31488
573.51        28.56696
573.95        29.87249
574.38        31.66518
574.82        31.00599
575.25        30.65098
575.69         29.5643
576.12        29.08085
576.56        28.95043
576.99        29.96904
577.42        31.02634
577.86        31.12725
578.29        30.78006
578.73        32.28824
579.16        29.73129
579.60        27.26856
580.03        28.54905
580.47        30.46619
580.90         30.6657
581.33          30.059
581.77        29.85081
582.20        32.30621
582.64        31.97388
583.07        27.17097
583.51        26.64327
583.94        26.23388
584.37        27.46264
584.81        28.66884
585.24        30.03148
585.68        30.64158
586.11        29.88015
586.54        27.80153
586.98        27.01016
587.41        27.17064
587.85        28.43273
588.28        29.40954
588.71        28.10037
589.15        27.18621
589.58        27.63124
590.01        27.83947
590.45        28.39721
590.88        28.40335
591.31        28.06932
591.75        27.97181
592.18        27.98602
592.61        28.41093
593.05        29.18241
593.48        30.35097
593.91        30.41172
594.35        28.15833
594.78        27.72111
595.21        27.83029
595.65        29.17732
596.08        30.25779
596.51        29.22788
596.94        28.65756
597.38        29.20164
597.81        30.63735
598.24        31.31107
598.68        31.06218
599.11        30.92399
599.54        32.27258
599.97        33.20622
600.41        31.59576
600.84        32.05924
601.27         32.9441
601.70        32.86596
602.14        33.14512
602.57        33.03762
603.00        33.71115
603.43        34.91508
603.87        36.10987
604.30        36.51832
604.73         35.8338
605.16         35.2757
605.60        36.45583
606.03        37.58699
606.46        38.79478
606.89        38.55238
607.32        38.18071
607.76        38.48593
608.19        40.02567
608.62        39.81618
609.05        39.47403
609.48        40.12245
609.92        40.39669
610.35        40.78167
610.78        42.29004
611.21        43.10938
611.64        41.52407
612.07        42.24318
612.50        42.73098
612.94        43.31411
613.37        43.36693
613.80        43.75166
614.23        44.48341
614.66        44.78058
615.09        45.26164
615.52        45.53405
615.96        45.69319
616.39        45.97575
616.82         45.6016
617.25        45.64066
617.68        46.45086
618.11        47.04261
618.54        47.34645
618.97        47.68413
619.40        47.50522
619.84        47.28505
620.27        48.22519
620.70        48.85391
621.13        49.42493
621.56        49.20192
621.99        48.42125
622.42        49.03318
622.85        50.72417
623.28        50.15961
623.71        49.96365
624.14        49.74676
624.57        49.76581
625.00        49.39076
625.43        49.61795
625.86        49.17321
626.29        49.30672
626.72        49.40016
627.15        49.19668
627.58        49.07829
628.01          48.862
628.44        48.82635
628.87        48.67128
629.30        48.40117
629.73        48.30315
630.16        48.24921
630.59        47.66886
631.02        47.20331
631.45        46.70646
631.88        46.23944
632.31        45.81255
632.74        45.41958
633.17        45.04891
633.60        44.66385
634.03        44.25549
634.46        43.83881
634.89        43.40297
635.32        42.92846
635.75        42.41955
636.18        41.88557
636.61        41.35868
637.04        40.88763
637.47        40.47771
637.89        40.11452
638.32        39.76356
638.75        39.39336
639.18        38.99987
639.61        38.60828
640.04        38.22103
640.47        37.83484
640.90        37.45818
641.33        37.08828
641.76        36.75815
642.18        36.57826
642.61        36.55869
643.04        36.58198
643.47        36.56129
643.90        36.83025
644.33        36.60367
644.76         36.5308
645.18        36.42379
645.61        36.36635
646.04          36.374
646.47        36.41824
646.90        36.54152
647.33        36.78305
647.75        37.15526
648.18        37.67723
648.61        38.20896
649.04        38.53522
649.47        38.63069
649.89        38.44877
650.32        38.27954
650.75        38.75099
651.18         39.8251
651.61         40.8874
652.03        41.68216
652.46        42.18174
652.89        42.56696
653.32        42.68133
653.74        42.84241
654.17        43.96574
654.60         45.1769
655.03        44.35796
655.46        45.46084
655.88        48.68309
656.31        51.98275
656.74         116.845
657.16        76.21291
657.59        27.00234
658.02        20.62933
658.45         36.8347
658.87        47.49428
659.30        50.17388
659.73          50.057
660.15        48.62853
660.58        50.90186
661.01        52.56514
661.44        51.26142
661.86        51.07188
662.29        51.43336
662.72        52.31665
663.14        53.54655
663.57        53.79354
664.00        53.23679
664.42        53.33617
664.85        54.16702
665.27        54.79892
665.70        55.05381
666.13        55.16695
666.55        55.16733
666.98        54.95034
667.41        54.70285
667.83        54.74488
668.26        55.14278
668.69        55.76711
669.11        56.39594
669.54         56.9484
669.96        56.81857
670.39        56.54136
670.82        56.15594
671.24        56.02989
671.67        56.26714
672.09        56.68036
672.52        57.07413
672.94        57.65463
673.37        57.39893
673.80        57.45144
674.22        57.57817
674.65        57.72356
675.07        57.87475
675.50         57.9519
675.92        57.99326
676.35        58.12555
676.77        58.36096
677.20        58.61727
677.62        58.87695
678.05        59.02974
678.47        59.18964
678.90        59.28105
679.32        59.37404
679.75        59.39154
680.17        59.57129
680.60        59.73471
681.02        59.91441
681.45        59.92765
681.87        59.79707
682.30        59.81718
682.72        59.98885
683.15        59.92642
683.57        59.77602
684.00        60.12221
684.42        61.01783
684.85        61.43824
685.27        61.35894
685.70        61.22474
686.12        61.12714
686.54        61.09853
686.97        61.17672
687.39        61.32845
687.82        61.49874
688.24        61.72531
688.66        61.93141
689.09        61.95287
689.51         61.8597
689.94        61.90635
690.36        62.12715
690.78        62.38231
691.21        62.61357
691.63        62.78849
692.06        62.88773
692.48        62.92636
692.90        62.95653
693.33        63.04572
693.75        63.21279
694.17        63.44801
694.60         63.6974
695.02        63.85578
695.44        63.87021
695.87        63.92209
696.29        64.07472
696.71        63.93832
697.14        63.70065
697.56        64.40399
697.98        65.73332
698.41        65.75755
698.83        65.12393
699.25        64.65675
699.68        64.67016
700.10        64.60144
700.52        64.49375
700.94        64.73037
701.37        65.13261
701.79        65.55277
702.21        65.86931
702.64        66.15882
703.06        66.36156
703.48         66.3735
703.90        66.20596
704.33        65.88634
704.75        65.53455
705.17         65.4332
705.59        65.64927
706.01        65.99823
706.44        66.33836
706.86        66.99952
707.28          67.024
707.70        67.18143
708.12        67.22696
708.55         67.1456
708.97        66.96944
709.39        66.82511
709.81        66.78127
710.23        66.82396
710.66        66.96923
711.08        67.29569
711.50         67.6604
711.92        67.80737
712.34         67.6932
712.76        67.38196
713.19        67.05058
713.61        67.01794
714.03        67.33978
714.45        67.91576
714.87        68.52841
715.29        68.83376
715.71        68.75158
716.13        68.39449
716.56        67.96053
716.98        67.76516
717.40        67.88448
717.82        68.27799
718.24         68.8106
718.66         68.9192
719.08        69.05885
719.50        68.88778
719.92        68.65801
720.34        68.51907
720.76        68.52732
721.19        68.51379
721.61        68.65362
722.03        68.76737
722.45        68.89254
722.87        69.03727
723.29        69.19698
723.71        69.35121
724.13        69.48814
724.55        69.60214
724.97        69.68457
725.39        69.73094
725.81        69.74354
726.23        69.72793
726.65        69.70251
727.07        69.69318
727.49        69.71407
727.91        69.77119
728.33         69.8562
728.75        69.95083
729.17        70.04491
729.59        70.13126
730.01        70.23518
730.43        70.39029
730.85        70.59934
731.27        70.87124
731.69        71.12209
732.10         71.1963
732.52        71.06944
732.94        70.83649
733.36        70.64752
733.78        70.60696
734.20        70.74932
734.62        71.33913
735.04        72.17014
735.46        72.18463
735.88        71.61798
736.30         72.0839
736.72        73.47592
737.13         74.0439
737.55         73.5244
737.97        73.30198
738.39        73.46484
738.81        72.71691
739.23        71.51686
739.65        72.31522
740.06        74.59894
740.48        74.90067
740.90        73.29989
741.32        72.62222
741.74        73.12355
742.16        73.40997
742.57        73.52459
742.99        74.23822
743.41        75.33407
743.83        76.01958
744.25        76.15571
744.67        75.94228
745.08        75.60099
745.50        75.49254
745.92        75.73129
746.34        76.18744
746.75        76.70001
747.17        76.99848
747.59        77.03637
748.01        76.90887
748.42        76.78789
748.84        76.94683
749.26        77.45313
749.68        78.11594
750.09        78.78612
750.51        79.40205
750.93        79.81295
751.35        79.62869
751.76        79.02985
752.18         78.8399
752.60        79.05881
753.01        79.01801
753.43        78.76252
753.85        78.86107
754.27        79.35376
754.68        80.03485
755.10        80.72617
755.52        81.23815
755.93         81.4924
756.35        81.56676
756.77        81.61883
757.18         81.6628
757.60        81.77348
758.02        82.37799
758.43        82.94833
758.85        82.36082
759.26        80.43124
759.68        79.32969
760.10        81.07679
760.51         82.4212
760.93        82.08978
761.34        80.98719
761.76        80.90177
762.18         79.9601
762.59        79.17267
763.01        79.31104
763.42        80.84482
763.84        81.82857
764.26        82.18388
764.67         82.6887
765.09        83.17794
765.50        83.06906
765.92        82.37771
766.33        81.04419
766.75        79.58412
767.16         79.0745
767.58        79.70512
768.00        81.16669
768.41        83.07062
768.83        84.56787
769.24        85.04533
769.66        84.18708
770.07         82.5843
770.49        81.04419
770.90        80.00798
771.32        80.94086
771.73        83.14336
772.15        82.64541
772.56        79.92056
772.97        79.42245
773.39        81.07273
773.80        81.66296
774.22        80.98164
774.63        80.99302
775.05         81.6395
775.46        81.98852
775.88        81.92899
776.29        81.73452
776.70        81.50033
777.12        81.40884
777.53         81.5247
777.95         81.7289
778.36        81.91748
778.77        81.90841
779.19        81.70265
779.60        81.36021
780.02        81.03429
780.43        81.04922
780.84        81.51778
781.26         81.8844
781.67        82.13046
782.09        83.19628
782.50        84.52791
782.91         83.5784
783.33        81.08131
783.74        80.29945
784.15        81.38789
784.57        82.36627
784.98        82.80013
785.39        82.68539
785.81        82.08702
786.22        81.59869
786.63        81.49123
787.04        81.60185
787.46         81.9776
787.87        82.87943
788.28        83.97597
788.70        84.45394
789.11        84.17192
789.52        83.46902
789.93        82.65543
790.35        82.03922
790.76         81.7983
791.17        82.09512
791.58        82.76419
792.00        83.17699
792.41        83.19513
792.82        83.28123
793.23        83.52952
793.65        83.19932
794.06        82.62726
794.47        83.68438
794.88        85.63639
795.29        85.25648
795.71        82.73103
796.12        80.84662
796.53        80.10509
796.94        79.44544
797.35        79.13134
797.76        80.37511
798.18        82.56725
798.59        83.81547
799.00        83.68858
799.41        82.86975
799.82         81.8232
800.23        81.16189
800.64        81.09003
801.06        81.31825
801.47        81.75658
801.88        82.15324
802.29        82.39717
802.70        82.60701
803.11        82.73535
803.52        82.67624
803.93         82.4435
804.34         82.0201
804.75        81.60748
805.17        81.63394
805.58        82.21172
805.99        82.94597
806.40        83.54475
806.81        84.17836
807.22        84.39617
807.63        82.86587
808.04        80.31298
808.45        79.11749
808.86        79.56521
809.27        80.60293
809.68        81.72779
810.09        82.39521
810.50        82.32738
810.91        81.73492
811.32        80.96667
811.73        80.54022
812.14        80.60307
812.55        81.00752
812.96        81.60468
813.37        81.97227
813.78        82.06322
814.19        82.37216
814.60        82.71481
815.01         82.4778
815.42          81.648
815.83        80.46673
816.24         79.3633
816.65        79.00337
817.05        79.60153
817.46        80.93608
817.87        82.45577
818.28        83.15179
818.69        82.75703
819.10         81.5258
819.51        80.06335
819.92        79.44784
820.33          79.961
820.74        81.13802
821.14        82.45042
821.55        83.25041
821.96        83.17514
822.37        81.88526
822.78        79.98229
823.19        78.93311
823.60        78.98949
824.00        79.56558
824.41        80.27168
824.82        80.78336
825.23        80.88884
825.64         80.7237
826.04        80.44525
826.45        80.26978
826.86        80.25506
827.27        80.29119
827.68        80.32727
828.08        80.33225
828.49        80.22684
828.90        80.11125
829.31        79.96581
829.72        79.73862
830.12        79.46883
830.53        79.14913
830.94         78.9476
831.35        79.08273
831.75        79.62379
832.16        80.45479
832.57        81.37922
832.97        81.97261
833.38        82.03011
833.79        81.66122
834.20        81.14951
834.60        80.93394
835.01        81.13921
835.42        81.62788
835.82        82.12932
836.23        82.10061
836.64         81.4679
837.04         80.4427
837.45        79.37913
837.86        78.83028
838.26        78.94417
838.67        79.51395
839.08        80.30478
839.48        80.88047
839.89        81.04916
840.29        80.96776
840.70        80.72073
841.11        80.41611
841.51        80.12294
841.92        79.76485
842.33        79.46283
842.73        79.44463
843.14        79.70224
843.54        80.22293
843.95        80.74368
844.35        80.88113
844.76         80.5359
845.17        79.84601
845.57         79.0592
845.98        78.56725
846.38        78.46905
846.79        78.62339
847.19        78.92006
847.60        79.06535
848.00        79.00859
848.41        78.82856
848.81        78.61448
849.22        78.41431
849.62        78.30831
850.03        78.26601
850.43         78.3549
850.84        78.61087
851.24        79.07018
851.65        79.53516
852.05        80.08286
852.46        80.65221
852.86        81.20473
853.27         81.7802
853.67        81.95358
854.07        81.20586
854.48        79.60396
854.88        77.34111
855.29         75.2134
855.69        74.36221
856.10        75.00045
856.50        77.01981
856.90        79.66476
857.31        81.18517
857.71        81.04135
858.12        79.65112
858.52        77.89696
858.92        76.95954
859.33        77.08579
859.73        77.97868
860.13        79.27089
860.54         80.1898
860.94        80.49985
861.34        80.38547
861.75        80.11116
862.15        80.18763
862.55        80.70079
862.96         81.4559
863.36         82.2167
863.76        82.55472
864.17        82.35883
864.57        81.84815
864.97        81.26569
865.38        80.95446
865.78        81.05437
866.18        81.37979
866.58        81.82847
866.99        82.21916
867.39        82.53358
867.79        82.86571
868.19        83.06012
868.60         82.8111
869.00        82.10806
869.40        81.02643
869.80        80.15536
870.21        80.41194
870.61        82.04336
871.01        84.76234
871.41        87.72102
871.81        89.46008
872.22        89.58031
872.62         88.4921
873.02        87.00639
873.42        86.54258
873.82        87.29157
874.22        88.60818
874.63        90.04772
875.03        90.68304
875.43        90.07751
875.83        89.27702
876.23        87.59596
876.63        86.92361
877.03        87.33213
877.44        89.02204
877.84        102.3437
878.24        95.88611
878.64        96.02212
879.04         95.2415
879.44        92.13317
879.84        90.68934
880.24        93.57153
880.64        95.54639
881.04        97.06496
881.44        97.65181
881.84        96.52253
882.24        94.19752
882.65        92.00409
883.05        91.33591
883.45        92.41483
883.85        95.05682
884.25        98.28169
884.65        100.1069
885.05        99.90131
885.45        98.32469
885.85        96.38508
886.25        95.47319
886.65        95.89114
887.05        97.15521
887.45        98.75475
887.85        99.78934
888.25        99.93682
888.65        99.57978
889.04        98.91817
889.44         98.2813
889.84        97.79385
890.24        97.26299
890.64        96.89859
891.04        97.06705
891.44        97.75954
891.84        98.92296
892.24        99.98351
892.64        99.88667
893.04        98.52236
893.44        96.39036
893.83        94.30341
894.23        93.42393
894.63        93.96352
895.03        95.49431
895.43         97.7065
895.83        99.97321
896.23        101.8937
896.63        103.6106
897.02        104.6556
897.42        104.3122
897.82        102.6111
898.22        99.81492
898.62        96.93899
899.01        95.50851
899.41        95.83477
899.81        97.43147
900.21        99.51347
900.61        100.7537
901.00        100.7669
901.40        100.0088
901.80        98.87903
902.20        97.99231
902.59        97.57933
902.99        97.40675
903.39        97.46078
903.79        97.75017
904.18        98.21903
904.58        98.91862
904.98        99.69287
905.38        100.2767
905.77        100.5677
906.17        100.5848
906.57        100.4183
906.96        100.2794
907.36        100.1705
907.76        100.0771
908.15        99.88383
908.55        99.29112
908.95        98.33186
909.34        97.09544
909.74        95.97596
910.14        95.38791
910.53        95.45675
910.93        96.11974
911.33        97.08808
911.72        97.83946
912.12        98.12729
912.52        98.04045
912.91        97.89766
913.31        98.14967
913.70        98.91889
914.10        100.0895
914.49        101.2299
914.89        101.1874
915.29        99.68284
915.68        97.18749
916.08        94.85187
916.47        93.68253
916.87         93.7972
917.26        94.88834
917.66        96.23746
918.05        96.70853
918.45        96.02301
918.84        94.60358
919.24        93.22777
919.64        93.02215
920.03        94.25094
920.42        96.49058
920.82        99.07824
921.21        101.0011
921.61        101.6969
922.00        101.5163
922.40        100.6603
922.79        99.37307
923.19        97.86368
923.58         96.0536
923.98        94.16563
924.37        92.95097
924.77        92.86862
925.16        92.33374
925.55        93.85564
925.95        95.20589
926.34        96.94618
926.74        98.77175
927.13        100.3139
927.52        100.7395
927.92        100.0128
928.31        98.40453
928.70        96.34297
929.10        94.59082
929.49        93.38057
929.89        92.57497
930.28        92.38779
930.67        93.14472
931.07        94.67374
931.46        96.90955
931.85        99.02445
932.24        99.78665
932.64        98.97478
933.03        96.80591
933.42        93.88873
933.82        91.68372
934.21        90.69381
934.60        90.60954
934.99        90.97531
935.39        91.28637
935.78        91.45255
936.17        91.45467
936.56        91.09508
936.96        91.73947
937.35        90.77219
937.74           90.34
938.13        90.04842
938.53        90.41482
938.92        91.46181
939.31        93.17346
939.70        95.09344
940.09        95.89381
940.49        95.13351
940.88        93.35867
941.27        91.46384
941.66        90.51154
942.05        90.65707
942.44        91.54725
942.84        92.83989
943.23        94.04065
943.62         94.8203
944.01        95.29839
944.40        95.48801
944.79        95.41078
945.18        95.07887
945.57        94.40548
945.97        93.36197
946.36        92.13445
946.75        91.02285
947.14        90.19881
947.53        89.74472
947.92        89.62364
948.31        89.77843
948.70        90.22309
949.09        90.87747
949.48        91.51636
949.87        91.95886
950.26        92.11635
950.65        92.08942
951.04        92.09406
951.43        92.17555
951.82        92.31872
952.21        92.19548
952.60        91.31493
952.99        89.67056
953.38         87.4534
953.77        85.40606
954.16        84.58602
954.55        85.15678
954.94        86.88764
955.33        88.81289
955.72         89.2885
956.11        87.92974
956.50        85.14494
956.89        82.20676
957.28        81.48896
957.66        83.70202
958.05          87.813
958.44        92.31543
958.83        94.98305
959.22        95.23579
959.61        93.71204
960.00        91.24261
960.39        89.17649
960.78        88.01082
961.16        87.40793
961.55        87.00684
961.94        86.26121
962.33        85.07876
962.72        83.80884
963.11        82.84982
963.49        82.63526
963.88        83.20509
964.27        84.42736
964.66        85.85207
965.04        86.57146
965.43         86.1501
965.82        84.91627
966.21        83.53436
966.60        82.87244
966.98        83.09499
967.37        83.91729
967.76        84.88373
968.15        85.12856
968.53        84.41041
968.92        83.01771
969.31        81.52522
969.69        80.64515
970.08        80.53414
970.47        81.03906
970.86        81.68971
971.24        81.67172
971.63        80.75837
972.02        79.14913
972.40        77.63515
972.79        77.60014
973.17        79.52829
973.56        82.93823
973.95        86.68508
974.33        88.58037
974.72         87.9072
975.11        85.38711
975.49        82.40514
975.88        80.80959
976.26        80.90852
976.65        82.28454
977.04        84.00407
977.42        83.88045
977.81        81.24725
978.19        77.12462
978.58        73.59446
978.96        72.71877
979.35        74.79063
979.74        79.34515
980.12        85.37653
980.51        89.36233
980.89         90.0674
981.28        88.36205
981.66        85.68539
982.05        83.93248
982.43        83.46163
982.82        83.61334
983.20        84.21391
983.59        85.13588
983.97        86.33262
984.35        87.99995
984.74        89.51993
985.12        89.81616
985.51         88.2251
985.89        84.93136
986.28        80.94772
986.66        77.89151
987.04        76.50686
987.43        76.48878
987.81        76.97932
988.20        76.85114
988.58        75.76285
988.96        73.61506
989.35        70.99536
989.73        70.86281
990.12        74.67322
990.50        80.73012
990.88        85.60657
991.27        87.10293
991.65        85.70475
992.03        82.16336
992.42        77.84833
992.80        75.15525
993.18        75.08212
993.56        76.40403
993.95        78.21144
994.33        79.94445
994.71        81.22967
995.10        82.52301
995.48        83.37635
995.86        82.84634
996.24        80.76392
996.63        77.03362
997.01        72.73527
997.39        71.16373
997.77        73.70902
998.15         79.4836
998.54        85.65891
998.92        88.55212
999.30        87.00796
999.68        82.04379
1000.06        74.97421
1000.45        69.17831
1000.83        66.28977
1001.21        65.40772
1001.59        66.03686
1001.97        67.65948
1002.35        70.01639
1002.73        73.77842
1003.12        77.94595
1003.50         79.1106
1003.88        75.73457
1004.26        69.39976
1004.64        63.26133
1005.02        60.03534
1005.40        59.89051
1005.78        62.54279
1006.16        68.50478
1006.54         75.1547
1006.92        78.42917
1007.30        78.84398
1007.69        78.18136
1008.07        78.06686
1008.45        78.75845
1008.83        79.95757
1009.21        81.46394
1009.59        79.52823
1009.97        59.31784
1010.35        14.27785
1010.73        1.675272
1011.11        15.43098
1011.49         29.0923
1011.86        41.26805
1012.24        49.19384
1012.62        54.37671
1013.00         58.5181
1013.38        62.50438
1013.76        68.43887
1014.14        80.11299
1014.52        99.43521
1014.90        126.5822
1015.28        153.1694
1015.66        161.0521
1016.04        140.3718
1016.41        95.46676
1016.79        50.24917
1017.17        28.81465
1017.55        28.01808
1017.93        35.41259
1018.31        43.75813
1018.69        49.20724
1019.06        52.06065
1019.44        53.25821
1019.82        54.12857
1020.20        57.94619
1020.58        69.04472
1020.95        93.82609
1021.33        140.8984
1021.71       -282.9763
1022.09        79.93821
1022.46        107.6305
1022.84        120.5563
1023.22        131.4987
1023.60        151.4355
1023.97        328.9518
1024.35        30.73772
1024.73        64.13046
