SpectraSmart Spectrum 2.9.0.0
--------- Device Information -----------
Spectrum Name :  反射率_0
Saving Time :  2024/04/25 23:57:18
Spectro-Module Model Name : SE2030-DUVN
Spectro-Module Serial Number : OS361AC55029948
Wavelength Start : 200
Wavelength End : 1025
Wavelength Unit : Wavelength(nm)
Spectrum Unit : Reflectance(%)
-----------Spectrum Setting ------------
Integration Time : 20ms
Average : 10
Boxcar : 0
Background removal :  enabled
linearity correction :  enabled
SC :  disabled
Intensity correction :  disabled
DWT denoise :  enabled
savitzky-golay :  disabled
FFT :  disabled
Running average :  disabled
Kalman :  disabled
High pass :  disabled
---------------BEGIN--------------------
Wavelength(nm)             Reflectance(%)
200.29               0
200.75        77.42699
201.21        70.79858
201.67        63.47281
202.13        59.06549
202.58        57.93248
203.04        59.28675
203.50        61.90849
203.96         63.6454
204.42        63.78381
204.88        63.07274
205.34        62.11129
205.80        61.37673
206.26         60.9367
206.72        60.60061
207.18        59.74767
207.64        57.13069
208.10        54.00137
208.55        52.45354
209.01        52.56613
209.47         54.1838
209.93        56.89114
210.39        60.88411
210.85        64.46665
211.31        63.71587
211.77         57.7636
212.23        48.27786
212.69        38.97482
213.14        35.61639
213.60        39.13275
214.06        48.18962
214.52        59.40836
214.98        67.38992
215.44        70.40683
215.90        69.77492
216.36        67.42295
216.81          65.969
217.27        66.28853
217.73        67.48337
218.19        67.91196
218.65        65.34149
219.11        58.84847
219.57        47.53148
220.02        32.99947
220.48        24.68383
220.94        27.78286
221.40         39.8034
221.86        51.39201
222.32        52.75194
222.77        45.07418
223.23        33.78709
223.69        24.09858
224.15        21.27547
224.61        24.71856
225.06        31.58506
225.52        38.59554
225.98        41.74004
226.44        40.24311
226.90        36.07024
227.36        30.82662
227.81        26.52854
228.27        24.18206
228.73        22.95085
229.19        23.18214
229.65        25.38073
230.10        28.97974
230.56          33.279
231.02        37.09647
231.48        39.05724
231.93         39.1374
232.39        37.86921
232.85        35.93282
233.31        34.40662
233.77        33.62243
234.22        33.30357
234.68        33.24209
235.14        32.97023
235.60         32.3786
236.05        31.73962
236.51        31.32423
236.97        31.40557
237.43        32.11117
237.88        33.50293
238.34        35.39562
238.80        37.16716
239.26        38.32499
239.71        38.84846
240.17        39.07719
240.63        40.24267
241.08        42.69527
241.54        45.94324
242.00        49.17416
242.46        51.42964
242.91        52.69346
243.37        53.01371
243.83        53.70417
244.28        67.16794
244.74        105.1916
245.20        111.6759
245.66        104.1956
246.11        101.4637
246.57         102.611
247.03        108.4552
247.48        119.7594
247.94        90.18118
248.40        72.08549
248.85        69.15388
249.31        69.50425
249.77         71.1293
250.22         73.8614
250.68        78.36001
251.14        84.05565
251.59        85.50726
252.05        78.94596
252.51        67.77888
252.96        57.18771
253.42        51.46836
253.88        49.88294
254.33         50.8199
254.79        54.04998
255.25        58.60694
255.70        63.26406
256.16        67.75121
256.62        70.41454
257.07        69.59695
257.53        66.14208
257.99        60.81778
258.44        55.43951
258.90        52.89007
259.35        52.48098
259.81        53.10387
260.27        53.04783
260.72        50.67668
261.18        46.58834
261.63        41.53352
262.09         36.9762
262.55        34.03254
263.00        32.65187
263.46        32.31209
263.91         32.1208
264.37        31.29587
264.83        29.72975
265.28        27.63136
265.74        25.70233
266.19        24.78887
266.65        25.01196
267.11        25.86475
267.56        26.64967
268.02        26.52979
268.47        25.41971
268.93        23.62579
269.38        21.57825
269.84        20.24568
270.30        19.89896
270.75        20.25699
271.21        20.87328
271.66        21.08695
272.12        20.70643
272.57        19.96249
273.03        19.13428
273.48        18.55995
273.94        18.35193
274.39        18.34911
274.85        18.39724
275.31        18.29576
275.76        17.98392
276.22        17.54984
276.67        17.08862
277.13        16.79422
277.58        16.66272
278.04        16.65039
278.49        16.59987
278.95         16.3228
279.40        15.79087
279.86        15.12768
280.31        14.47415
280.77        14.12553
281.22        14.09414
281.68        14.28094
282.13        14.53993
282.59        14.67827
283.04        14.64914
283.50        14.53631
283.95         14.3591
284.41        14.15324
284.86         13.9396
285.32        13.70324
285.77         13.5172
286.22        13.54346
286.68        13.77147
287.13        14.14245
287.59         14.4731
288.04         14.4919
288.50         14.1775
288.95         13.6171
289.41        13.02132
289.86        12.62131
290.32        12.51736
290.77        12.62143
291.22        12.86222
291.68        13.09542
292.13        13.28737
292.59        13.48233
293.04        13.72539
293.50        14.08244
293.95        14.54973
294.40        15.06166
294.86        15.55411
295.31        15.95099
295.77        16.23592
296.22        16.44428
296.68        16.59133
297.13        16.67236
297.58        16.72517
298.04         16.7729
298.49         16.8923
298.95        17.23078
299.40        17.79462
299.85        18.52631
300.31         19.3013
300.76        19.93385
301.21         20.3519
301.67        20.62447
302.12        20.76981
302.58         20.8575
303.03        20.91151
303.48        20.92484
303.94        20.98365
304.39        21.19483
304.84        21.57128
305.30        22.07102
305.75         22.5614
306.20        22.83659
306.66        22.87348
307.11        22.73349
307.57        22.53857
308.02        22.41346
308.47         22.4209
308.93        22.51237
309.38        22.67462
309.83        22.91327
310.29        23.19431
310.74        23.50513
311.19        23.76879
311.65        23.86569
312.10        23.77589
312.55        23.53595
313.00        23.20679
313.46        22.90337
313.91        22.66446
314.36        22.48208
314.82        22.37293
315.27        22.34904
315.72        22.40482
316.18        22.53112
316.63        22.68411
317.08        22.76758
317.53        22.74965
317.99        22.63903
318.44         22.4769
318.89        22.33655
319.35        22.23392
319.80        22.15649
320.25         22.0584
320.70        21.86809
321.16        21.57996
321.61          21.224
322.06        20.87335
322.51        20.63299
322.97        20.51295
323.42        20.48465
323.87        20.46364
324.32        20.31133
324.78        19.99496
325.23         19.5625
325.68        19.09279
326.13        18.71482
326.59        18.46726
327.04        18.33409
327.49        18.27054
327.94        18.19986
328.39        18.09858
328.85        17.98158
329.30        17.90521
329.75        17.93748
330.20        18.08436
330.66        18.29037
331.11        18.49385
331.56        18.56258
332.01        18.45682
332.46        18.19766
332.92        17.84624
333.37        17.53198
333.82        17.30859
334.27        17.17375
334.72        17.07444
335.17        16.91245
335.63        16.66821
336.08        16.37292
336.53        16.14269
336.98        16.15768
337.43        16.43724
337.88        16.91861
338.34        17.38003
338.79        17.50497
339.24        17.19816
339.69         16.5468
340.14         15.8079
340.59        15.43548
341.05        15.53731
341.50        15.97631
341.95        16.49871
342.40        16.72639
342.85        16.57232
343.30        16.16918
343.75        15.65864
344.20        15.28774
344.66        15.13662
345.11        15.08165
345.56        15.09066
346.01        15.11687
346.46        15.12438
346.91        15.16108
347.36         15.1119
347.81        14.78144
348.26        14.17672
348.72        13.39483
349.17        12.66135
349.62        12.43369
350.07        12.79935
350.52        13.59317
350.97        14.53594
351.42        15.19762
351.87        15.45241
352.32         15.4202
352.77        15.19607
353.22        14.94117
353.67        14.72421
354.13        14.49523
354.58        14.27506
355.03        14.13828
355.48        14.09515
355.93        14.15526
356.38        14.24447
356.83        14.22423
357.28        14.06456
357.73         13.7969
358.18        13.51155
358.63        13.35534
359.08        13.35991
359.53        13.48251
359.98        13.62051
360.43        13.61598
360.88        13.43752
361.33        13.13329
361.78        12.81946
362.23         12.6834
362.68        12.75721
363.13        12.96496
363.58        13.17779
364.03        13.19762
364.48        12.98202
364.93        12.61142
365.38        12.17409
365.83        11.80753
366.28         11.5676
366.73        11.41532
367.18        11.35836
367.63        11.40927
368.08        11.54506
368.53         11.7505
368.98        11.95668
369.43        12.05142
369.88         12.0125
370.33        11.87596
370.78         11.6752
371.23         11.4776
371.68        11.31584
372.13        11.16512
372.58        11.07883
373.03        11.14238
373.48        11.35272
373.93        11.68148
374.38        11.99184
374.83        12.06999
375.28        11.87982
375.72        11.47695
376.17        11.02952
376.62        10.77383
377.07        10.77777
377.52        10.96558
377.97        11.23889
378.42         11.4367
378.87        11.50307
379.32          11.488
379.77        11.42483
380.22         11.3576
380.67        11.30432
381.11        11.24914
381.56        11.18214
382.01        11.10318
382.46        11.01328
382.91        10.91511
383.36        10.83357
383.81        10.80093
384.26        10.81931
384.71        10.88133
385.15        10.92706
385.60        10.87333
386.05        10.70417
386.50        10.43629
386.95        10.15902
387.40        10.02841
387.85        10.07778
388.29        10.25792
388.74        10.44342
389.19        10.46904
389.64        10.31433
390.09         10.0267
390.54        9.732914
390.98        9.644474
391.43        9.812175
391.88        10.14945
392.33        10.49818
392.78        10.62894
393.23        10.50872
393.67        10.22113
394.12        9.916696
394.57        9.763436
395.02        9.798734
395.47         9.96416
395.91         10.1837
396.36        10.30893
396.81        10.29166
397.26        10.16767
397.71        10.00208
398.15         9.87769
398.60        9.832892
399.05        9.846083
399.50        9.851694
399.95        9.731026
400.39        9.514954
400.84        9.204489
401.29        8.922226
401.74        8.869658
402.18        9.098235
402.63        9.524342
403.08        9.983312
403.53         10.2147
403.97        10.15534
404.42        9.883435
404.87        9.526807
405.32        9.310645
405.76        9.300465
406.21        9.418913
406.66        9.585938
407.11        9.692613
407.55        9.710986
408.00         9.68108
408.45        9.614866
408.90        9.524623
409.34        9.426208
409.79        9.310127
410.24        9.212973
410.68        9.190013
411.13         9.24818
411.58        9.381906
412.03        9.531185
412.47        9.586364
412.92        9.513754
413.37        9.342433
413.81        9.158092
414.26        9.106579
414.71        9.207818
415.15        9.420196
415.60        9.631086
416.05        9.679455
416.49        9.527343
416.94        9.239579
417.39        8.913591
417.83        8.715979
418.28        8.701876
418.73        8.806688
419.17        8.968563
419.62        9.083711
420.07         9.12403
420.51        9.123904
420.96        9.083134
421.41        8.995449
421.85         8.87015
422.30        8.721626
422.74         8.58548
423.19        8.538383
423.64         8.58101
424.08        8.700071
424.53        8.840016
424.98        8.919819
425.42         8.91653
425.87         8.84921
426.31        8.746369
426.76        8.686114
427.21        8.670732
427.65        8.617674
428.10        8.569952
428.54        8.643487
428.99        8.839672
429.44        9.111573
429.88        9.346011
430.33        9.388601
430.77        9.222281
431.22        8.896251
431.66         8.55961
432.11        8.473893
432.56        8.665058
433.00        9.012876
433.45        9.366816
433.89        9.576387
434.34        9.547575
434.78        9.249949
435.23        8.873866
435.67        8.755235
436.12        8.876716
436.57        8.913482
437.01        8.824304
437.46        8.762022
437.90        8.736047
438.35        8.706027
438.79        8.671631
439.24         8.65705
439.68        8.666449
440.13        8.653355
440.57        8.624931
441.02        8.708821
441.46        8.834066
441.91        8.697008
442.35        8.367579
442.80        8.202447
443.24        8.187905
443.69        8.196552
444.13        8.178294
444.58        8.060648
445.02         7.87164
445.47        7.796738
445.91        7.819845
446.36        7.777277
446.80        7.663109
447.24        7.574535
447.69        7.526873
448.13        7.487874
448.58        7.463697
449.02        7.463164
449.47        7.469369
449.91        7.452685
450.36        7.411289
450.80         7.34867
451.25        7.299182
451.69        7.308726
452.13        7.384915
452.58          7.4987
453.02        7.614865
453.47        7.669539
453.91        7.652907
454.36        7.588677
454.80        7.495552
455.24        7.408885
455.69        7.350554
456.13        7.306397
456.58        7.299945
457.02        7.353317
457.46        7.467788
457.91        7.630482
458.35        7.798732
458.79        7.891138
459.24        7.897843
459.68        7.828789
460.13        7.745511
460.57        7.717049
461.01          7.7712
461.46         7.87672
461.90        7.992935
462.34        8.038354
462.79        7.997417
463.23        7.893775
463.68        7.785176
464.12        7.761687
464.56        7.848428
465.01         8.01103
465.45        8.178074
465.89        8.272304
466.34        8.283905
466.78        8.196422
467.22         8.07463
467.67        8.106198
468.11        8.268921
468.55        8.314807
468.99        8.243112
469.44        8.221645
469.88        8.285131
470.32        8.448042
470.77        8.647066
471.21        8.717801
471.65        8.632566
472.10         8.50151
472.54        8.372239
472.98         8.30161
473.42         8.31528
473.87        8.398941
474.31        8.518009
474.75        8.609046
475.20        8.656693
475.64        8.671872
476.08        8.684088
476.52        8.738649
476.97        8.843796
477.41        8.988081
477.85        9.125138
478.29        9.199997
478.74        9.203037
479.18        9.104755
479.62        8.972327
480.06        9.061664
480.50        9.200397
480.95        9.386004
481.39        9.492021
481.83        9.518877
482.27        9.455767
482.72         9.25815
483.16        9.018137
483.60        9.003281
484.04        9.231848
484.48        9.432292
484.93        9.711892
485.37        10.08274
485.81        10.39525
486.25        10.78878
486.69        13.97818
487.14        10.94936
487.58        7.413013
488.02        9.236517
488.46        10.47698
488.90        10.46904
489.34        10.38213
489.79        10.36773
490.23        11.10787
490.67        11.54165
491.11        11.47857
491.55        11.34126
491.99        11.14058
492.43         10.9687
492.88        10.89324
493.32        10.90807
493.76        10.95156
494.20        11.14268
494.64        11.44528
495.08        11.81529
495.52        12.20509
495.96        12.56158
496.41        12.82796
496.85          12.998
497.29        13.07831
497.73        12.95937
498.17        12.80748
498.61        12.94051
499.05        13.36852
499.49          13.481
499.93          13.604
500.37        13.75464
500.82        13.88399
501.26         14.1152
501.70        14.37015
502.14        14.53084
502.58        14.57842
503.02        14.62515
503.46        14.67564
503.90        14.65587
504.34        14.58695
504.78        14.53997
505.22        14.53048
505.66        14.55043
506.10        14.58801
506.54        14.61882
506.98        14.63982
507.42        14.66175
507.86        14.71197
508.30        14.83136
508.74        15.02004
509.18        15.25361
509.62        15.48802
510.06        15.65275
510.50        15.72986
510.94        15.74671
511.38        15.72479
511.82        15.69953
512.26        15.68853
512.70        15.67787
513.14        15.69376
513.58        15.77879
514.02        15.92271
514.46        16.10501
514.90        16.26293
515.34        16.25859
515.78        16.04149
516.22        15.82028
516.66        15.67688
517.10        15.26474
517.54        14.61152
517.98        15.42894
518.42         15.1954
518.86        15.53878
519.30        15.68626
519.74         15.8779
520.18        16.06197
520.62        16.12317
521.06        16.07425
521.50        15.92256
521.93        15.72486
522.37        15.58865
522.81        15.54305
523.25        15.56195
523.69        15.61737
524.13         15.6637
524.57        15.68183
525.01        15.68232
525.45         15.6667
525.89        15.63574
526.32         15.5887
526.76        15.52489
527.20        15.43604
527.64        15.31898
528.08        15.18107
528.52        15.01368
528.96          14.843
529.40        14.74745
529.83        14.74539
530.27        14.66843
530.71        14.76367
531.15        14.72939
531.59        14.64025
532.03        14.50237
532.46        14.38399
532.90        14.40106
533.34        14.56056
533.78        14.81605
534.22         15.0601
534.66        15.13583
535.09        15.01063
535.53        14.74422
535.97        14.42824
536.41        14.21025
536.85        14.13686
537.28        14.17143
537.72        14.26351
538.16        14.32888
538.60        14.34314
539.04         14.3233
539.47        14.31043
539.91        14.39845
540.35        14.58138
540.79        14.77275
541.22        14.93001
541.66        15.04935
542.10        15.11848
542.54        15.11842
542.97        15.10006
543.41        15.16975
543.85        15.34341
544.29        15.59855
544.72        15.86448
545.16        16.03654
545.60         16.0939
546.04        16.06709
546.47        16.04641
546.91        16.18259
547.35        16.49288
547.79        16.92631
548.22         17.3634
548.66        17.60133
549.10        17.61085
549.53        17.48513
549.97        17.34038
550.41        17.30711
550.84        17.43019
551.28        17.67917
551.72        18.00459
552.15        18.31505
552.59        18.56801
553.03        18.78613
553.46        18.96717
553.90        19.12119
554.34        19.25957
554.77        19.35333
555.21        19.41039
555.65        19.50419
556.08        19.65081
556.52        19.59689
556.96          19.797
557.39        19.87511
557.83        19.97135
558.27         20.0673
558.70        20.17488
559.14        20.29758
559.57        20.42463
560.01        20.56312
560.45        20.67659
560.88        20.70749
561.32        20.67055
561.75        20.57702
562.19        20.49383
562.63        20.49393
563.06        20.58886
563.50        20.75537
563.93         20.9552
564.37        21.13553
564.80        21.27009
565.24        21.38427
565.68        21.47031
566.11        21.51836
566.55        21.55079
566.98        21.56283
567.42        21.60405
567.85        21.74688
568.29        22.01225
568.72        22.30939
569.16        22.60771
569.60        22.95749
570.03        23.24835
570.47        23.22746
570.90        23.02364
571.34        22.80942
571.77        23.12576
572.21        23.26267
572.64         23.4085
573.08        23.17714
573.51        22.61061
573.95        23.62465
574.38        25.03944
574.82        24.51192
575.25         24.3483
575.69        23.50791
576.12        23.05723
576.56        23.09536
576.99        23.88691
577.42         24.5937
577.86        24.54658
578.29        24.33924
578.73         25.6491
579.16        23.60755
579.60        21.51401
580.03        22.45165
580.47        23.99427
580.90        24.23279
581.33        23.75645
581.77        23.40952
582.20        25.55177
582.64        24.83404
583.07        21.30125
583.51        20.84755
583.94        20.53092
584.37        21.30723
584.81        22.03011
585.24        23.00475
585.68        23.59587
586.11        22.95756
586.54        21.40779
586.98        20.88153
587.41        21.17299
587.85        22.03215
588.28        22.57829
588.71        21.47537
589.15        20.93339
589.58        21.24451
590.01        21.62009
590.45        22.01997
590.88        21.89521
591.31        21.55431
591.75        21.48234
592.18        21.50713
592.61        21.83682
593.05        22.49987
593.48        23.48975
593.91        23.42038
594.35        21.69811
594.78        21.38297
595.21        21.56636
595.65        22.65161
596.08        23.45292
596.51        22.59375
596.94         22.1003
597.38        22.52795
597.81        23.72111
598.24        24.39268
598.68        24.36819
599.11         24.3253
599.54         25.4828
599.97        26.16099
600.41        25.00711
600.84        25.42435
601.27        26.20793
601.70        26.14113
602.14        26.52069
602.57        26.52529
603.00        27.12836
603.43        28.20226
603.87        29.34342
604.30        29.54707
604.73        28.99871
605.16        28.89714
605.60        29.79012
606.03        30.75294
606.46        31.61275
606.89        31.74029
607.32         31.2942
607.76        31.80666
608.19        32.96304
608.62         32.8446
609.05        32.63708
609.48        33.16209
609.92        33.29082
610.35         33.8311
610.78        35.02916
611.21        35.79036
611.64        34.51838
612.07        35.16464
612.50        35.61996
612.94         36.1378
613.37        36.20821
613.80        36.53816
614.23        37.13154
614.66        37.39119
615.09        37.84445
615.52        37.87826
615.96        38.08557
616.39        38.32832
616.82        38.10677
617.25        38.35934
617.68         39.1786
618.11        39.69656
618.54        39.88604
618.97        39.77419
619.40        39.57367
619.84        39.74611
620.27        40.36032
620.70        40.83864
621.13        41.10443
621.56        40.99196
621.99        40.66426
622.42        41.19453
622.85         42.2673
623.28        42.12946
623.71         41.8998
624.14        41.66179
624.57        41.50187
625.00        41.52701
625.43         41.6404
625.86        41.19685
626.29        41.03214
626.72        40.99302
627.15        40.90187
627.58        40.85596
628.01        40.92299
628.44        40.83536
628.87        40.64918
629.30        40.46809
629.73        40.28676
630.16        40.00356
630.59        39.62418
631.02        39.21514
631.45        38.79954
631.88        38.38515
632.31         37.9794
632.74        37.58231
633.17        37.19347
633.60        36.81112
634.03        36.43379
634.46        36.06314
634.89        35.68571
635.32        35.27892
635.75        34.84167
636.18        34.38482
636.61        33.92551
637.04        33.48829
637.47        33.07603
637.89        32.67956
638.32        32.29127
638.75        31.91957
639.18        31.56987
639.61        31.25401
640.04        30.95157
640.47         30.6229
640.90        30.26603
641.33        29.89005
641.76         29.5409
642.18        29.33999
642.61         29.3047
643.04        29.32956
643.47        29.33062
643.90        29.55274
644.33        29.36015
644.76        29.28405
645.18        29.18082
645.61        29.13108
646.04         29.1514
646.47        29.21398
646.90        29.35553
647.33        29.61228
647.75        29.99292
648.18        30.51064
648.61        31.04022
649.04        31.38781
649.47        31.52791
649.89        31.42439
650.32        31.32703
650.75        31.77571
651.18        32.75115
651.61        33.72944
652.03        34.46406
652.46        35.00387
652.89        35.53711
653.32        35.60719
653.74        35.44502
654.17        37.00824
654.60        38.22184
655.03        36.93447
655.46        37.94619
655.88        40.62631
656.31        43.88738
656.74        99.92854
657.16        65.00645
657.59        22.92287
658.02        17.61034
658.45        30.99342
658.87        40.45887
659.30        43.00467
659.73        42.48174
660.15        41.33733
660.58        43.20259
661.01        44.72572
661.44        43.72219
661.86        43.50175
662.29        43.63367
662.72        44.40534
663.14         45.6548
663.57        45.89822
664.00        45.29344
664.42        45.34855
664.85         46.1292
665.27        46.70525
665.70        46.89653
666.13        46.94343
666.55        46.83088
666.98        46.50462
667.41        46.14275
667.83        46.06235
668.26        46.33173
668.69        46.83583
669.11        47.37178
669.54        47.81152
669.96        47.62874
670.39         47.3614
670.82        47.04892
671.24        46.82057
671.67        46.85176
672.09        47.40581
672.52        48.19294
672.94        48.78482
673.37        48.30313
673.80        48.12551
674.22        48.12704
674.65        48.16034
675.07        48.24366
675.50         48.3712
675.92        48.52734
676.35         48.7135
676.77        48.91637
677.20        49.08335
677.62        49.21137
678.05        49.30062
678.47        49.34752
678.90        49.36768
679.32        49.38867
679.75        49.36097
680.17        49.48437
680.60        49.60292
681.02        49.74441
681.45         49.7739
681.87        49.69909
682.30        49.70408
682.72        49.79313
683.15        49.73195
683.57        49.63353
684.00        49.84777
684.42        50.50609
684.85        50.78601
685.27        50.69956
685.70        50.56526
686.12        50.46296
686.54        50.44901
686.97        50.55948
687.39        50.74098
687.82        50.90491
688.24        51.17592
688.66        51.25921
689.09        51.13485
689.51        51.23273
689.94        51.28862
690.36        51.45774
690.78        51.69794
691.21        51.94501
691.63         52.0829
692.06        52.09034
692.48        52.02317
692.90        51.95498
693.33        51.98819
693.75        52.14293
694.17        52.37937
694.60        52.65675
695.02         52.8555
695.44        52.90855
695.87         53.0977
696.29        53.38537
696.71        53.01126
697.14        52.26444
697.56        52.71513
697.98        54.08649
698.41        54.18622
698.83         53.5358
699.25        53.16989
699.68        53.33969
700.10        53.39666
700.52        53.36048
700.94        53.54877
701.37        53.89534
701.79        54.21957
702.21        54.44872
702.64        54.63168
703.06        54.73015
703.48        54.68061
703.90        54.49637
704.33        54.20042
704.75        53.87812
705.17        53.73958
705.59        53.84072
706.01         54.0435
706.44        54.25272
706.86        54.78024
707.28        54.84996
707.70        55.04885
708.12        55.16552
708.55        55.22193
708.97        55.20999
709.39        55.12807
709.81        55.02859
710.23        54.99406
710.66        55.04848
711.08         55.2005
711.50        55.36062
711.92        55.39442
712.34        55.27704
712.76         55.0389
713.19        54.80661
713.61        54.80545
714.03        55.06738
714.45        55.52414
714.87        55.98757
715.29        56.15934
715.71        55.98008
716.13        55.54705
716.56        55.05665
716.98        54.85103
717.40        55.01082
717.82        55.42923
718.24        55.94033
718.66        56.26184
719.08        56.30739
719.50        56.16713
719.92        55.93362
720.34        55.76667
720.76        55.72371
721.19         55.6637
721.61        55.74624
722.03        55.84508
722.45        55.99296
722.87        56.18959
723.29        56.40931
723.71        56.59587
724.13        56.72681
724.55        56.80804
724.97        56.83656
725.39        56.81902
725.81        56.76543
726.23        56.67715
726.65        56.58794
727.07        56.54902
727.49        56.57555
727.91        56.66605
728.33        56.78479
728.75        56.86581
729.17        56.88971
729.59        56.86743
730.01         56.8503
730.43        56.91837
730.85        57.09038
731.27        57.34929
731.69        57.60921
732.10        57.74384
732.52        57.70885
732.94        57.51877
733.36        57.32479
733.78         57.3174
734.20        57.53267
734.62        58.13239
735.04        58.89966
735.46        58.91452
735.88        58.35858
736.30        58.56118
736.72        59.49172
737.13        59.85081
737.55        59.44957
737.97        59.35279
738.39        59.58368
738.81        59.01068
739.23         58.0018
739.65        58.63092
740.06        60.48868
740.48        60.71806
740.90        59.38328
741.32        58.79662
741.74        59.18979
742.16        59.43435
742.57        59.56097
742.99        60.27123
743.41        61.31193
743.83        61.72418
744.25        61.46051
744.67        61.13638
745.08        60.95548
745.50        60.88049
745.92        60.99856
746.34        61.41522
746.75         61.9732
747.17        62.28381
747.59        62.28919
748.01        62.13918
748.42        61.97339
748.84        61.97773
749.26        62.25194
749.68        62.70594
750.09        63.22588
750.51        63.81247
750.93        64.26267
751.35        63.97849
751.76        63.18605
752.18        62.93954
752.60        63.26421
753.01        63.39616
753.43        63.31483
753.85         63.4893
754.27        63.92573
754.68        64.43187
755.10        64.88834
755.52        65.23148
755.93         65.4016
756.35        65.36225
756.77        65.26901
757.18        65.26264
757.60        65.38617
758.02        65.92485
758.43        66.50208
758.85        66.07237
759.26        64.77686
759.68        64.38215
760.10        64.95611
760.51        66.19154
760.93        65.63779
761.34        64.66206
761.76        64.51862
762.18        63.93098
762.59        63.64576
763.01        63.92633
763.42         64.7644
763.84        65.60008
764.26        66.19072
764.67        66.20606
765.09        65.76501
765.50        65.68331
765.92        65.82801
766.33        65.03207
766.75        63.66632
767.16        63.06155
767.58        63.46712
768.00        64.92013
768.41        67.01019
768.83        68.12632
769.24        67.85636
769.66        67.19049
770.07        66.48277
770.49        65.21392
770.90        63.83209
771.32           64.44
771.73        66.49098
772.15        66.20597
772.56        63.94358
772.97        63.55789
773.39        64.97737
773.80        65.51062
774.22        64.96226
774.63          64.878
775.05        65.24733
775.46        65.44489
775.88        65.40464
776.29        65.28968
776.70        65.14294
777.12        65.07929
777.53        65.13413
777.95        65.21945
778.36        65.28441
778.77        65.22517
779.19        65.05477
779.60        64.85889
780.02        64.70563
780.43        64.68053
780.84        64.91644
781.26        65.18798
781.67        65.49678
782.09        66.51315
782.50        67.72142
782.91        66.92604
783.33        64.75618
783.74        64.05597
784.15        64.96059
784.57        65.77064
784.98         66.1216
785.39        65.96659
785.81        65.40456
786.22         65.1181
786.63        65.25667
787.04        65.41187
787.46        65.60226
787.87        66.16589
788.28        66.92772
788.70        67.31857
789.11         67.2444
789.52        66.97951
789.93        66.62885
790.35        66.15147
790.76        65.70145
791.17        65.61753
791.58        65.86655
792.00        66.09869
792.41        66.17893
792.82        66.14025
793.23        66.07368
793.65        65.79337
794.06        65.52567
794.47        66.29939
794.88        67.55171
795.29        67.17661
795.71        65.39817
796.12        63.75522
796.53        63.24312
796.94        63.03279
797.35        63.38305
797.76        64.56775
798.18        66.05765
798.59        66.88829
799.00        66.73721
799.41        65.81336
799.82        64.57754
800.23        63.83514
800.64        63.79144
801.06        64.13792
801.47        64.73446
801.88        65.24746
802.29        65.53351
802.70        65.71682
803.11        65.79517
803.52        65.74168
803.93         65.5855
804.34        65.29333
804.75        64.97842
805.17        64.92159
805.58        65.20704
805.99        65.52535
806.40        65.73738
806.81        66.19599
807.22        66.54836
807.63        65.53523
808.04        63.66299
808.45        62.86932
808.86         63.3405
809.27        64.12086
809.68        64.87647
810.09        65.38882
810.50        65.47345
810.91        65.21901
811.32        64.78225
811.73        64.40924
812.14        64.18149
812.55        64.01054
812.96        63.94771
813.37        64.01244
813.78         64.2319
814.19        64.79686
814.60        65.39542
815.01        65.39249
815.42        64.71637
815.83        63.55875
816.24        62.39832
816.65        62.03487
817.05        62.70543
817.46        64.14583
817.87        65.75108
818.28        66.44635
818.69        65.94157
819.10        64.52216
819.51         62.8473
819.92        62.03391
820.33        62.38072
820.74        63.53881
821.14         64.9314
821.55        65.53027
821.96        65.10071
822.37        64.01182
822.78        62.73125
823.19        61.93423
823.60        61.81744
824.00        62.19466
824.41        62.81337
824.82        63.34479
825.23        63.61702
825.64        63.74616
826.04        63.78638
826.45        63.79716
826.86        63.80444
827.27        63.74526
827.68        63.62305
828.08        63.49544
828.49        63.33759
828.90        63.20842
829.31         63.0922
829.72        62.94361
830.12        62.78836
830.53        62.61689
830.94        62.54321
831.35        62.70875
831.75        63.16153
832.16        63.80324
832.57        64.48714
832.97        64.89139
833.38         64.8717
833.79        64.52084
834.20        64.06297
834.60        63.83977
835.01        63.95498
835.42        64.29747
835.82        64.68423
836.23        64.73321
836.64        64.38622
837.04        63.79072
837.45        63.15053
837.86        62.78876
838.26         62.7947
838.67        63.03079
839.08        63.39191
839.48        63.68445
839.89        63.80193
840.29        63.82101
840.70        63.71693
841.11        63.43731
841.51        63.00817
841.92        62.42071
842.33        61.84144
842.73        61.56025
843.14         61.6108
843.54        61.95698
843.95        62.36907
844.35        62.50679
844.76         62.2745
845.17        61.79672
845.57        61.27263
845.98        61.00983
846.38        61.08264
846.79        61.36273
847.19         61.7487
847.60        61.99529
848.00         62.0518
848.41        61.98124
848.81        61.84718
849.22        61.66176
849.62        61.49414
850.03        61.33082
850.43        61.27061
850.84        61.45362
851.24        61.92516
851.65        62.50259
852.05         63.1635
852.46        63.70447
852.86        64.06496
853.27        64.33195
853.67        64.24434
854.07        63.51366
854.48          62.231
854.88        60.51535
855.29         58.9659
855.69         58.4493
856.10        59.11407
856.50        60.87064
856.90        63.13144
857.31        64.50224
857.71        64.53838
858.12        63.55843
858.52        62.19464
858.92        61.26871
859.33        60.97685
859.73        61.08442
860.13         61.4872
860.54        61.97173
860.94        62.46729
861.34        63.03889
861.75        63.57193
862.15        63.95277
862.55        64.12014
862.96        64.08009
863.36        63.93077
863.76        63.85562
864.17        63.90782
864.57        64.07338
864.97        64.33748
865.38         64.6659
865.78        65.07322
866.18        65.49265
866.58        65.84641
866.99        65.99891
867.39        65.94744
867.79        65.73734
868.19        65.32435
868.60        64.64255
869.00        63.74162
869.40        62.72408
869.80        61.99814
870.21        62.14766
870.61        63.34627
871.01         65.3992
871.41        67.75469
871.81        69.44679
872.22         70.1939
872.62        70.19833
873.02        69.82097
873.42        70.01157
873.82        70.66233
874.22        70.79682
874.63        70.50298
875.03        70.18084
875.43        69.88021
875.83        71.15047
876.23        69.84434
876.63        68.72545
877.03        67.07965
877.44        64.88844
877.84        111.2647
878.24        69.72182
878.64        72.13179
879.04        76.81882
879.44        70.85459
879.84        67.95897
880.24        75.76578
880.64        78.02595
881.04          76.498
881.44        74.96603
881.84        73.90325
882.24        72.94163
882.65        72.45413
883.05        72.27542
883.45        72.36897
883.85        73.31552
884.25        74.73989
884.65        75.45081
885.05        75.16834
885.45        74.21996
885.85        73.22066
886.25        73.06162
886.65        73.90526
887.05        75.46671
887.45        77.21132
887.85         78.1858
888.25         78.0788
888.65        77.18383
889.04        76.00586
889.44        75.37309
889.84        75.48021
890.24        76.05453
890.64        76.72884
891.04        76.96556
891.44        76.62948
891.84        75.92085
892.24        75.10069
892.64        74.58956
893.04        74.55822
893.44        74.90617
893.83        75.41969
894.23        75.81458
894.63         76.0022
895.03         75.9763
895.43        75.99854
895.83        76.51368
896.23         77.5748
896.63        79.06098
897.02         80.2507
897.42        80.00666
897.82        78.19786
898.22         75.2757
898.62        72.38626
899.01        71.19252
899.41        71.99762
899.81         74.2227
900.21        76.87357
900.61        78.34425
901.00        78.19386
901.40        76.93388
901.80        75.24827
902.20         74.1916
902.59        74.07122
902.99        74.55283
903.39        75.26195
903.79        75.58167
904.18        75.34301
904.58        74.86988
904.98         74.4561
905.38        74.51989
905.77        75.12305
906.17        75.99685
906.57        76.96745
906.96        77.86954
907.36        78.52615
907.76        79.00293
908.15        79.13983
908.55        78.55695
908.95        77.31196
909.34        75.55612
909.74        73.76779
910.14        72.51427
910.53        71.98746
910.93        72.08644
911.33        72.75021
911.72        73.82999
912.12        75.02331
912.52        76.21605
912.91        77.17616
913.31        77.59595
913.70         77.4978
914.10        76.93033
914.49        75.85832
914.89        74.49372
915.29         73.1511
915.68        71.87331
916.08        71.15125
916.47        71.34657
916.87        72.37868
917.26         74.1545
917.66        75.92388
918.05        76.44666
918.45        75.45219
918.84         73.3769
919.24         71.1353
919.64        70.09672
920.03        70.61441
920.42        72.26991
920.82        74.47934
921.21        76.27962
921.61        77.10022
922.00        77.25397
922.40        76.79907
922.79        75.90102
923.19        74.81878
923.58        73.19187
923.98        71.09159
924.37        70.05937
924.77        70.79959
925.16        67.16613
925.55        70.08193
925.95        70.99638
926.34        73.04307
926.74        75.62026
927.13        78.04749
927.52        78.83699
927.92        77.77365
928.31        75.38649
928.70        72.46023
929.10        70.36701
929.49        69.46772
929.89        69.40397
930.28        70.05002
930.67        71.17918
931.07        72.47581
931.46        74.11401
931.85        75.43482
932.24         75.4417
932.64        74.02566
933.03        71.23033
933.42        67.91088
933.82         65.9633
934.21        65.89603
934.60        67.21549
934.99        68.72989
935.39        69.40595
935.78        69.10951
936.17        67.08937
936.56        63.19838
936.96        65.66429
937.35        64.11217
937.74        66.49457
938.13         68.5099
938.53        69.80197
938.92        70.46534
939.31        70.84155
939.70        71.02026
940.09        70.84692
940.49        70.42564
940.88        69.83204
941.27        69.35254
941.66        69.37297
942.05        69.89785
942.44        70.76432
942.84        71.78172
943.23        72.64033
943.62        73.11836
944.01        73.30789
944.40        73.04286
944.79        72.05291
945.18        70.28467
945.57        67.68709
945.97        64.87258
946.36        63.27025
946.75        63.51375
947.14        65.06735
947.53        66.88972
947.92        67.90618
948.31        68.02496
948.70        67.54858
949.09         66.8315
949.48        66.65338
949.87        67.28365
950.26        68.34983
950.65        69.47169
951.04        70.14317
951.43        70.22659
951.82        69.94565
952.21        69.31696
952.60        68.38416
952.99        67.25375
953.38          65.881
953.77        64.66167
954.16        64.17406
954.55         64.4825
954.94        65.52572
955.33        66.60883
955.72        66.52364
956.11        65.02917
956.50        62.42719
956.89        59.81276
957.28        59.22495
957.66        61.27165
958.05        65.05738
958.44        69.23567
958.83        71.81593
959.22        72.26447
959.61        71.11008
960.00        69.06438
960.39        67.30102
960.78        66.25187
961.16        65.62816
961.55        65.12117
961.94        64.22701
962.33        62.91116
962.72        61.53985
963.11        60.54753
963.49        60.41927
963.88        61.20946
964.27        62.78255
964.66        64.72717
965.04        66.12829
965.43        66.47314
965.82         65.9864
966.21        65.17131
966.60        64.74224
966.98        64.87041
967.37        65.32117
967.76        65.78827
968.15        65.70651
968.53        64.95538
968.92        63.74746
969.31        62.53632
969.69         61.8578
970.08        61.80235
970.47        62.25459
970.86        62.79582
971.24        62.68135
971.63        61.73104
972.02        60.10564
972.40        58.44568
972.79        57.95205
973.17        59.02492
973.56         61.2651
973.95        63.82848
974.33         65.1004
974.72        64.51183
975.11        62.62799
975.49        60.36874
975.88        58.92683
976.26        58.48294
976.65          58.719
977.04        59.08931
977.42        58.42406
977.81        56.47508
978.19        53.83838
978.58        51.72964
978.96         51.1993
979.35        52.39682
979.74        55.13762
980.12        58.91461
980.51        61.62837
980.89        62.60201
981.28        62.15694
981.66        61.23663
982.05        61.08563
982.43        61.87956
982.82        63.07756
983.20        64.37522
983.59        65.33681
983.97        65.89536
984.35         66.2842
984.74        66.18996
985.12        65.22449
985.51        63.24623
985.89        60.21611
986.28         57.2226
986.66        55.73624
987.04        56.14313
987.43        57.92721
987.81        59.64587
988.20        59.42068
988.58        56.64665
988.96        50.74404
989.35        42.27462
989.73         36.4748
990.12        38.17813
990.50        45.79345
990.88         53.5814
991.27        56.51939
991.65        55.06955
992.03        50.72621
992.42        45.96174
992.80        44.91563
993.18        48.52845
993.56        54.18571
993.95        59.77234
994.33        63.69291
994.71        65.54138
995.10        66.35001
995.48        66.04774
995.86        64.19265
996.24        60.78054
996.63        55.41331
997.01         49.4192
997.39        47.03274
997.77        50.02323
998.15        57.56395
998.54        65.45743
998.92        67.76907
999.30        62.88116
999.68        52.19123
1000.06        38.86989
1000.45        30.48937
1000.83        29.90122
1001.21         34.4397
1001.59        40.98699
1001.97        46.32866
1002.35        49.82693
1002.73        52.80677
1003.12         54.8415
1003.50        54.15694
1003.88        50.50174
1004.26        44.93016
1004.64        39.61591
1005.02        36.24888
1005.40        34.71568
1005.78        34.55841
1006.16        37.02833
1006.54        43.33258
1006.92        50.40431
1007.30        55.63059
1007.69        58.01677
1008.07        57.97532
1008.45        55.36713
1008.83        47.99913
1009.21        28.34278
1009.59       -22.76943
1009.97       -129.2574
1010.35       -230.2624
1010.73       -165.6613
1011.11       -79.26661
1011.49       -29.30509
1011.86        2.696099
1012.24        19.61419
1012.62         26.5482
1013.00        27.51243
1013.38        23.58237
1013.76        15.94956
1014.14        10.46765
1014.52        12.28824
1014.90        22.77821
1015.28         37.6062
1015.66        41.25843
1016.04        26.25396
1016.41      -0.1229937
1016.79       -21.49457
1017.17       -24.91561
1017.55       -16.06546
1017.93       -5.006203
1018.31        4.949733
1018.69        13.42849
1019.06        21.37063
1019.44        30.31125
1019.82        40.85399
1020.20        47.83588
1020.58        41.27644
1020.95        4.696481
1021.33       -123.8614
1021.71        1951.635
1022.09        283.3451
1022.46        196.0924
1022.84        171.5056
1023.22        170.9142
1023.60        197.4626
1023.97        512.0442
1024.35       -27.51131
1024.73        32.39349
