SpectraSmart Spectrum 2.9.0.0
--------- Device Information -----------
Spectrum Name :  反射率_0
Saving Time :  2024/04/25 22:44:34
Spectro-Module Model Name : SE2030-DUVN
Spectro-Module Serial Number : OS361AC55029948
Wavelength Start : 200
Wavelength End : 1025
Wavelength Unit : Wavelength(nm)
Spectrum Unit : Reflectance(%)
-----------Spectrum Setting ------------
Integration Time : 20ms
Average : 10
Boxcar : 0
Background removal :  enabled
linearity correction :  enabled
SC :  disabled
Intensity correction :  disabled
DWT denoise :  enabled
savitzky-golay :  disabled
FFT :  disabled
Running average :  disabled
Kalman :  disabled
High pass :  disabled
---------------BEGIN--------------------
Wavelength(nm)             Reflectance(%)
200.29               0
200.75        82.67094
201.21        77.12389
201.67        70.57128
202.13        66.21852
202.58         64.4464
203.04        64.64253
203.50        65.86345
203.96        66.53749
204.42        66.20924
204.88        65.48455
205.34        64.76086
205.80        64.32405
206.26        64.27648
206.72         64.6972
207.18        65.67853
207.64        66.49268
208.10        65.58645
208.55          63.654
209.01         62.8119
209.47        63.76217
209.93        66.05506
210.39        69.80477
210.85        73.19833
211.31        72.17552
211.77        65.93282
212.23         56.1611
212.69        47.16417
213.14        45.60083
213.60        52.37905
214.06        65.64895
214.52        80.58077
214.98        89.65565
215.44         90.8728
215.90        86.51991
216.36        79.80151
216.81        75.18024
217.27        74.04875
217.73        74.90959
218.19        75.59921
218.65        73.21501
219.11        66.59123
219.57        55.00355
220.02        40.13084
220.48        31.49461
220.94         34.4595
221.40        46.44639
221.86         57.9203
222.32        58.96802
222.77        50.81556
223.23        39.01582
223.69        29.06408
224.15        26.49703
224.61        30.72577
225.06        38.89835
225.52        47.31989
225.98        51.35708
226.44        50.12941
226.90        45.62873
227.36        40.27072
227.81        37.27068
228.27        37.62992
228.73        39.99154
229.19        43.11625
229.65        45.23753
230.10        45.90548
230.56        45.85908
231.02        45.66324
231.48        45.89326
231.93        46.60953
232.39        47.54136
232.85        48.43168
233.31        48.99263
233.77        49.11507
234.22        48.88024
234.68        48.39891
235.14        47.83171
235.60          47.298
236.05        46.83463
236.51        46.35755
236.97        45.64166
237.43         44.6414
237.88        43.43464
238.34        42.32735
238.80        42.31226
239.26        43.82496
239.71        46.66089
240.17        49.98521
240.63        52.72799
241.08        54.51633
241.54        55.53545
242.00        55.91721
242.46        55.85749
242.91        55.54586
243.37        54.22697
243.83        52.92157
244.28        67.36685
244.74        118.8144
245.20         133.937
245.66        127.4012
246.11        126.5528
246.57        132.7704
247.03        151.5399
247.48        198.2631
247.94        150.8629
248.40        95.45303
248.85        81.05384
249.31        77.74173
249.77        78.27735
250.22        81.04553
250.68        86.46266
251.14        93.99971
251.59        97.35603
252.05        91.44566
252.51        79.77783
252.96        67.99964
253.42        61.04743
253.88        58.22971
254.33        57.71455
254.79        59.58685
255.25        63.32374
255.70        67.75593
256.16        72.53911
256.62        75.55217
257.07        74.65871
257.53        70.80219
257.99         64.9224
258.44        59.27588
258.90        57.25398
259.35        57.91884
259.81        59.75843
260.27        60.59173
260.72        58.36723
261.18        53.84562
261.63        48.03729
262.09        42.70751
262.55        39.25871
263.00        37.65405
263.46        37.26073
263.91        37.05762
264.37         36.1709
264.83          34.467
265.28        32.19804
265.74         30.1115
266.19        29.10051
266.65        29.30861
267.11        30.19151
267.56        31.01517
268.02        30.92631
268.47        29.82438
268.93        28.02538
269.38        25.97044
269.84        24.64392
270.30        24.32207
270.75        24.71868
271.21        25.36365
271.66        25.56099
272.12        25.11593
272.57        24.26231
273.03        23.32561
273.48        22.70725
273.94        22.52976
274.39         22.6094
274.85        22.72848
275.31        22.58318
275.76        22.10559
276.22        21.43539
276.67        20.74918
277.13        20.36879
277.58        20.30158
278.04        20.45101
278.49        20.58755
278.95          20.438
279.40        19.94325
279.86        19.25837
280.31        18.53176
280.77         18.0815
281.22        17.92817
281.68        17.97277
282.13        18.08216
282.59         18.0912
283.04        17.95793
283.50        17.77641
283.95        17.54833
284.41         17.2844
284.86        17.00048
285.32         16.6862
285.77        16.44604
286.22        16.49569
286.68        16.82045
287.13        17.32742
287.59        17.77055
288.04        17.77998
288.50         17.3267
288.95        16.54177
289.41        15.69318
289.86        15.08999
290.32        14.86094
290.77        14.89054
291.22         15.1073
291.68        15.36663
292.13        15.61678
292.59        15.89302
293.04        16.19721
293.50        16.52711
293.95        16.86503
294.40        17.16889
294.86         17.4044
295.31        17.54437
295.77        17.59327
296.22        17.57506
296.68        17.52475
297.13        17.46703
297.58        17.44197
298.04        17.47116
298.49        17.58485
298.95        17.85239
299.40        18.26636
299.85         18.7913
300.31        19.35813
300.76        19.87452
301.21        20.28492
301.67        20.61731
302.12        20.83686
302.58        20.93766
303.03        20.92112
303.48        20.80327
303.94        20.68758
304.39        20.70641
304.84         20.8877
305.30         21.1877
305.75        21.48045
306.20        21.57235
306.66        21.44561
307.11        21.16274
307.57        20.85345
308.02        20.65053
308.47        20.61162
308.93        20.68461
309.38        20.82563
309.83        20.99295
310.29        21.14572
310.74        21.28429
311.19        21.37659
311.65        21.37349
312.10        21.26766
312.55        21.07352
313.00        20.80167
313.46         20.4836
313.91        20.14038
314.36        19.79457
314.82        19.51178
315.27        19.37898
315.72        19.40701
316.18        19.56155
316.63        19.76696
317.08        19.87656
317.53        19.84242
317.99        19.69105
318.44        19.47859
318.89        19.29938
319.35        19.17883
319.80        19.09635
320.25        19.00523
320.70        18.83419
321.16        18.57546
321.61        18.25861
322.06        17.95669
322.51        17.77301
322.97        17.71699
323.42        17.75922
323.87         17.8054
324.32        17.70088
324.78        17.40915
325.23        16.97871
325.68        16.50744
326.13        16.15606
326.59        15.96988
327.04          15.923
327.49        15.94455
327.94        15.91239
328.39        15.79293
328.85        15.61734
329.30        15.46943
329.75        15.46855
330.20         15.6368
330.66        15.90376
331.11        16.18928
331.56        16.33216
332.01          16.283
332.46        16.07449
332.92         15.7689
333.37        15.49191
333.82        15.29774
334.27         15.1746
334.72        15.08271
335.17        14.95027
335.63        14.76073
336.08        14.53971
336.53        14.36738
336.98        14.36523
337.43        14.54427
337.88        14.86095
338.34        15.15085
338.79         15.1888
339.24        14.90703
339.69        14.37513
340.14        13.79371
340.59        13.51488
341.05        13.61666
341.50        13.98907
341.95        14.44333
342.40        14.69871
342.85        14.68586
343.30         14.5067
343.75         14.2302
344.20        13.97838
344.66        13.80168
345.11        13.62195
345.56         13.4898
346.01        13.48398
346.46        13.59375
346.91        13.81797
347.36        13.98266
347.81        13.80231
348.26        13.25649
348.72        12.47576
349.17        11.70066
349.62        11.41111
350.07        11.71284
350.52        12.43535
350.97        13.32437
351.42        13.99103
351.87        14.31204
352.32         14.3926
352.77         14.2957
353.22        14.12772
353.67        13.94051
354.13        13.69968
354.58        13.43489
355.03        13.23645
355.48        13.12732
355.93         13.1167
356.38        13.14901
356.83        13.11534
357.28        12.99007
357.73        12.79519
358.18        12.60211
358.63        12.52534
359.08        12.58325
359.53        12.73811
359.98        12.88672
360.43        12.87195
360.88        12.66762
361.33         12.3254
361.78        11.97057
362.23        11.80672
362.68        11.87145
363.13        12.08376
363.58        12.31921
364.03        12.38477
364.48        12.23301
364.93        11.94021
365.38         11.5682
365.83        11.21265
366.28        10.92241
366.73         10.6716
367.18         10.5014
367.63         10.4813
368.08        10.60496
368.53        10.84224
368.98        11.10183
369.43         11.2347
369.88        11.20831
370.33        11.07174
370.78        10.86809
371.23        10.67969
371.68        10.54397
372.13        10.42756
372.58        10.38061
373.03        10.48524
373.48        10.73434
373.93        11.09916
374.38        11.43661
374.83        11.52463
375.28        11.32424
375.72        10.88958
376.17        10.39746
376.62         10.0985
377.07        10.06658
377.52        10.23022
377.97        10.47715
378.42        10.62234
378.87        10.61249
379.32        10.50967
379.77        10.38398
380.22        10.33247
380.67        10.37632
381.11        10.47624
381.56        10.57534
382.01        10.59608
382.46        10.51697
382.91        10.36363
383.36        10.19056
383.81        10.08059
384.26        10.05512
384.71        10.09314
385.15        10.13278
385.60        10.08621
386.05        9.935041
386.50        9.702827
386.95        9.469004
387.40        9.368677
387.85        9.428369
388.29        9.599284
388.74        9.771592
389.19        9.805528
389.64        9.683035
390.09        9.445807
390.54        9.195145
390.98        9.099619
391.43        9.205144
391.88        9.443902
392.33        9.698219
392.78        9.797232
393.23        9.714132
393.67        9.507185
394.12        9.290416
394.57        9.184475
395.02        9.216323
395.47        9.344218
395.91        9.505626
396.36        9.577731
396.81        9.526072
397.26         9.38089
397.71        9.211376
398.15        9.106786
398.60        9.101538
399.05        9.169866
399.50        9.235865
399.95        9.168574
400.39         8.99223
400.84        8.711197
401.29         8.44747
401.74        8.402773
402.18        8.630452
402.63        9.050237
403.08        9.498618
403.53        9.717577
403.97        9.646396
404.42        9.362401
404.87        9.007616
405.32        8.827731
405.76        8.888757
406.21         9.10629
406.66        9.367984
407.11        9.520619
407.55        9.528716
408.00        9.438369
408.45        9.300868
408.90        9.203293
409.34        9.177303
409.79        9.187509
410.24        9.207833
410.68        9.204348
411.13        9.171192
411.58        9.133707
412.03        9.092304
412.47        9.046161
412.92        8.996206
413.37        8.934939
413.81         8.89974
414.26         8.96258
414.71        9.119226
415.15        9.350238
415.60        9.554449
416.05        9.587901
416.49        9.422553
416.94        9.116812
417.39        8.773858
417.83        8.573951
418.28        8.575303
418.73        8.710646
419.17         8.91614
419.62        9.082905
420.07        9.178441
420.51        9.236644
420.96        9.242739
421.41        9.166706
421.85        9.015016
422.30        8.811395
422.74        8.613019
423.19        8.526767
423.64        8.558619
424.08        8.686554
424.53        8.842665
424.98        8.922872
425.42        8.897003
425.87        8.793573
426.31        8.648544
426.76        8.549289
427.21        8.503162
427.65        8.427385
428.10        8.368531
428.54         8.44671
428.99         8.66296
429.44        8.967531
429.88        9.243042
430.33        9.328219
430.77        9.200889
431.22        8.908287
431.66        8.595847
432.11        8.521378
432.56        8.712273
433.00        9.051957
433.45        9.392102
433.89         9.58863
434.34        9.551772
434.78        9.248012
435.23        8.877496
435.67        8.790031
436.12        8.968943
436.57        9.083884
437.01        9.062905
437.46        9.013469
437.90        8.937127
438.35        8.809521
438.79        8.665975
439.24        8.586145
439.68        8.586877
440.13        8.603192
440.57         8.62316
441.02        8.743438
441.46        8.882463
441.91        8.747485
442.35        8.405663
442.80        8.210253
443.24        8.150047
443.69         8.09647
444.13        8.022739
444.58        7.897734
445.02        7.754469
445.47        7.763141
445.91        7.878461
446.36        7.884915
446.80        7.762784
447.24        7.625536
447.69        7.517007
448.13        7.450392
448.58        7.443275
449.02         7.49011
449.47        7.550268
449.91         7.55647
450.36        7.497609
450.80        7.390585
451.25         7.29168
451.69        7.279509
452.13        7.369383
452.58        7.521181
453.02        7.680743
453.47        7.756015
453.91        7.731072
454.36        7.639463
454.80        7.516823
455.24        7.425671
455.69        7.394258
456.13        7.397542
456.58        7.442937
457.02        7.530317
457.46        7.655151
457.91         7.81063
458.35        7.963947
458.79        8.048939
459.24        8.059781
459.68        8.002429
460.13        7.929408
460.57        7.895599
461.01        7.928626
461.46        8.005228
461.90        8.097926
462.34        8.145312
462.79        8.135008
463.23          8.0809
463.68        8.030553
464.12         8.05555
464.56         8.17186
465.01         8.35134
465.45        8.516945
465.89        8.585142
466.34        8.550194
466.78        8.397489
467.22        8.214436
467.67        8.224984
468.11         8.41299
468.55        8.518142
468.99        8.513323
469.44        8.526532
469.88        8.584316
470.32        8.717794
470.77        8.878119
471.21        8.924165
471.65        8.837435
472.10        8.717739
472.54        8.615859
472.98        8.594135
473.42        8.671803
473.87        8.830383
474.31        9.009807
474.75        9.106093
475.20        9.100297
475.64        9.020518
476.08        8.924057
476.52        8.900159
476.97        8.968471
477.41        9.101058
477.85        9.246597
478.29        9.341005
478.74        9.365639
479.18        9.294146
479.62        9.169213
480.06        9.211951
480.50         9.24439
480.95        9.278093
481.39        9.232593
481.83        9.177807
482.27        9.114923
482.72        8.976687
483.16        8.819679
483.60        8.859584
484.04        9.091169
484.48        9.268047
484.93        9.521982
485.37        9.844444
485.81        10.02557
486.25        10.53485
486.69        13.21147
487.14        10.26153
487.58        7.207956
488.02          8.9156
488.46        10.06784
488.90        10.01899
489.34        10.04157
489.79          10.027
490.23        10.63743
490.67        10.98534
491.11        10.90615
491.55        10.80146
491.99        10.65804
492.43        10.49258
492.88        10.35919
493.32         10.2925
493.76        10.25636
494.20        10.38095
494.64        10.64058
495.08        10.99005
495.52        11.36421
495.96        11.67951
496.41        11.87584
496.85        11.95903
497.29        11.95688
497.73        11.80421
498.17        11.66119
498.61        11.80577
499.05        12.23064
499.49        12.34777
499.93        12.44518
500.37         12.5473
500.82        12.62538
501.26        12.81566
501.70        13.05235
502.14        13.22132
502.58         13.2894
503.02         13.3341
503.46        13.35516
503.90        13.29396
504.34        13.18956
504.78        13.13705
505.22        13.15642
505.66        13.22936
506.10        13.32454
506.54        13.38509
506.98        13.39814
507.42         13.3849
507.86        13.38436
508.30        13.45598
508.74        13.60685
509.18         13.8067
509.62        14.01397
510.06        14.16217
510.50        14.23348
510.94        14.25737
511.38        14.24536
511.82        14.21539
512.26        14.18187
512.70        14.13393
513.14        14.11368
513.58        14.19086
514.02        14.36024
514.46        14.59283
514.90        14.80463
515.34         14.8236
515.78        14.59244
516.22        14.33433
516.66        14.15224
517.10        13.72611
517.54        13.09069
517.98        13.97224
518.42        13.79024
518.86         14.1788
519.30        14.34432
519.74        14.54024
520.18        14.70918
520.62        14.72551
521.06        14.60694
521.50        14.36589
521.93        14.08688
522.37        13.92371
522.81        13.91348
523.25        14.01429
523.69         14.1681
524.13        14.28133
524.57        14.32208
525.01        14.31623
525.45        14.27679
525.89         14.2243
526.32        14.16724
526.76        14.09728
527.20        14.01385
527.64        13.92687
528.08        13.84228
528.52        13.74845
528.96        13.65232
529.40        13.59733
529.83        13.59448
530.27        13.49704
530.71        13.54659
531.15        13.48804
531.59        13.39712
532.03        13.27359
532.46        13.17547
532.90        13.20219
533.34        13.35662
533.78        13.59894
534.22        13.83085
534.66        13.90801
535.09        13.80001
535.53        13.56027
535.97        13.27161
536.41        13.06853
536.85        12.99368
537.28        13.01389
537.72        13.08546
538.16        13.13435
538.60        13.14019
539.04        13.11989
539.47        13.10836
539.91        13.18715
540.35        13.34942
540.79        13.51449
541.22         13.6509
541.66         13.7666
542.10        13.85059
542.54        13.88177
542.97        13.88788
543.41        13.93759
543.85        14.04241
544.29        14.19298
544.72        14.35196
545.16        14.46589
545.60        14.52487
546.04         14.5431
546.47        14.57939
546.91        14.73391
547.35        15.01159
547.79        15.37752
548.22        15.73688
548.66        15.92572
549.10          15.925
549.53        15.81298
549.97        15.68918
550.41        15.66287
550.84         15.7721
551.28        15.99222
551.72        16.28567
552.15        16.58147
552.59         16.8399
553.03        17.07387
553.46          17.267
553.90        17.40684
554.34        17.50209
554.77        17.53703
555.21        17.53135
555.65        17.57096
556.08        17.67879
556.52        17.62223
556.96        17.81327
557.39        17.91859
557.83        18.05976
558.27        18.21508
558.70        18.37773
559.14        18.52193
559.57        18.63082
560.01        18.71879
560.45        18.76545
560.88        18.74036
561.32        18.66622
561.75        18.54935
562.19        18.45094
562.63        18.43637
563.06         18.5157
563.50        18.67032
563.93        18.86352
564.37        19.04238
564.80         19.1819
565.24        19.30342
565.68         19.4016
566.11        19.47613
566.55        19.54794
566.98        19.59503
567.42        19.65733
567.85        19.82645
568.29         20.1018
568.72        20.33018
569.16        20.51902
569.60        20.80695
570.03        21.09701
570.47        21.15408
570.90        21.07631
571.34        20.80225
571.77        21.15198
572.21        21.24939
572.64        21.29409
573.08        21.09689
573.51        20.70073
573.95        21.57644
574.38         22.6772
574.82        22.32343
575.25        22.14173
575.69        21.45356
576.12        21.11185
576.56        20.88836
576.99        21.76789
577.42        22.34982
577.86        22.46056
578.29        22.31421
578.73        23.23605
579.16        21.40587
579.60        19.67277
580.03        20.61252
580.47        21.98039
580.90        22.12848
581.33        21.66957
581.77        21.44353
582.20        23.27811
582.64        22.60447
583.07        19.23903
583.51        18.86328
583.94        18.74022
584.37        19.51536
584.81        20.10283
585.24        20.97347
585.68        21.55673
586.11        20.95358
586.54        19.47448
586.98        18.96332
587.41        19.22445
587.85         20.0097
588.28        20.37765
588.71        19.39929
589.15        18.95897
589.58        19.11692
590.01        19.60402
590.45        19.93129
590.88        20.01591
591.31        19.70905
591.75        19.54613
592.18        19.64103
592.61        20.17015
593.05        20.55366
593.48        21.29588
593.91        21.27317
594.35        19.61682
594.78        19.39536
595.21        19.63592
595.65        20.66564
596.08        21.39433
596.51        20.68805
596.94        20.37993
597.38        20.82486
597.81        21.86212
598.24        22.54035
598.68        22.34606
599.11        22.39653
599.54         23.3338
599.97        23.95093
600.41         23.2025
600.84        23.67422
601.27        24.35942
601.70        24.32564
602.14        24.61565
602.57        24.72149
603.00         25.5577
603.43        26.60348
603.87        27.54275
604.30        27.75609
604.73        27.44505
605.16        27.51102
605.60        28.66031
606.03        29.61588
606.46        30.58924
606.89        30.64234
607.32        30.36601
607.76        31.00484
608.19        32.10902
608.62        32.07187
609.05        31.96785
609.48        32.59871
609.92        32.88176
610.35        33.31543
610.78         35.0488
611.21        35.61699
611.64        34.62331
612.07        35.30812
612.50        35.85594
612.94        36.47667
613.37        36.64853
613.80        37.10598
614.23        37.85162
614.66        38.23473
615.09        38.77909
615.52        39.11679
615.96        39.34233
616.39        39.72736
616.82        39.61966
617.25         39.7682
617.68        40.70977
618.11        41.29784
618.54        41.63163
618.97        41.60339
619.40         41.4493
619.84        41.81263
620.27        42.63335
620.70        43.32149
621.13        43.72281
621.56        43.55845
621.99        43.03785
622.42        43.59056
622.85        44.93679
623.28        44.69211
623.71        44.52386
624.14         44.4709
624.57        44.25294
625.00        44.13262
625.43        44.13076
625.86        43.63451
626.29        43.53787
626.72        43.67713
627.15        43.34609
627.58        43.27043
628.01        43.11763
628.44        43.10963
628.87         42.7438
629.30        42.59108
629.73        42.42178
630.16        42.27506
630.59        41.57507
631.02        40.93895
631.45         40.2739
631.88        39.63171
632.31        39.03686
632.74        38.48542
633.17        37.96983
633.60        37.46099
634.03        36.95113
634.46        36.45186
634.89        35.94895
635.32         35.4174
635.75        34.85494
636.18        34.26771
636.61        33.67759
637.04        33.11739
637.47         32.5924
637.89        32.09696
638.32        31.61308
638.75        31.13202
639.18        30.66077
639.61        30.21662
640.04        29.81199
640.47        29.45701
640.90        29.15305
641.33        28.89009
641.76        28.66082
642.18        28.49816
642.61         28.3987
643.04        28.28615
643.47        28.12822
643.90        28.23789
644.33        28.02975
644.76        27.98811
645.18        27.95091
645.61        27.95405
646.04         27.9992
646.47        28.07708
646.90        28.22877
647.33        28.49574
647.75        28.89277
648.18        29.42765
648.61        29.98879
649.04        30.41247
649.47        30.67641
649.89         30.7168
650.32        30.76031
650.75        31.35754
651.18        32.45285
651.61        33.44063
652.03        34.15173
652.46        34.70638
652.89        35.32177
653.32        35.82895
653.74        36.39999
654.17        37.78456
654.60        39.30418
655.03        38.32018
655.46        39.84501
655.88        43.01234
656.31        46.16338
656.74        103.2619
657.16         66.1488
657.59        23.35963
658.02        18.66626
658.45        33.67151
658.87         43.8996
659.30        46.91114
659.73        46.83929
660.15        45.62324
660.58        48.28241
661.01        50.12547
661.44        49.05863
661.86        49.00245
662.29        49.48803
662.72        50.61335
663.14        52.16538
663.57        52.54288
664.00        51.93335
664.42        52.07944
664.85         53.0774
665.27        53.84641
665.70         54.2052
666.13        54.47274
666.55         54.6321
666.98        54.60843
667.41        54.53795
667.83        54.67186
668.26        55.06187
668.69        55.60452
669.11        56.14329
669.54         56.6571
669.96        56.55798
670.39        56.48194
670.82        56.39405
671.24        56.23879
671.67        56.23422
672.09        56.90305
672.52        57.93538
672.94        58.74992
673.37        58.28236
673.80        58.18704
674.22        58.28855
674.65        58.38942
675.07        58.50278
675.50        58.61285
675.92        58.73494
676.35        58.94487
676.77        59.24253
677.20        59.53737
677.62        59.80933
678.05        60.03333
678.47        60.18889
678.90        60.29519
679.32         60.3782
679.75        60.37124
680.17        60.52626
680.60         60.6443
681.02        60.76602
681.45        60.81092
681.87        60.78104
682.30        60.72162
682.72        60.69958
683.15        60.78141
683.57        61.02686
684.00        61.42477
684.42        62.04275
684.85         62.3666
685.27        62.39271
685.70        62.31156
686.12        62.19415
686.54        62.10909
686.97        62.12865
687.39        62.32265
687.82        62.63123
688.24        62.99665
688.66        63.30251
689.09        63.35479
689.51        63.22492
689.94        63.24712
690.36        63.46814
690.78        63.65232
691.21        63.77095
691.63        63.97495
692.06         64.2058
692.48        64.22821
692.90        64.13045
693.33        64.21257
693.75        64.49528
694.17        64.90048
694.60        65.32906
695.02         65.4785
695.44        65.36308
695.87        65.58939
696.29        66.12786
696.71        66.06385
697.14        65.56777
697.56        65.96751
697.98        67.03458
698.41        67.03511
698.83        66.32276
699.25        65.99892
699.68        66.22374
700.10        66.33676
700.52        66.34168
700.94        66.60646
701.37        67.05164
701.79        67.47437
702.21        67.78684
702.64        68.05203
703.06        68.21141
703.48        68.16821
703.90        67.93983
704.33        67.56309
704.75         67.1687
705.17        67.05106
705.59        67.28009
706.01        67.66722
706.44        68.06129
706.86        68.78288
707.28        68.83859
707.70        69.03576
708.12        69.12402
708.55        69.03757
708.97        68.83677
709.39        68.77917
709.81         68.8847
710.23         68.9399
710.66        68.94374
711.08        69.07436
711.50        69.27258
711.92        69.37887
712.34        69.37206
712.76        69.28176
713.19        69.19036
713.61        69.26099
714.03        69.50845
714.45        69.88228
714.87        70.23956
715.29        70.35635
715.71        70.19371
716.13        69.83006
716.56        69.42669
716.98        69.27341
717.40        69.43497
717.82          69.823
718.24        70.30148
718.66        70.63542
719.08         70.7514
719.50        70.72098
719.92        70.60463
720.34        70.52155
720.76        70.51742
721.19         70.4352
721.61         70.5088
722.03        70.62701
722.45        70.84512
722.87        71.14836
723.29        71.46818
723.71        71.67776
724.13        71.74169
724.55        71.69138
724.97        71.58379
725.39        71.52045
725.81         71.5341
726.23        71.59693
726.65        71.68494
727.07        71.75843
727.49        71.80647
727.91        71.85107
728.33         71.8985
728.75        71.95055
729.17        72.00583
729.59        72.06255
730.01        72.13075
730.43        72.19872
730.85         72.2845
731.27        72.46356
731.69        72.67915
732.10        72.77499
732.52        72.72321
732.94        72.61211
733.36        72.56461
733.78        72.62447
734.20        72.81404
734.62        73.43739
735.04        74.24297
735.46        74.13004
735.88        73.36471
736.30        73.46609
736.72        74.46381
737.13        75.19193
737.55        75.26898
737.97        75.23148
738.39        75.14194
738.81         74.3201
739.23         73.2462
739.65        74.03857
740.06        76.18969
740.48        76.37913
740.90        74.70973
741.32        74.01141
741.74        74.53426
742.16        74.80069
742.57        74.83905
742.99        75.55085
743.41        76.69955
743.83        77.23683
744.25        77.11783
744.67        77.01352
745.08        77.08536
745.50        77.18771
745.92        77.38221
746.34        77.79486
746.75        78.32381
747.17        78.63041
747.59        78.67652
748.01        78.70651
748.42        78.77155
748.84         78.6853
749.26        78.64922
749.68        79.08594
750.09        79.89656
750.51        80.79911
750.93        81.47116
751.35         81.1425
751.76        80.10036
752.18        79.77528
752.60        80.19685
753.01        80.34241
753.43        80.11913
753.85        80.27709
754.27        80.81883
754.68        81.47303
755.10        82.09496
755.52        82.61532
755.93        82.93752
756.35        83.00481
756.77        82.97657
757.18        82.92735
757.60        82.90215
758.02        83.47648
758.43        84.14934
758.85        83.36446
759.26        80.77015
759.68        80.68188
760.10        82.51656
760.51        83.98006
760.93        83.30551
761.34         82.0428
761.76        81.88614
762.18        81.02644
762.59         80.3912
763.01        80.64582
763.42        81.78548
763.84        83.02891
764.26        83.99255
764.67        83.99826
765.09        83.22702
765.50         83.1816
765.92        83.65182
766.33        82.46536
766.75        80.24056
767.16        79.52882
767.58        80.44334
768.00        81.95259
768.41        83.65131
768.83        85.27269
769.24        86.09306
769.66         85.3837
770.07        83.68504
770.49        81.69683
770.90        80.12234
771.32        81.18808
771.73        84.06682
772.15        83.94546
772.56        81.27007
772.97        80.22919
773.39        82.26859
773.80        83.02193
774.22         82.6197
774.63        82.58207
775.05        82.89824
775.46        83.11255
775.88        83.13645
776.29         82.9622
776.70        82.67635
777.12        82.59174
777.53        82.76953
777.95        83.05562
778.36        83.31033
778.77        83.27781
779.19        82.94646
779.60          82.446
780.02        81.98286
780.43        81.85986
780.84        82.27332
781.26        82.84635
781.67         83.4422
782.09        84.71645
782.50         86.0936
782.91        84.61028
783.33        82.19227
783.74        81.29876
784.15        82.43069
784.57        83.61658
784.98        84.32495
785.39        84.22004
785.81        83.38572
786.22        82.81149
786.63        82.78609
787.04         82.9007
787.46        83.21138
787.87        84.12824
788.28        85.32076
788.70        85.88479
789.11        85.66162
789.52        85.04314
789.93        84.30931
790.35        83.64641
790.76        83.26357
791.17        83.50036
791.58        84.18485
792.00        84.53943
792.41        84.42006
792.82        84.35878
793.23        84.48438
793.65        84.09725
794.06        83.53362
794.47        84.60294
794.88        86.51919
795.29        86.08208
795.71        83.54082
796.12        81.40327
796.53        80.31783
796.94        79.98317
797.35        80.51099
797.76        81.80756
798.18        83.25423
798.59        84.30504
799.00        84.64637
799.41        83.43529
799.82        82.54066
800.23         81.7894
800.64        81.81556
801.06        82.20603
801.47        82.83588
801.88        83.36315
802.29        83.62874
802.70        83.78506
803.11        83.84806
803.52         83.7777
803.93        83.61151
804.34        83.39024
804.75        83.22812
805.17        83.09888
805.58         83.6609
805.99        83.97435
806.40        84.10571
806.81        84.86942
807.22        85.72321
807.63        84.46686
808.04        81.77258
808.45        80.62704
808.86        81.29211
809.27        82.27251
809.68        83.11971
810.09        83.67256
810.50        83.70411
810.91        83.27871
811.32        82.67593
811.73        82.33449
812.14        82.36922
812.55        82.65499
812.96        83.05967
813.37        83.23534
813.78        83.14819
814.19        83.19022
814.60        83.25639
815.01        82.94786
815.42        82.26931
815.83        81.36528
816.24        80.59901
816.65        80.54372
817.05        81.36243
817.46        82.84291
817.87        84.43123
818.28        85.12733
818.69        84.66954
819.10        83.29683
819.51        81.65664
819.92         80.8859
820.33        81.28733
820.74        82.45754
821.14        83.81227
821.55        84.46979
821.96        84.11711
822.37         82.7348
822.78        80.94694
823.19         80.0132
823.60         80.1793
824.00        80.98805
824.41        82.00025
824.82        82.70922
825.23        82.85793
825.64        82.64283
826.04        82.24489
826.45        81.92114
826.86        81.75683
827.27        81.62234
827.68        81.53954
828.08        81.60521
828.49        81.75567
828.90        82.06236
829.31        82.35519
829.72        82.29939
830.12        81.86068
830.53        81.12387
830.94        80.42801
831.35        80.24065
831.75        80.69147
832.16        81.58897
832.57        82.67357
832.97        83.39843
833.38        83.50414
833.79        83.15253
834.20         82.6251
834.60        82.34807
835.01         82.4594
835.42        82.81783
835.82        83.21153
836.23        83.20724
836.64        82.75048
837.04        82.01387
837.45        81.27782
837.86        80.97929
838.26        81.22836
838.67        81.83944
839.08        82.59492
839.48        83.09764
839.89        83.17361
840.29        82.96816
840.70        82.57869
841.11        82.13029
841.51        81.70141
841.92        81.23233
842.33        80.83821
842.73        80.72775
843.14        80.89391
843.54        81.32868
843.95        81.80383
844.35        81.99392
844.76        81.79963
845.17         81.3274
845.57        80.75593
845.98        80.37921
846.38        80.27409
846.79         80.3254
847.19        80.47153
847.60        80.50735
848.00        80.41771
848.41        80.25989
848.81        80.10091
849.22         79.9526
849.62        79.88587
850.03        79.88577
850.43         80.0268
850.84        80.34851
851.24        80.88278
851.65        81.40649
852.05        81.99271
852.46        82.57996
852.86        83.12547
853.27        83.67934
853.67        83.78677
854.07        82.87886
854.48        81.04144
854.88        78.51011
855.29        76.15589
855.69        75.23394
856.10          75.975
856.50        78.21818
856.90         81.1845
857.31        83.03848
857.71        83.16234
858.12        81.99302
858.52         80.2912
858.92        79.08114
859.33        78.60497
859.73        78.57362
860.13        78.89072
860.54        79.37536
860.94        79.99729
861.34        80.80637
861.75        81.62862
862.15        82.24873
862.55        82.55747
862.96        82.54422
863.36         82.3398
863.76        82.16389
864.17        82.10222
864.57        82.16325
864.97        82.29317
865.38        82.39397
865.78        82.48891
866.18        82.53867
866.58        82.64143
866.99        82.93573
867.39        83.49715
867.79        84.30955
868.19        85.02896
868.60        85.02084
869.00         84.1693
869.40        82.65726
869.80        81.26029
870.21        81.18398
870.61        82.77117
871.01        85.66044
871.41        88.89429
871.81        90.83051
872.22        91.00017
872.62         89.8578
873.02        88.30367
873.42        87.87189
873.82        88.78651
874.22        90.41515
874.63        92.16675
875.03        92.78555
875.43        91.76681
875.83        90.26654
876.23        88.03397
876.63        87.11555
877.03        87.65991
877.44         89.8806
877.84        101.8198
878.24        97.68235
878.64        97.48756
879.04        96.06486
879.44        92.61543
879.84        90.70564
880.24        93.25394
880.64        94.92534
881.04        96.13105
881.44        96.81567
881.84        96.32646
882.24        95.00113
882.65        93.72643
883.05        93.42694
883.45         94.2723
883.85        96.12484
884.25        98.28764
884.65        99.38779
885.05        99.01963
885.45        97.68458
885.85        96.14699
886.25         95.4442
886.65        95.79823
887.05        96.84834
887.45        98.21028
887.85        99.20007
888.25        99.53249
888.65        99.44511
889.04        99.03083
889.44        98.47136
889.84        97.86133
890.24        97.13123
890.64        96.44736
891.04        96.08619
891.44         96.0828
891.84        96.40406
892.24        96.83542
892.64        96.94411
893.04        96.67061
893.44        96.22574
893.83        95.83038
894.23        95.83147
894.63        96.28053
895.03        96.97754
895.43        97.95367
895.83        99.24552
896.23        100.7226
896.63        102.3508
897.02        103.5496
897.42        103.3921
897.82        101.8161
898.22        99.20133
898.62        96.51131
899.01        95.15178
899.41         95.4381
899.81        96.89966
900.21        98.86763
900.61        100.2327
901.00        100.6323
901.40        100.4111
901.80        99.86106
902.20        99.43604
902.59        99.30035
902.99        99.26373
903.39        99.24851
903.79        99.16988
904.18        98.99459
904.58        98.82494
904.98        98.72633
905.38        98.76456
905.77        98.92038
906.17        99.15284
906.57        99.34419
906.96         99.3768
907.36        99.17208
907.76        98.77907
908.15        98.28449
908.55          97.728
908.95        97.19967
909.34        96.66901
909.74        96.22083
910.14        95.78675
910.53        95.40309
910.93        95.17649
911.33        95.17882
911.72        95.54057
912.12        96.17832
912.52        96.90555
912.91        97.73384
913.31        98.77482
913.70        100.0929
914.10        101.7065
914.49         103.153
914.89        103.1549
915.29        101.4267
915.68        98.47919
916.08        95.68555
916.47        94.31876
916.87        94.51395
917.26        95.88659
917.66        97.59238
918.05        98.26085
918.45        97.52557
918.84        95.87257
919.24        94.14062
919.64        93.53759
920.03        94.37709
920.42        96.24928
920.82        98.49126
921.21        100.1102
921.61        100.5758
922.00        100.2272
922.40        99.38586
922.79        98.46703
923.19        97.67621
923.58        96.89796
923.98         96.0633
924.37        95.21317
924.77        94.60335
925.16        93.10804
925.55        93.35394
925.95        94.12629
926.34        96.13817
926.74        98.83082
927.13        101.3974
927.52          102.32
927.92        101.4032
928.31        99.15354
928.70        96.26731
929.10        93.92731
929.49        92.50741
929.89        91.72244
930.28        91.69424
930.67        92.61325
931.07        94.24043
931.46        96.56719
931.85        98.74596
932.24        99.49457
932.64        98.58533
933.03        96.22387
933.42         93.0555
933.82        90.64912
934.21        89.55579
934.60        89.45305
934.99        89.84572
935.39        90.17962
935.78        90.36986
936.17        90.41447
936.56         90.1401
936.96        91.09491
937.35        90.36938
937.74        90.15659
938.13        90.07094
938.53        90.77369
938.92        92.30552
939.31        94.65288
939.70        97.11842
940.09        97.80383
940.49        96.15237
940.88        93.04411
941.27        89.86396
941.66        88.19627
942.05        88.25371
942.44        89.51503
942.84        91.50617
943.23        93.46523
943.62        94.89922
944.01        95.95782
944.40        96.58414
944.79        96.71062
945.18        96.34021
945.57        95.36806
945.97        93.78626
946.36        91.97572
946.75        90.40746
947.14        89.26385
947.53        88.69126
947.92        88.68333
948.31        89.15334
948.70        90.14088
949.09        91.39758
949.48        92.28079
949.87        92.46641
950.26         91.9824
950.65        91.26302
951.04        91.04946
951.43        91.50252
951.82        92.43642
952.21        93.27155
952.60         93.0865
952.99        91.71638
953.38        89.47924
953.77        87.20794
954.16        86.09074
954.55        86.34912
954.94        87.70377
955.33        89.21583
955.72        89.30163
956.11        87.59895
956.50         84.5439
956.89        81.40655
957.28        80.52062
957.66        82.60886
958.05        86.67867
958.44        91.24229
958.83        94.10172
959.22        94.66676
959.61        93.51789
960.00        91.49001
960.39        89.94938
960.78        89.36407
961.16        89.38941
961.55         89.4814
961.94        88.78953
962.33        87.18276
962.72        85.12006
963.11         83.3275
963.49         82.6815
963.88        83.29235
964.27         84.9312
964.66        86.89116
965.04        87.69195
965.43         86.7544
965.82        84.70167
966.21        82.50688
966.60        81.40639
966.98        81.62356
967.37        82.68259
967.76        84.17424
968.15        85.27789
968.53        85.62997
968.92        85.49245
969.31        84.98094
969.69        84.18034
970.08        83.21278
970.47        82.05169
970.86        80.91481
971.24        80.25922
971.63        80.22688
972.02        80.74042
972.40        81.70358
972.79        82.81314
973.17          83.995
973.56        85.17159
973.95        86.08781
974.33         86.2674
974.72        85.55471
975.11        84.07044
975.49        82.47554
975.88        81.74781
976.26        82.00375
976.65         83.1148
977.04        84.33898
977.42        83.89329
977.81        81.31789
978.19        77.43076
978.58        74.17596
978.96        73.50763
979.35        75.69395
979.74         80.3394
980.12        86.48479
980.51         90.6313
980.89        91.54877
981.28        90.09054
981.66         87.6308
982.05        86.01052
982.43         85.5957
982.82        85.74186
983.20        86.39134
983.59        87.61074
983.97        89.40054
984.35        91.94742
984.74        94.44561
985.12        95.34593
985.51        93.72581
985.89        89.89454
986.28        85.11266
986.66         81.4867
987.04        79.95167
987.43        80.07429
987.81        80.90943
988.20        81.30138
988.58        80.92047
988.96        79.76864
989.35        78.44592
989.73        79.43139
990.12         83.4949
990.50        89.14695
990.88        93.05959
991.27        93.11705
991.65        89.84105
992.03        83.89104
992.42        77.58505
992.80        75.13709
993.18        77.59612
993.56        82.71369
993.95        87.93449
994.33         90.7874
994.71        90.90291
995.10        89.47792
995.48        87.18462
995.86        84.86411
996.24        82.86865
996.63        80.66642
997.01        78.78278
997.39        78.95211
997.77        81.64624
998.15        86.39128
998.54        90.82736
998.92        91.91755
999.30        88.75488
999.68        82.11187
1000.06        73.45535
1000.45        66.70994
1000.83        63.69756
1001.21        63.36099
1001.59        64.89536
1001.97        67.42684
1002.35        70.65133
1002.73        75.41957
1003.12        80.52171
1003.50        81.87926
1003.88        77.72047
1004.26        69.96297
1004.64        62.61378
1005.02        59.20512
1005.40        60.10971
1005.78        65.31391
1006.16         75.5089
1006.54        85.85851
1006.92        89.93083
1007.30        89.13569
1007.69        87.22686
1008.07        87.16874
1008.45        89.67815
1008.83        95.56709
1009.21        107.7186
1009.59        125.6759
1009.97        126.0586
1010.35        63.81945
1010.73        10.96875
1011.11        18.45747
1011.49        39.07479
1011.86        58.56071
1012.24        70.72771
1012.62        75.52362
1013.00        75.48676
1013.38        72.13839
1013.76        67.83927
1014.14        70.72578
1014.52        87.73067
1014.90        120.3837
1015.28        160.9487
1015.66        186.3787
1016.04        181.2155
1016.41        147.8397
1016.79        103.7875
1017.17        71.31548
1017.55        55.64865
1017.93         49.1832
1018.31        47.98389
1018.69        50.35319
1019.06        55.70518
1019.44        64.92783
1019.82        80.42053
1020.20        101.9771
1020.58        128.7019
1020.95        163.5776
1021.33        217.0923
1021.71       -515.0189
1022.09        73.76042
1022.46         108.706
1022.84        121.4759
1023.22        128.5787
1023.60        136.5858
1023.97        186.1871
1024.35        108.3335
1024.73        119.0412
