SpectraSmart Spectrum 2.9.0.0
--------- Device Information -----------
Spectrum Name :  反射率_0
Saving Time :  2024/04/25 23:40:03
Spectro-Module Model Name : SE2030-DUVN
Spectro-Module Serial Number : OS361AC55029948
Wavelength Start : 200
Wavelength End : 1025
Wavelength Unit : Wavelength(nm)
Spectrum Unit : Reflectance(%)
-----------Spectrum Setting ------------
Integration Time : 20ms
Average : 10
Boxcar : 0
Background removal :  enabled
linearity correction :  enabled
SC :  disabled
Intensity correction :  disabled
DWT denoise :  enabled
savitzky-golay :  disabled
FFT :  disabled
Running average :  disabled
Kalman :  disabled
High pass :  disabled
---------------BEGIN--------------------
Wavelength(nm)             Reflectance(%)
200.29               0
200.75        78.72967
201.21        70.98766
201.67        62.97687
202.13        59.23646
202.58        60.18235
203.04        64.87333
203.50        70.94456
203.96        74.16423
204.42        73.54429
204.88        70.66498
205.34        67.86639
205.80        67.65775
206.26        71.06292
206.72        80.11692
207.18        97.91245
207.64        111.3326
208.10        96.96819
208.55        73.44728
209.01        59.67654
209.47        55.98206
209.93        58.25869
210.39        64.74205
210.85         72.4401
211.31        74.78716
211.77        69.64686
212.23        59.36854
212.69        49.17963
213.14         47.1744
213.60        54.52657
214.06        68.67017
214.52        83.80531
214.98        91.09465
215.44         88.6488
215.90        79.81205
216.36        68.90588
216.81        61.95198
217.27        60.50095
217.73        62.18058
218.19        64.44878
218.65        64.08526
219.11        59.92837
219.57        51.93929
220.02        40.86964
220.48        32.90766
220.94         32.0249
221.40        37.12852
221.86        43.07419
222.32        44.23918
222.77        40.82109
223.23        35.64102
223.69        31.60479
224.15        31.73457
224.61        35.56789
225.06        41.53417
225.52        47.03016
225.98        48.89852
226.44         46.6635
226.90        41.80223
227.36         36.2977
227.81        32.78326
228.27        32.14931
228.73        33.37073
229.19        35.55272
229.65        37.34769
230.10        38.31971
230.56         38.8882
231.02        39.32178
231.48        39.88589
231.93        40.61427
232.39        41.35038
232.85        41.96466
233.31        42.34481
233.77        42.44831
234.22        42.31476
234.68        42.04609
235.14        41.75381
235.60        41.53531
236.05        41.44788
236.51        41.43393
236.97        41.35325
237.43        41.21151
237.88         41.0786
238.34        41.25626
238.80        42.50453
239.26        45.02934
239.71        48.67344
240.17        52.38091
240.63        54.83068
241.08        55.71873
241.54        55.26232
242.00        54.34269
242.46        54.27964
242.91        55.93853
243.37        60.56771
243.83        75.28844
244.28        122.8778
244.74         176.257
245.20        146.7048
245.66        119.5492
246.11        111.5638
246.57        114.4146
247.03        131.1556
247.48        181.7879
247.94        153.3586
248.40        98.30336
248.85        81.69251
249.31        77.58963
249.77        79.07558
250.22        84.40443
250.68        94.24728
251.14        108.0188
251.59         115.731
252.05        108.2804
252.51        90.79861
252.96        73.00505
253.42        63.36079
253.88        61.03042
254.33        62.84688
254.79        67.43555
255.25        72.30323
255.70        76.05689
256.16        79.40359
256.62        80.94772
257.07        79.17776
257.53        75.04739
257.99        69.13328
258.44        63.47582
258.90        61.30251
259.35        61.66988
259.81        63.23165
260.27        63.85843
260.72        61.51759
261.18        56.99693
261.63        51.27448
262.09        46.10051
262.55        42.85029
263.00         41.4376
263.46        41.19194
263.91        41.12143
264.37         40.4283
264.83         38.9552
265.28        36.93996
265.74        34.97735
266.19        33.71568
266.65        33.35711
267.11        33.51178
267.56        33.68855
268.02        33.30643
268.47        32.26076
268.93        30.77267
269.38        29.11996
269.84        27.98939
270.30        27.57034
270.75        27.67856
271.21        27.98004
271.66        27.98247
272.12        27.54525
272.57        26.82118
273.03        26.07632
273.48        25.62633
273.94        25.56091
274.39        25.72252
274.85        25.89012
275.31        25.74438
275.76        25.21905
276.22        24.45494
276.67        23.65043
277.13        23.17441
277.58        23.03898
278.04        23.14147
278.49        23.23023
278.95        23.00413
279.40        22.40044
279.86        21.59895
280.31        20.76076
280.77         20.2274
281.22        20.02611
281.68        20.04988
282.13        20.17241
282.59        20.24608
283.04        20.21879
283.50        20.17484
283.95        20.07797
284.41        19.88461
284.86        19.60126
285.32        19.24224
285.77        18.94306
286.22        18.97086
286.68        19.32665
287.13        19.89767
287.59        20.43171
288.04        20.54697
288.50        20.20191
288.95        19.51775
289.41        18.75017
289.86        18.18208
290.32        17.94525
290.77        17.94292
291.22        18.10651
291.68        18.29372
292.13        18.46857
292.59        18.67665
293.04        18.97482
293.50        19.44619
293.95         20.0763
294.40        20.78418
294.86        21.45582
295.31         21.9394
295.77        22.20902
296.22        22.32497
296.68        22.35829
297.13        22.39758
297.58        22.50576
298.04        22.67846
298.49        22.95943
298.95        23.44589
299.40        24.12669
299.85        24.96638
300.31        25.83772
300.76        26.54661
301.21        27.02263
301.67        27.33109
302.12        27.51374
302.58        27.69329
303.03        27.89019
303.48        28.08364
303.94        28.31161
304.39        28.59858
304.84         28.9485
305.30         29.3508
305.75        29.72126
306.20        29.93689
306.66        29.99455
307.11         29.9185
307.57        29.80408
308.02        29.72423
308.47        29.73024
308.93         29.7949
309.38        29.90066
309.83        30.04953
310.29        30.21886
310.74        30.39909
311.19        30.54636
311.65        30.59174
312.10        30.52047
312.55        30.35184
313.00        30.11662
313.46        29.87806
313.91         29.6565
314.36           29.46
314.82        29.31069
315.27        29.22386
315.72        29.20702
316.18        29.25294
316.63        29.34394
317.08        29.42701
317.53        29.47657
317.99        29.48354
318.44        29.46517
318.89        29.45612
319.35        29.45439
319.80        29.45861
320.25        29.40587
320.70        29.20064
321.16        28.84028
321.61        28.36261
322.06        27.88781
322.51         27.5954
322.97        27.51003
323.42        27.59097
323.87        27.70673
324.32         27.6322
324.78         27.3108
325.23        26.81994
325.68         26.2809
326.13        25.89721
326.59        25.72257
327.04        25.71035
327.49        25.78399
327.94        25.81876
328.39        25.77189
328.85        25.67596
329.30        25.58222
329.75        25.53677
330.20        25.55514
330.66         25.5903
331.11        25.64412
331.56         25.6813
332.01        25.68545
332.46        25.65938
332.92        25.58853
333.37        25.47656
333.82        25.31984
334.27        25.13418
334.72        24.92999
335.17        24.72673
335.63        24.53907
336.08        24.37265
336.53          24.266
336.98        24.27979
337.43        24.41705
337.88        24.66333
338.34        24.90882
338.79        25.02118
339.24        24.94595
339.69         24.7121
340.14        24.45157
340.59        24.39818
341.05        24.58849
341.50        24.94401
341.95        25.30201
342.40        25.42523
342.85        25.26706
343.30        24.91546
343.75        24.47658
344.20        24.13939
344.66         23.9711
345.11        23.88414
345.56        23.86377
346.01        23.88127
346.46        23.90656
346.91        23.96866
347.36        23.96437
347.81        23.72164
348.26        23.24236
348.72        22.61594
349.17        22.01349
349.62        21.80024
350.07         22.0517
350.52        22.63658
350.97        23.35809
351.42        23.91363
351.87        24.20312
352.32         24.3036
352.77        24.24639
353.22        24.08922
353.67        23.87065
354.13        23.57651
354.58        23.25242
355.03        23.01448
355.48        22.89087
355.93        22.87571
356.38         22.9049
356.83        22.85856
357.28        22.70726
357.73         22.4822
358.18        22.24847
358.63        22.10863
359.08        22.08555
359.53        22.14776
359.98        22.22025
360.43        22.19036
360.88        22.03563
361.33        21.78765
361.78        21.53684
362.23        21.42983
362.68        21.48768
363.13        21.64858
363.58        21.80012
364.03        21.76949
364.48        21.52145
364.93         21.1264
365.38        20.66677
365.83        20.27196
366.28        19.99384
366.73        19.79762
367.18        19.68875
367.63        19.67489
368.08        19.73599
368.53        19.86197
368.98        19.99162
369.43        20.02422
369.88        19.93958
370.33        19.76837
370.78        19.54466
371.23        19.33624
371.68        19.17333
372.13        19.03256
372.58        18.95218
373.03        18.99178
373.48        19.14724
373.93        19.40076
374.38        19.64299
374.83        19.70338
375.28        19.55111
375.72        19.22117
376.17        18.85676
376.62        18.65554
377.07        18.66902
377.52        18.83256
377.97        19.04158
378.42        19.12684
378.87        19.04436
379.32        18.85714
379.77        18.63249
380.22        18.46222
380.67        18.37079
381.11        18.32556
381.56        18.29563
382.01        18.24362
382.46        18.15576
382.91        18.04595
383.36        17.93034
383.81        17.82935
384.26        17.75032
384.71        17.69086
385.15        17.62297
385.60        17.51773
386.05        17.36437
386.50        17.16634
386.95        16.97662
387.40        16.88648
387.85         16.9124
388.29        17.01931
388.74        17.12617
389.19        17.10341
389.64        16.93438
390.09        16.64781
390.54        16.34951
390.98        16.21846
391.43        16.30164
391.88        16.53256
392.33        16.76834
392.78        16.79865
393.23        16.59986
393.67        16.24666
394.12        15.90298
394.57        15.73857
395.02        15.78645
395.47        15.98239
395.91        16.23575
396.36        16.36367
396.81        16.31252
397.26        16.12908
397.71        15.89015
398.15        15.69298
398.60        15.58944
399.05        15.55124
399.50        15.52157
399.95        15.37774
400.39        15.17374
400.84        14.89181
401.29        14.63586
401.74        14.56108
402.18          14.712
402.63        15.01632
403.08        15.35619
403.53        15.54311
403.97        15.52687
404.42        15.36051
404.87        15.12368
405.32        14.95787
405.76        14.90612
406.21        14.92598
406.66        14.97312
407.11        14.98991
407.55        14.96383
408.00        14.91446
408.45        14.85215
408.90        14.78453
409.34        14.72077
409.79        14.65641
410.24        14.61018
410.68        14.60993
411.13        14.66034
411.58        14.75634
412.03        14.86267
412.47         14.9183
412.92        14.89568
413.37        14.80997
413.81        14.70699
414.26        14.67465
414.71        14.72063
415.15        14.82231
415.60          14.907
416.05         14.8765
416.49        14.71171
416.94        14.46122
417.39        14.19008
417.83        14.00883
418.28        13.95871
418.73        13.99417
419.17        14.08871
419.62        14.19425
420.07        14.28916
420.51         14.3863
420.96        14.44566
421.41        14.39743
421.85        14.23405
422.30         13.9995
422.74        13.75945
423.19        13.64007
423.64        13.65059
424.08        13.76586
424.53        13.91756
424.98        14.01104
425.42        14.01904
425.87          13.961
426.31         13.8681
426.76        13.83198
427.21        13.84868
427.65         13.7979
428.10        13.73201
428.54        13.82078
428.99        14.06741
429.44        14.39535
429.88        14.66395
430.33        14.69698
430.77        14.46983
431.22         14.0427
431.66        13.58878
432.11        13.42684
432.56        13.58302
433.00          13.892
433.45        14.19706
433.89        14.41189
434.34        14.44229
434.78        14.18811
435.23        13.85535
435.67        13.87428
436.12         14.1972
436.57        14.33316
437.01         14.2209
437.46        14.11955
437.90        14.05706
438.35        13.96233
438.79        13.84526
439.24         13.7614
439.68        13.72594
440.13        13.66804
440.57         13.6128
441.02        13.78051
441.46        14.05989
441.91        13.95933
442.35        13.54968
442.80        13.34739
443.24        13.33371
443.69        13.31162
444.13        13.24486
444.58        13.08244
445.02        12.88297
445.47        12.91992
445.91        13.13244
446.36         13.1835
446.80        13.04367
447.24        12.90036
447.69        12.79743
448.13        12.71548
448.58        12.67333
449.02         12.6716
449.47        12.68554
449.91        12.67348
450.36        12.62889
450.80        12.56179
451.25        12.50095
451.69        12.47938
452.13        12.50594
452.58        12.55534
453.02         12.6097
453.47        12.63688
453.91        12.63134
454.36        12.60896
454.80        12.56626
455.24        12.49761
455.69         12.4181
456.13        12.32657
456.58        12.27285
457.02         12.3111
457.46        12.45068
457.91        12.66259
458.35         12.8881
458.79        13.02521
459.24        13.05688
459.68        12.99875
460.13        12.91059
460.57        12.85064
461.01        12.85313
461.46        12.89352
461.90        12.94893
462.34        12.97157
462.79        12.94822
463.23        12.88904
463.68        12.83714
464.12        12.86018
464.56         12.9708
465.01        13.15039
465.45        13.30425
465.89         13.3408
466.34         13.2578
466.78        13.01656
467.22        12.74224
467.67        12.76528
468.11        13.05444
468.55        13.21149
468.99        13.18906
469.44        13.17838
469.88        13.21936
470.32        13.35918
470.77        13.54027
471.21        13.57205
471.65        13.43554
472.10        13.27507
472.54        13.14852
472.98        13.10871
473.42        13.17869
473.87        13.34634
474.31        13.55016
474.75        13.68567
475.20        13.73053
475.64        13.70516
476.08        13.66148
476.52        13.68047
476.97        13.78042
477.41        13.93778
477.85          14.095
478.29        14.18846
478.74        14.20367
479.18        14.09224
479.62        13.92237
480.06        14.03253
480.50        14.14991
480.95        14.29482
481.39        14.32389
481.83        14.31098
482.27        14.25105
482.72        14.04729
483.16        13.80167
483.60        13.85216
484.04        14.21124
484.48        14.48147
484.93        14.81886
485.37        15.24801
485.81        15.66052
486.25        16.00643
486.69        21.16439
487.14        16.66672
487.58        11.07886
488.02        13.58011
488.46        15.29005
488.90        15.39792
489.34        15.53975
489.79        15.46674
490.23        16.21844
490.67        16.69076
491.11          16.671
491.55        16.59415
491.99        16.42712
492.43        16.24214
492.88        16.11163
493.32        16.09419
493.76        16.10782
494.20        16.30378
494.64          16.636
495.08        17.05913
495.52        17.50447
495.96        17.88708
496.41        18.13077
496.85        18.23537
497.29        18.23482
497.73        18.01023
498.17        17.79646
498.61        18.02031
499.05        18.67087
499.49           18.85
499.93        18.99548
500.37        19.14268
500.82        19.24017
501.26        19.48065
501.70        19.76693
502.14        19.93445
502.58        19.95675
503.02        19.98577
503.46        20.02809
503.90        19.98341
504.34        19.89123
504.78        19.86369
505.22        19.91876
505.66        20.03456
506.10        20.16358
506.54        20.22225
506.98        20.19423
507.42        20.11023
507.86        20.03831
508.30        20.08233
508.74        20.25967
509.18        20.52911
509.62        20.82097
510.06        21.02168
510.50        21.09966
510.94        21.09524
511.38        21.04664
511.82        21.01438
512.26        21.02202
512.70        21.04566
513.14        21.09517
513.58        21.18862
514.02        21.31158
514.46        21.45447
514.90        21.57335
515.34        21.56063
515.78        21.37471
516.22        21.20381
516.66        21.11345
517.10        20.76205
517.54        20.16853
517.98        20.93566
518.42        20.71234
518.86        21.03034
519.30        21.17029
519.74        21.35608
520.18        21.52963
520.62        21.56824
521.06        21.48344
521.50         21.2876
521.93        21.05687
522.37         20.9282
522.81        20.93342
523.25        21.03321
523.69        21.16896
524.13        21.24827
524.57        21.24283
525.01        21.17975
525.45        21.08399
525.89        20.99551
526.32        20.92639
526.76        20.86386
527.20        20.79432
527.64        20.70654
528.08        20.60333
528.52        20.47522
528.96        20.33455
529.40        20.25328
529.83        20.24829
530.27        20.09252
530.71        20.16023
531.15        20.09593
531.59        20.01336
532.03         19.9103
532.46        19.83036
532.90        19.84502
533.34        19.95321
533.78        20.12329
534.22        20.28565
534.66        20.33997
535.09        20.26093
535.53        20.08996
535.97         19.8732
536.41        19.68847
536.85         19.5679
537.28        19.49892
537.72         19.4735
538.16        19.47718
538.60        19.50438
539.04        19.54529
539.47         19.6097
539.91        19.76023
540.35        19.97145
540.79        20.14718
541.22        20.26483
541.66        20.37268
542.10        20.46538
542.54        20.50054
542.97        20.51028
543.41        20.58131
543.85        20.72641
544.29        20.93542
544.72        21.15734
545.16        21.31975
545.60         21.4061
546.04        21.43085
546.47        21.47202
546.91        21.66283
547.35        22.01133
547.79        22.47502
548.22        22.91995
548.66        23.12213
549.10        23.05621
549.53        22.82578
549.97        22.58911
550.41        22.53801
550.84        22.72892
551.28        23.11181
551.72        23.59541
552.15        24.01431
552.59        24.30254
553.03        24.50133
553.46        24.63376
553.90        24.75665
554.34        24.89388
554.77        24.99823
555.21        25.06369
555.65        25.16103
556.08        25.30657
556.52        25.18352
556.96        25.39373
557.39        25.47632
557.83        25.61547
558.27        25.77983
558.70        25.96544
559.14        26.14989
559.57        26.31181
560.01        26.46682
560.45        26.58744
560.88        26.63078
561.32        26.61793
561.75        26.55145
562.19        26.49423
562.63        26.50469
563.06        26.59271
563.50        26.74781
563.93        26.93609
564.37        27.11012
564.80        27.24707
565.24        27.37603
565.68        27.48249
566.11        27.56096
566.55        27.63947
566.98        27.66671
567.42        27.70527
567.85        27.95761
568.29        28.39569
568.72        28.65907
569.16        28.78823
569.60        29.15315
570.03        29.62222
570.47        29.73094
570.90        29.60209
571.34        29.30237
571.77        29.73567
572.21        29.87264
572.64        30.01289
573.08        29.57759
573.51        28.60431
573.95        29.88727
574.38         31.8755
574.82        31.32324
575.25        30.94864
575.69        29.91599
576.12        29.48995
576.56        29.36094
576.99        29.97667
577.42        31.29331
577.86        31.28374
578.29        30.98738
578.73        32.65456
579.16        29.97825
579.60        27.29794
580.03        28.47574
580.47        30.43115
580.90        30.68949
581.33        30.21544
581.77        29.75338
582.20        32.67523
582.64        32.31874
583.07        27.52629
583.51        26.76491
583.94        25.97908
584.37        26.93372
584.81        28.25209
585.24        29.81114
585.68        30.62572
586.11        29.88655
586.54        27.66154
586.98        26.82099
587.41        27.03993
587.85        28.20344
588.28        29.12399
588.71        27.77634
589.15        26.82826
589.58        27.22231
590.01        27.43094
590.45        27.99265
590.88        28.02177
591.31        27.62607
591.75        27.39736
592.18        27.44762
592.61        28.07363
593.05        28.83288
593.48        29.85451
593.91        30.18943
594.35         27.8766
594.78        27.47797
595.21        27.53099
595.65        28.84484
596.08         29.9201
596.51        28.89115
596.94        28.31424
597.38        28.80887
597.81        30.12691
598.24        31.05681
598.68        30.59213
599.11        30.69334
599.54        31.80929
599.97        33.08219
600.41         31.2233
600.84         31.7306
601.27        32.67551
601.70        32.72411
602.14        33.15607
602.57        33.00552
603.00        33.47116
603.43        34.81261
603.87         36.2035
604.30         36.5561
604.73        35.97729
605.16        35.46559
605.60        36.60806
606.03        37.66833
606.46        38.66815
606.89        38.97157
607.32         38.1556
607.76        38.62996
608.19        40.08326
608.62        39.88182
609.05        39.51401
609.48        40.09751
609.92        40.35767
610.35        40.60905
610.78        42.56084
611.21        43.40803
611.64        41.81962
612.07        42.46282
612.50        42.84747
612.94        43.48465
613.37         43.3228
613.80        43.61642
614.23        44.25979
614.66        44.46289
615.09        44.88075
615.52        45.21827
615.96        45.50749
616.39        45.95282
616.82        45.53183
617.25        45.39954
617.68        46.16746
618.11        46.77866
618.54        47.29094
618.97        47.24897
619.40        46.90087
619.84        46.97779
620.27        47.85074
620.70         48.3852
621.13        48.58532
621.56        48.27568
621.99        47.71935
622.42        48.40569
622.85        49.94868
623.28         49.8075
623.71        49.64434
624.14        49.18619
624.57        49.09498
625.00          48.689
625.43        48.85172
625.86        48.38583
626.29         48.4233
626.72        48.71996
627.15        48.37285
627.58        48.36583
628.01        48.32647
628.44        48.14572
628.87        47.87906
629.30        47.70201
629.73        47.84779
630.16        47.64372
630.59        47.14489
631.02        46.53867
631.45        45.92303
631.88         45.3875
632.31        44.96196
632.74        44.60933
633.17        44.27565
633.60        43.88531
634.03        43.41664
634.46        42.89605
634.89        42.35997
635.32        41.86722
635.75        41.43569
636.18        41.04527
636.61        40.67231
637.04        40.27847
637.47        39.84896
637.89         39.3996
638.32        38.93687
638.75        38.49867
639.18        38.10376
639.61        37.75161
640.04        37.43243
640.47         37.1249
640.90        36.82579
641.33        36.54109
641.76        36.28118
642.18        36.11583
642.61        36.05116
643.04        35.98158
643.47        35.86306
643.90        36.09176
644.33        35.91317
644.76        35.94291
645.18        35.96109
645.61        35.98899
646.04        36.02495
646.47        36.06206
646.90        36.15818
647.33        36.38554
647.75        36.76899
648.18        37.29136
648.61        37.82384
649.04        38.22612
649.47        38.44641
649.89        38.30822
650.32        38.09797
650.75        38.56422
651.18        39.66632
651.61        40.65184
652.03        41.25988
652.46        41.74801
652.89        42.34657
653.32        42.43747
653.74        42.26648
654.17        44.33208
654.60        44.85802
655.03        44.09789
655.46        45.26097
655.88        48.16858
656.31        52.68187
656.74        123.0195
657.16        79.93266
657.59        27.91367
658.02        20.94337
658.45        36.46723
658.87        47.58942
659.30        49.86655
659.73         49.9193
660.15        48.49434
660.58        50.67311
661.01        52.33976
661.44        51.04572
661.86        50.79032
662.29        51.00994
662.72        51.87146
663.14        53.16374
663.57        53.28142
664.00        52.45114
664.42        52.42117
664.85        53.27324
665.27        53.91735
665.70        54.15407
666.13        54.28216
666.55        54.27536
666.98         54.0486
667.41        53.76812
667.83        53.74616
668.26         54.0472
668.69         54.5487
669.11        55.04979
669.54        55.47785
669.96        55.24757
670.39        54.93291
670.82         54.5612
671.24        54.34506
671.67        54.43308
672.09        54.92899
672.52        55.58514
672.94        56.22104
673.37        55.84658
673.80        55.89128
674.22         56.1111
674.65        56.22354
675.07        56.21189
675.50        56.11041
675.92        56.00068
676.35        56.04072
676.77        56.25781
677.20        56.54794
677.62        56.84622
678.05         57.0477
678.47        57.10367
678.90        57.07679
679.32        57.04895
679.75        56.96605
680.17        57.05906
680.60        57.44224
681.02        57.55584
681.45        57.61833
681.87        57.47431
682.30        57.36392
682.72        57.34251
683.15        57.29523
683.57        57.32203
684.00        57.61128
684.42        58.25354
684.85        58.57585
685.27        58.56889
685.70        58.48692
686.12        58.39958
686.54        58.33218
686.97        58.33615
687.39        58.51171
687.82        58.77161
688.24        58.91603
688.66        58.90171
689.09        58.83628
689.51        58.79527
689.94        58.86394
690.36        59.07662
690.78        59.33337
691.21         59.5862
691.63        59.91256
692.06        60.21481
692.48        60.18853
692.90        59.93344
693.33        59.87786
693.75        60.06109
694.17        60.28761
694.60        60.50669
695.02        60.62084
695.44        60.59787
695.87        60.82464
696.29        61.26373
696.71        61.04015
697.14        60.40541
697.56        60.95835
697.98        62.39558
698.41        62.42406
698.83        61.66026
699.25        61.15284
699.68        61.20518
700.10        61.17912
700.52        61.11296
700.94        61.34348
701.37        61.79506
701.79        62.25301
702.21        62.62368
702.64        62.96398
703.06        63.19988
703.48        63.21146
703.90        63.00615
704.33        62.62037
704.75        62.18894
705.17         62.0137
705.59          62.172
706.01        62.48898
706.44        62.83372
706.86        63.49091
707.28        63.53964
707.70          63.753
708.12        63.91793
708.55        63.74842
708.97         63.8185
709.39        63.66047
709.81        63.51078
710.23        63.46233
710.66         63.5457
711.08        63.76203
711.50        63.99574
711.92        64.06184
712.34        63.92094
712.76        63.66293
713.19        63.44273
713.61        63.29659
714.03        63.64644
714.45        64.10347
714.87        64.59338
715.29        64.80859
715.71        64.68822
716.13        64.33054
716.56         63.9035
716.98        63.71539
717.40        63.84185
717.82        64.18703
718.24        64.63016
718.66        64.96672
719.08        65.12426
719.50         65.1606
719.92        65.11559
720.34        65.07121
720.76        65.06288
721.19        64.95943
721.61        64.97086
722.03        64.98706
722.45        65.06926
722.87        65.21118
723.29        65.39943
723.71        65.59707
724.13        65.78334
724.55        65.95911
724.97        66.10812
725.39          66.211
725.81        66.26357
726.23        66.26737
726.65        66.24359
727.07        66.22788
727.49        66.23666
727.91        66.27425
728.33        66.32845
728.75        66.37453
729.17        66.40486
729.59         66.4211
730.01        66.46166
730.43        66.57623
730.85        66.77526
731.27        67.06773
731.69        67.36107
732.10        67.48696
732.52        67.41022
732.94        67.21112
733.36        67.05209
733.78        67.05885
734.20        67.26166
734.62        67.92874
735.04        68.79616
735.46        68.68996
735.88        67.85522
736.30        67.99564
736.72         69.0832
737.13        69.48423
737.55        68.98821
737.97        68.95492
738.39        69.38401
738.81        68.81803
739.23        67.67056
739.65        68.43354
740.06        70.63186
740.48        70.88966
740.90        69.29332
741.32        68.57333
741.74        68.98566
742.16        69.21374
742.57        69.30484
742.99        69.99107
743.41        71.05147
743.83        71.70289
744.25        71.80569
744.67         71.5614
745.08        71.18305
745.50        71.02029
745.92        71.18362
746.34        71.54357
746.75         71.9717
747.17        72.22916
747.59        72.27268
748.01        72.25391
748.42        72.28105
748.84         72.3744
749.26        72.66293
749.68        73.31004
750.09        74.14789
750.51        74.87221
750.93        75.25632
751.35        74.84357
751.76        73.92246
752.18        73.61001
752.60        73.93018
753.01        74.09978
753.43        74.08409
753.85        74.24663
754.27        74.56052
754.68        75.36659
755.10        75.64859
755.52        76.08147
755.93        76.31454
756.35          76.365
756.77        76.42778
757.18        76.31751
757.60        76.50319
758.02        77.27005
758.43        78.25784
758.85        77.24713
759.26        74.99883
759.68        74.68982
760.10        76.76767
760.51         77.7246
760.93        77.28346
761.34        76.24487
761.76        76.05284
762.18        75.17415
762.59        74.37797
763.01        74.73549
763.42        76.15155
763.84        77.13192
764.26        77.41805
764.67        77.39405
765.09        77.16082
765.50         77.1426
765.92        77.19075
766.33        76.11997
766.75        74.37981
767.16        73.72995
767.58        74.40183
768.00        75.72752
768.41        77.40015
768.83        78.94869
769.24        79.72169
769.66        79.15491
770.07        77.72377
770.49        76.08173
770.90        74.77716
771.32        75.65239
771.73        78.01727
772.15        77.68307
772.56        75.08168
772.97        74.58435
773.39        76.06979
773.80        77.03226
774.22         76.0482
774.63        76.00755
775.05        76.51029
775.46        76.73816
775.88        76.59586
776.29        76.33509
776.70        76.07602
777.12        76.01189
777.53        76.19621
777.95        76.49789
778.36        76.76535
778.77        76.73327
779.19         76.3969
779.60        75.88535
780.02        75.38129
780.43        75.24113
780.84        75.63934
781.26         75.9979
781.67        76.32137
782.09        77.81316
782.50        79.72085
782.91        78.77258
783.33         75.8192
783.74        74.89619
784.15        76.19504
784.57        77.40967
784.98         77.9929
785.39        77.69785
785.81        76.68761
786.22        76.16878
786.63        76.34387
787.04        76.42085
787.46        76.45316
787.87        77.10984
788.28        78.15611
788.70        78.69442
789.11        78.58931
789.52        78.26339
789.93        77.86831
790.35         77.3456
790.76        76.89742
791.17        76.97314
791.58        77.47492
792.00        77.83361
792.41        77.85404
792.82        77.65884
793.23         77.4514
793.65        77.03376
794.06        76.75712
794.47        78.10851
794.88        80.23152
795.29        79.97881
795.71        77.53729
796.12        75.34793
796.53        74.10532
796.94         73.5704
797.35        73.92329
797.76        75.31864
798.18        77.08527
798.59        78.13914
799.00        78.07602
799.41        77.07652
799.82        75.67506
800.23        74.84432
800.64        74.82529
801.06         75.2377
801.47        75.91091
801.88        76.46434
802.29        76.73708
802.70         76.8782
803.11        76.92168
803.52        76.87573
803.93        76.78513
804.34        76.63218
804.75        76.50228
805.17        76.51445
805.58        77.01349
805.99        77.34399
806.40        77.47968
806.81        78.19791
807.22        78.98058
807.63        77.71411
808.04        75.09612
808.45        74.06891
808.86         74.8858
809.27         76.0849
809.68        77.13329
810.09        77.68732
810.50        77.48681
810.91        76.66979
811.32        75.62303
811.73        74.95193
812.14        74.83085
812.55        75.09399
812.96        75.61295
813.37        76.02863
813.78        76.26673
814.19         76.7066
814.60        77.13844
815.01        77.00821
815.42        76.29232
815.83        75.16728
816.24        74.08398
816.65        73.78253
817.05        74.48675
817.46        75.96056
817.87        77.60271
818.28        78.32465
818.69        77.83833
819.10        76.42042
819.51          74.755
819.92        74.02034
820.33        74.52328
820.74        75.85778
821.14        77.39423
821.55        78.10931
821.96         77.7027
822.37        76.35133
822.78        74.64667
823.19        73.63734
823.60        73.56726
824.00        74.10278
824.41        74.86412
824.82         75.3865
825.23        75.45116
825.64        75.23473
826.04        74.92976
826.45        74.80186
826.86         74.9166
827.27        75.14127
827.68        75.37067
828.08         75.4855
828.49        75.38096
828.90        75.16716
829.31        74.87637
829.72        74.55479
830.12        74.27831
830.53        74.02474
830.94        73.89697
831.35         74.0173
831.75        74.43327
832.16        75.04646
832.57        75.75815
832.97        76.32156
833.38        76.57421
833.79        76.56483
834.20        76.39603
834.60         76.2372
835.01        76.16769
835.42        76.13648
835.82        76.07481
836.23        75.79123
836.64        75.30997
837.04         74.7401
837.45        74.24973
837.86         74.0983
838.26        74.34792
838.67         74.8712
839.08        75.54774
839.48        76.14347
839.89        76.51511
840.29        76.72099
840.70        76.72836
841.11        76.48808
841.51        76.03244
841.92        75.35261
842.33        74.64069
842.73        74.22935
843.14        74.16598
843.54        74.42529
843.95        74.75387
844.35        74.77483
844.76         74.3911
845.17        73.74723
845.57        73.08638
845.98        72.78294
846.38         72.9222
846.79        73.35445
847.19        73.92783
847.60        74.28861
848.00        74.35757
848.41        74.21555
848.81        73.99251
849.22        73.81062
849.62        73.76584
850.03        73.80984
850.43        73.97503
850.84        74.24382
851.24        74.64458
851.65        75.02362
852.05        75.47346
852.46         76.0163
852.86        76.63377
853.27        77.16533
853.67        77.25073
854.07         76.8299
854.48        75.77803
854.88        73.47311
855.29        70.76625
855.69        69.55415
856.10        70.09099
856.50        71.78371
856.90        73.95724
857.31        75.32069
857.71         75.4118
858.12        74.52463
858.52        73.28963
858.92        72.54492
859.33        72.47815
859.73        72.84845
860.13        73.51534
860.54        74.18385
860.94        74.76973
861.34          75.341
861.75        75.80558
862.15        76.09641
862.55        76.17114
862.96        76.02114
863.36        75.78665
863.76        75.69069
864.17        75.80323
864.57        76.11977
864.97        76.55832
865.38        76.97919
865.78         77.3737
866.18        77.68417
866.58        77.95663
866.99        78.25626
867.39        78.64594
867.79        79.14757
868.19        79.48606
868.60        79.16155
869.00        78.12395
869.40        76.55019
869.80        75.24084
870.21        75.42579
870.61        77.41197
871.01        80.79707
871.41        84.50993
871.81        86.71797
872.22        86.89497
872.62        85.54271
873.02        83.59229
873.42        82.67902
873.82        83.02625
874.22         83.8102
874.63        84.60548
875.03        84.65585
875.43        83.65545
875.83        83.00349
876.23        81.02266
876.63        80.05457
877.03        79.95049
877.44        80.89725
877.84         105.062
878.24        88.41432
878.64         89.2394
879.04        89.81531
879.44        85.53876
879.84        83.45061
880.24        87.91451
880.64        90.07322
881.04         90.7823
881.44        90.82001
881.84        89.72334
882.24        87.80366
882.65        86.07072
883.05        85.39087
883.45        85.89941
883.85        87.62435
884.25        89.93839
884.65        91.40348
885.05        91.54573
885.45         90.8176
885.85        89.78718
886.25        89.24919
886.65        89.40107
887.05        89.94501
887.45        90.67567
887.85        91.25498
888.25        91.52815
888.65        91.65755
889.04        91.62363
889.44        91.41164
889.84        91.04513
890.24        90.49995
890.64        89.98412
891.04         89.8356
891.44        90.10114
891.84        90.71557
892.24        91.37404
892.64        91.50956
893.04        91.03421
893.44        90.19667
893.83        89.37626
894.23        89.12701
894.63        89.53463
895.03         90.3588
895.43        91.44182
895.83        92.47729
896.23        93.27061
896.63        93.91973
897.02        94.15171
897.42        93.54617
897.82        92.15621
898.22        90.17973
898.62        88.29871
899.01        87.51099
899.41        88.00053
899.81        89.40714
900.21        91.15101
900.61        92.26514
901.00        92.45612
901.40        92.03531
901.80        91.28326
902.20          90.646
902.59        90.29252
902.99        90.05645
903.39          89.953
903.79        90.02534
904.18        90.25843
904.58        90.72429
904.98        91.28182
905.38        91.68819
905.77        91.86707
906.17        91.83494
906.57        91.74553
906.96         91.9015
907.36        92.27867
907.76        92.79538
908.15        93.19508
908.55        92.94783
908.95        92.02292
909.34        90.58777
909.74        89.10938
910.14        88.12845
910.53        87.83207
910.93        88.12355
911.33        88.82445
911.72        89.60723
912.12        90.22116
912.52        90.67205
912.91        91.04875
913.31         91.4856
913.70        92.06679
914.10        92.76226
914.49        93.27852
914.89        92.90614
915.29        91.56179
915.68        89.56402
916.08        87.87737
916.47         87.3642
916.87        88.06709
917.26        89.68002
917.66        91.43097
918.05        92.07053
918.45        91.27315
918.84        89.50921
919.24        87.51732
919.64        86.35043
920.03        86.32807
920.42        87.12475
920.82        88.41023
921.21         89.7515
921.61        90.73652
922.00        91.47977
922.40        91.85237
922.79        91.71944
923.19        91.18159
923.58        90.16328
923.98         88.7439
924.37        87.62339
924.77        87.30439
925.16        85.05803
925.55        86.01539
925.95         86.6017
926.34        88.29166
926.74        90.58895
927.13        92.87952
927.52        93.84643
927.92        93.30836
928.31        91.70788
928.70        89.57288
929.10        87.83814
929.49        86.77458
929.89         86.1207
930.28        86.07877
930.67        86.98629
931.07        88.65339
931.46        91.05825
931.85        93.21909
932.24        93.64409
932.64        92.08629
933.03        88.78954
933.42        84.74468
933.82        82.16834
934.21        81.73551
934.60        82.84809
934.99        84.40656
935.39        85.24541
935.78         85.1708
936.17        84.07196
936.56         81.8925
936.96        82.81319
937.35        81.84137
937.74        82.81594
938.13        83.78521
938.53        84.82806
938.92        85.98817
939.31        87.44697
939.70        88.87366
940.09        89.19403
940.49        88.15253
940.88        86.23487
941.27         84.2819
941.66        83.28718
942.05        83.36487
942.44        84.16853
942.84         85.4084
943.23        86.64184
943.62        87.54088
944.01        88.21651
944.40         88.4901
944.79         88.0766
945.18        86.92329
945.57        84.97774
945.97        82.62682
946.36        80.97799
946.75        80.60249
947.14        81.19295
947.53        82.18025
947.92        82.93935
948.31        83.38541
948.70        83.72707
949.09        84.01675
949.48        84.30888
949.87        84.59093
950.26        84.71246
950.65        84.73254
951.04        84.82079
951.43         84.9867
951.82        85.19997
952.21        85.21835
952.60        84.65894
952.99        83.48091
953.38        81.83337
953.77         80.1301
954.16        78.93719
954.55        78.40217
954.94         78.4912
955.33        78.76767
955.72        78.47656
956.11        77.47447
956.50         75.9272
956.89        74.67299
957.28        75.21333
957.66        77.89663
958.05         81.9277
958.44        85.94897
958.83        87.98969
959.22        87.60542
959.61        85.33212
960.00         82.1862
960.39        79.85372
960.78        78.89728
961.16        78.94408
961.55        79.36336
961.94         79.0489
962.33        77.75961
962.72        76.00629
963.11        74.47924
963.49        74.03218
963.88        74.79364
964.27        76.50677
964.66        78.55627
965.04        79.66157
965.43         79.2416
965.82        77.77158
966.21          76.064
966.60        75.16082
966.98        75.27837
967.37        76.06984
967.76        77.11363
968.15        77.60214
968.53        77.27692
968.92        76.40118
969.31        75.41982
969.69        74.87583
970.08        74.89144
970.47        75.32013
970.86        75.81361
971.24        75.78536
971.63        75.07061
972.02         73.8149
972.40        72.57491
972.79        72.32423
973.17        73.43639
973.56        75.57504
973.95        77.97436
974.33        79.15154
974.72        78.58894
975.11         76.7551
975.49        74.64942
975.88        73.63689
976.26        73.92125
976.65        75.21088
977.04        76.64787
977.42        76.25094
977.81        73.48625
978.19        69.29076
978.58        65.65865
978.96        64.55079
979.35        66.23109
979.74        70.27686
980.12        75.78336
980.51        79.51144
980.89        80.33152
981.28        79.03274
981.66        76.88321
982.05        75.54395
982.43         75.3501
982.82        75.66879
983.20        76.43742
983.59        77.69241
983.97        79.42657
984.35        81.80222
984.74        84.07986
985.12        84.79597
985.51        83.12262
985.89        79.33749
986.28        74.64064
986.66        70.98482
987.04        69.28225
987.43        69.13519
987.81        69.69724
988.20        69.86147
988.58        69.27769
988.96        67.90169
989.35        66.30268
989.73        66.74285
990.12        70.13586
990.50         75.0983
990.88        78.60757
991.27        78.60039
991.65        75.60657
992.03        70.34109
992.42        64.74969
992.80        62.30403
993.18        64.04133
993.56        68.01109
993.95        72.45564
994.33         75.9816
994.71        78.12225
995.10        79.60667
995.48        80.25999
995.86        79.55959
996.24        77.48035
996.63         73.8204
997.01        69.52147
997.39         67.6449
997.77        69.51813
998.15        74.42972
998.54        79.85577
998.92        82.42947
999.30        81.07531
999.68        76.79317
1000.06         70.6246
1000.45        65.34378
1000.83        62.33369
1001.21        60.79724
1001.59         60.7268
1001.97        62.19721
1002.35         65.0299
1002.73        69.88769
1003.12        75.20985
1003.50        75.93344
1003.88        70.12142
1004.26        60.42177
1004.64        51.49331
1005.02        47.21112
1005.40        47.81788
1005.78        52.98259
1006.16        63.52209
1006.54        74.70368
1006.92        79.58911
1007.30        79.43623
1007.69        77.37567
1008.07        75.77684
1008.45         74.6568
1008.83        72.53928
1009.21         66.6094
1009.59        47.77058
1009.97       -1.896897
1010.35       -64.23206
1010.73       -47.88818
1011.11       -8.270422
1011.49        18.15661
1011.86        37.06869
1012.24        47.81621
1012.62        52.96432
1013.00        55.01849
1013.38        54.81518
1013.76         54.4413
1014.14        59.93475
1014.52        75.86931
1014.90        103.6166
1015.28        135.2782
1015.66        149.5527
1016.04         134.177
1016.41        93.79629
1016.79        51.04506
1017.17        29.69319
1017.55        27.81433
1017.93        33.46503
1018.31        40.64735
1018.69        46.59608
1019.06        51.64555
1019.44        57.22194
1019.82        64.83568
1020.20        74.71658
1020.58        86.24274
1020.95        98.48642
1021.33        104.6628
1021.71        148.1732
1022.09        119.7532
1022.46        122.1903
1022.84        125.4873
1023.22        132.0216
1023.60        149.2052
1023.97        313.5652
1024.35        36.36255
1024.73         68.1942
