SpectraSmart Spectrum 2.9.0.0
--------- Device Information -----------
Spectrum Name :  反射率_0
Saving Time :  2024/04/26 00:32:45
Spectro-Module Model Name : SE2030-DUVN
Spectro-Module Serial Number : OS361AC55029948
Wavelength Start : 200
Wavelength End : 1025
Wavelength Unit : Wavelength(nm)
Spectrum Unit : Reflectance(%)
-----------Spectrum Setting ------------
Integration Time : 20ms
Average : 10
Boxcar : 0
Background removal :  enabled
linearity correction :  enabled
SC :  disabled
Intensity correction :  disabled
DWT denoise :  enabled
savitzky-golay :  disabled
FFT :  disabled
Running average :  disabled
Kalman :  disabled
High pass :  disabled
---------------BEGIN--------------------
Wavelength(nm)             Reflectance(%)
200.29               0
200.75        101.1582
201.21        96.50914
201.67        90.07083
202.13        86.23323
202.58        85.75169
203.04        87.61413
203.50        90.36191
203.96        91.67644
204.42        91.06537
204.88        89.58636
205.34        88.51011
205.80        89.22767
206.26        92.57998
206.72        100.4275
207.18        116.0135
207.64        130.6319
208.10        123.2313
208.55        105.1947
209.01        93.31521
209.47         88.7459
209.93        88.27929
210.39        90.37037
210.85        92.80061
211.31        91.29167
211.77        85.01814
212.23        75.89354
212.69        67.98375
213.14        67.52243
213.60        75.26657
214.06        89.21659
214.52        104.8662
214.98        115.2628
215.44        118.4999
215.90        116.8792
216.36        112.7537
216.81        109.3102
217.27        108.0587
217.73         107.887
218.19        108.2913
218.65         108.856
219.11        109.2891
219.57        109.4415
220.02        109.7237
220.48        111.3009
220.94        113.8387
221.40        117.0328
221.86        117.3204
222.32        111.4045
222.77        101.0306
223.23        89.66655
223.69         81.5446
224.15        81.22413
224.61        87.81758
225.06        98.88968
225.52        110.4288
225.98        116.8873
226.44        117.2523
226.90        113.5463
227.36        108.8954
227.81        107.7018
228.27        111.0103
228.73        116.7356
229.19        122.5119
229.65         124.951
230.10        123.5784
230.56        120.5776
231.02        117.2207
231.48        114.8741
231.93        113.7263
232.39        113.2477
232.85        113.5093
233.31         114.896
233.77        117.2841
234.22        120.7081
234.68        123.9967
235.14        124.9036
235.60        122.8641
236.05        118.5657
236.51        113.6175
236.97        110.2575
237.43        108.9654
237.88        109.3797
238.34        110.6717
238.80        111.3823
239.26        110.6158
239.71        109.2173
240.17        106.9722
240.63        104.3088
241.08          101.73
241.54        99.05697
242.00        97.05305
242.46        96.69642
242.91        98.97155
243.37         105.992
243.83        127.8036
244.28        191.6862
244.74        247.8218
245.20        195.9516
245.66         159.154
246.11        151.2175
246.57        160.7859
247.03        198.4926
247.48        312.7632
247.94        264.8842
248.40        145.3952
248.85        107.4688
249.31        95.77344
249.77        93.95994
250.22        97.50067
250.68        106.1192
251.14        119.8462
251.59        130.8745
252.05        130.3724
252.51        121.3459
252.96        110.5278
253.42        105.2922
253.88        105.4486
254.33        108.1701
254.79        112.8788
255.25        118.1364
255.70        122.6952
256.16        127.2074
256.62         130.212
257.07         130.112
257.53        127.9702
257.99        124.1182
258.44        119.9845
258.90        118.4999
259.35        118.4944
259.81        119.2651
260.27        119.0094
260.72        115.9925
261.18        111.2839
261.63        105.4639
262.09        100.1545
262.55        96.21642
263.00        93.53262
263.46        91.86759
263.91        90.45771
264.37        89.14668
264.83        87.57059
265.28        85.71624
265.74        83.72466
266.19         81.3926
266.65        79.15347
267.11        77.07153
267.56         75.1883
268.02        73.63441
268.47        72.21815
268.93        70.92921
269.38        69.77133
269.84        68.95561
270.30        68.50415
270.75        68.36652
271.21        68.29153
271.66        67.88127
272.12        67.07019
272.57        65.93726
273.03        64.80977
273.48        64.06883
273.94        63.82872
274.39        63.85809
274.85        63.92655
275.31        63.61907
275.76        62.82881
276.22        61.77851
276.67        60.57449
277.13        59.55004
277.58        58.70549
278.04        58.02783
278.49         57.3998
278.95        56.81945
279.40        56.18689
279.86        55.61333
280.31        54.99935
280.77        54.38126
281.22        53.69482
281.68        52.99716
282.13        52.30664
282.59        51.77097
283.04        51.35482
283.50        51.07528
283.95        50.76843
284.41         50.2634
284.86        49.50803
285.32        48.59343
285.77        47.69132
286.22        47.15522
286.68         47.0177
287.13        47.12106
287.59        47.20529
288.04        46.82416
288.50        45.96256
288.95        44.75698
289.41        43.51362
289.86        42.53691
290.32        41.97417
290.77        41.66327
291.22        41.54539
291.68        41.48968
292.13        41.42904
292.59         41.4189
293.04        41.40288
293.50        41.30507
293.95        41.10831
294.40        40.80979
294.86        40.50838
295.31        40.36308
295.77        40.41396
296.22        40.62612
296.68        40.88135
297.13        40.95246
297.58        40.81283
298.04        40.55507
298.49        40.34364
298.95        40.47736
299.40          40.988
299.85        41.75903
300.31        42.59488
300.76        43.19863
301.21        43.47458
301.67        43.55104
302.12        43.47445
302.58        43.39504
303.03        43.33273
303.48        43.25797
303.94        43.25362
304.39        43.40302
304.84        43.71693
305.30        44.16883
305.75        44.58205
306.20        44.70175
306.66        44.51176
307.11         44.0745
307.57        43.60328
308.02        43.32031
308.47         43.3138
308.93        43.50978
309.38        43.78865
309.83        44.00363
310.29        44.09772
310.74        44.10014
311.19        44.05877
311.65        44.04058
312.10        44.05484
312.55        44.07835
313.00        44.04266
313.46        43.85602
313.91        43.50302
314.36        43.04163
314.82        42.60802
315.27        42.37851
315.72        42.39725
316.18        42.60309
316.63        42.87343
317.08        42.98033
317.53        42.85998
317.99        42.57029
318.44        42.23177
318.89        42.03955
319.35        42.03078
319.80        42.15219
320.25        42.27764
320.70        42.20654
321.16        41.89604
321.61        41.41785
322.06        40.90034
322.51        40.53558
322.97        40.35637
323.42        40.31532
323.87         40.3075
324.32        40.16202
324.78        39.83344
325.23        39.39485
325.68         38.9262
326.13        38.56203
326.59        38.33379
327.04        38.21686
327.49        38.16579
327.94        38.11448
328.39        38.03765
328.85        37.94811
329.30        37.88014
329.75        37.82814
330.20         37.8015
330.66        37.78086
331.11        37.80136
331.56        37.87114
332.01         37.9881
332.46        38.13185
332.92        38.28069
333.37        38.45316
333.82        38.61736
334.27          38.781
334.72        38.87994
335.17         38.8139
335.63        38.57577
336.08        38.21038
336.53        37.86021
336.98         37.7654
337.43        37.97185
337.88        38.40927
338.34        38.89132
338.79        39.16188
339.24        39.12058
339.69        38.84715
340.14        38.47604
340.59        38.24778
341.05         38.2328
341.50        38.35463
341.95        38.53406
342.40        38.65873
342.85        38.69758
343.30        38.70536
343.75        38.68213
344.20        38.62432
344.66        38.53955
345.11        38.38414
345.56         38.2306
346.01        38.19132
346.46        38.27448
346.91        38.46683
347.36        38.60709
347.81        38.43592
348.26        37.93548
348.72        37.22634
349.17        36.54009
349.62        36.33041
350.07         36.6877
350.52        37.44308
350.97        38.33001
351.42        38.94213
351.87        39.16139
352.32        39.10733
352.77        38.86816
353.22        38.59172
353.67        38.34178
354.13        38.06895
354.58        37.79867
355.03         37.6208
355.48         37.5438
355.93        37.57053
356.38        37.60332
356.83        37.46624
357.28         37.1299
357.73        36.64909
358.18        36.14783
358.63          35.826
359.08        35.72789
359.53        35.78629
359.98        35.89255
360.43        35.87831
360.88        35.69675
361.33        35.39842
361.78        35.05361
362.23        34.77545
362.68        34.59674
363.13        34.47799
363.58        34.36929
364.03        34.19666
364.48        33.94374
364.93        33.64354
365.38        33.33669
365.83        33.08281
366.28        32.89688
366.73        32.75272
367.18        32.62873
367.63         32.4934
368.08         32.3347
368.53        32.16783
368.98        31.98629
369.43        31.77394
369.88        31.53639
370.33        31.28461
370.78        31.04923
371.23        30.88445
371.68        30.80297
372.13        30.78153
372.58        30.80744
373.03          30.856
373.48        30.90528
373.93         30.9568
374.38        30.96478
374.83        30.86117
375.28        30.64079
375.72        30.31387
376.17        29.97754
376.62        29.75453
377.07        29.67561
377.52        29.70013
377.97        29.76331
378.42        29.75615
378.87         29.6496
379.32        29.48768
379.77        29.29419
380.22        29.09969
380.67        28.91717
381.11        28.73134
381.56        28.56323
382.01        28.45924
382.46        28.42447
382.91        28.44914
383.36        28.47815
383.81        28.41988
384.26        28.25776
384.71         28.0214
385.15        27.76469
385.60         27.5901
386.05        27.50456
386.50        27.47322
386.95        27.45733
387.40        27.39289
387.85        27.27378
388.29        27.13048
388.74        27.00275
389.19        26.87691
389.64        26.75482
390.09        26.61679
390.54        26.51887
390.98        26.55475
391.43        26.73408
391.88        27.01081
392.33        27.24732
392.78        27.24133
393.23        26.98175
393.67        26.53893
394.12         26.1051
394.57        25.86161
395.02        25.84757
395.47        25.99642
395.91        26.23172
396.36        26.37767
396.81        26.38381
397.26        26.29092
397.71        26.14494
398.15        25.98921
398.60        25.87812
399.05        25.79512
399.50         25.7182
399.95        25.54694
400.39        25.39113
400.84        25.19122
401.29        25.02966
401.74        24.99958
402.18         25.1304
402.63        25.35839
403.08        25.62613
403.53        25.83742
403.97        25.95735
404.42        26.00817
404.87        25.98164
405.32        25.87005
405.76        25.68676
406.21        25.45387
406.66        25.23228
407.11        25.11632
407.55        25.12765
408.00        25.23511
408.45        25.38308
408.90        25.44649
409.34        25.38615
409.79        25.24646
410.24        25.09116
410.68        25.00761
411.13        25.02303
411.58        25.10637
412.03        25.22773
412.47         25.3421
412.92        25.41098
413.37         25.4515
413.81        25.47439
414.26        25.51697
414.71        25.57413
415.15        25.63104
415.60         25.6508
416.05        25.59657
416.49        25.46563
416.94        25.28975
417.39        25.09448
417.83        24.92055
418.28         24.7973
418.73        24.70925
419.17        24.68306
419.62         24.7555
420.07        24.91686
420.51        25.15111
420.96        25.37161
421.41         25.4317
421.85        25.29443
422.30        25.03673
422.74         24.7413
423.19        24.57971
423.64         24.5671
424.08        24.66854
424.53        24.81022
424.98        24.90914
425.42        24.94399
425.87        24.92391
426.31        24.87192
426.76        24.88907
427.21        24.95536
427.65        24.87758
428.10         24.7489
428.54        24.89703
428.99        25.33908
429.44        25.88601
429.88        26.31243
430.33        26.45346
430.77        26.21755
431.22        25.49156
431.66        24.60381
432.11        24.33837
432.56        24.74796
433.00        25.34682
433.45        25.86418
433.89        26.37139
434.34        26.58694
434.78        26.09998
435.23        24.97775
435.67         24.7985
436.12        25.48502
436.57        25.85198
437.01        25.77517
437.46        25.72997
437.90        25.74938
438.35        25.71046
438.79        25.61686
439.24        25.53279
439.68        25.48882
440.13        25.36835
440.57        25.25429
441.02        25.62152
441.46        26.27717
441.91        26.27182
442.35        25.69577
442.80        25.46504
443.24        25.54661
443.69        25.57775
444.13        25.49208
444.58        25.18075
445.02        24.76944
445.47        24.78697
445.91        25.14943
446.36        25.26375
446.80        25.08458
447.24        24.95507
447.69        24.92278
448.13        24.89778
448.58        24.89591
449.02        24.93358
449.47         24.9792
449.91        24.98155
450.36         24.9352
450.80        24.85025
451.25        24.77048
451.69        24.74843
452.13        24.79834
452.58        24.89021
453.02        24.99196
453.47        25.05919
453.91         25.0807
454.36        25.07935
454.80        25.05396
455.24        24.99668
455.69        24.92688
456.13        24.83479
456.58         24.7871
457.02        24.84663
457.46        25.02738
457.91        25.29505
458.35        25.56371
458.79        25.69777
459.24        25.67997
459.68        25.53587
460.13        25.35741
460.57        25.23423
461.01        25.21702
461.46        25.27508
461.90        25.36939
462.34        25.43961
462.79        25.45737
463.23        25.43046
463.68        25.40631
464.12        25.47274
464.56         25.6389
465.01        25.89678
465.45        26.08918
465.89         26.0855
466.34        25.89084
466.78        25.40886
467.22        24.87999
467.67        24.94019
468.11        25.52312
468.55        25.85726
468.99         25.8225
469.44        25.75051
469.88        25.71617
470.32        25.82546
470.77        26.02121
471.21        26.01968
471.65        25.80698
472.10        25.62353
472.54         25.5323
472.98        25.53994
473.42        25.66214
473.87        25.90472
474.31        26.17598
474.75        26.32973
475.20        26.34021
475.64        26.23458
476.08        26.09534
476.52        26.05012
476.97        26.13177
477.41         26.3044
477.85        26.49222
478.29        26.62417
478.74        26.68141
479.18        26.56078
479.62         26.3395
480.06        26.57856
480.50        26.74747
480.95        26.90633
481.39        26.84417
481.83        26.79429
482.27        26.75562
482.72        26.49616
483.16          26.143
483.60        26.23406
484.04        26.78309
484.48        27.03423
484.93        27.27428
485.37        27.77736
485.81        28.52787
486.25        28.49322
486.69        38.05606
487.14        30.49383
487.58        19.72298
488.02        24.03695
488.46        27.15854
488.90        27.12757
489.34        27.50101
489.79        27.29769
490.23         28.5752
490.67        29.24559
491.11        29.02563
491.55        28.94739
491.99        28.91565
492.43        28.73281
492.88        28.48705
493.32        28.49912
493.76        28.56798
494.20        28.77116
494.64        29.01488
495.08        29.28652
495.52        29.58433
495.96        29.90865
496.41        30.16712
496.85        30.40161
497.29        30.56363
497.73        30.07789
498.17        29.39752
498.61        29.71203
499.05        30.97717
499.49        31.27841
499.93        31.30049
500.37        31.29019
500.82        31.22451
501.26        31.45748
501.70        31.84996
502.14        32.09834
502.58        32.13643
503.02        32.18874
503.46        32.25315
503.90         32.1734
504.34        32.00877
504.78        31.93687
505.22        31.98646
505.66        32.11247
506.10        32.26295
506.54        32.34932
506.98        32.34938
507.42        32.29833
507.86        32.25171
508.30        32.29125
508.74        32.43156
509.18         32.6359
509.62        32.85574
510.06        33.01455
510.50        33.08981
510.94        33.11262
511.38        33.09887
511.82        33.07144
512.26        33.04645
512.70        33.01464
513.14        33.00704
513.58        33.07664
514.02        33.21917
514.46        33.41089
514.90        33.59575
515.34        33.65334
515.78        33.53901
516.22        33.42226
516.66        33.35729
517.10        33.05448
517.54         32.5337
517.98        33.14789
518.42        32.92986
518.86         33.2078
519.30        33.37646
519.74        33.61479
520.18        33.84382
520.62        33.90984
521.06        33.81322
521.50        33.58434
521.93        33.31367
522.37        33.15925
522.81        33.16311
523.25        33.27678
523.69        33.44717
524.13        33.59107
524.57        33.67648
525.01         33.7262
525.45        33.73793
525.89        33.70732
526.32        33.63538
526.76        33.52004
527.20        33.37808
527.64        33.25103
528.08        33.15825
528.52        33.06683
528.96        32.95911
529.40        32.89453
529.83        32.88821
530.27        32.59259
530.71        32.65825
531.15        32.57492
531.59         32.5393
532.03        32.52544
532.46         32.5565
532.90        32.66278
533.34        32.82664
533.78        33.02744
534.22        33.20112
534.66        33.25716
535.09        33.17426
535.53        32.99659
535.97        32.76986
536.41        32.57692
536.85        32.45221
537.28        32.38191
537.72        32.36237
538.16        32.38846
538.60        32.45126
539.04        32.52425
539.47        32.59966
539.91        32.74916
540.35        32.93153
540.79        33.01134
541.22        32.99178
541.66        33.01375
542.10        33.08382
542.54        33.11442
542.97         33.1409
543.41        33.27288
543.85        33.51352
544.29        33.84647
544.72         34.1736
545.16        34.35459
545.60        34.36157
546.04        34.23042
546.47        34.10249
546.91        34.21637
547.35         34.6002
547.79        35.18269
548.22        35.76701
548.66        36.02094
549.10        35.89913
549.53        35.56564
549.97        35.21941
550.41        35.06998
550.84        35.17275
551.28         35.5328
551.72        36.06775
552.15        36.42112
552.59        36.48391
553.03        37.09383
553.46        36.92155
553.90        37.10416
554.34        37.26936
554.77        37.38868
555.21        37.44849
555.65        37.57618
556.08        37.80659
556.52        37.63536
556.96        37.95141
557.39         38.0511
557.83        38.20438
558.27        38.37143
558.70        38.54632
559.14         38.7012
559.57        38.81182
560.01        38.90456
560.45        38.95853
560.88        38.94145
561.32        38.88406
561.75        38.77796
562.19         38.6936
562.63        38.68532
563.06        38.75875
563.50        38.90705
563.93        39.08323
564.37        39.23297
564.80        39.32592
565.24        39.39189
565.68        39.44406
566.11        39.50769
566.55        39.61823
566.98        39.75664
567.42        39.93054
567.85        40.14373
568.29        40.41637
568.72        40.63344
569.16        40.86622
569.60        41.29247
570.03        41.72256
570.47        41.80987
570.90        41.73448
571.34        40.97021
571.77        41.76638
572.21        41.79854
572.64        41.77861
573.08        41.37789
573.51         39.9115
573.95        41.66371
574.38        44.29741
574.82        43.35078
575.25         43.0657
575.69        41.52703
576.12        40.74791
576.56        40.55373
576.99        41.66933
577.42         43.5107
577.86        43.50817
578.29        43.22423
578.73        45.48687
579.16        41.86841
579.60        38.30965
580.03         39.9878
580.47        42.49232
580.90        43.29189
581.33        42.50314
581.77        41.76912
582.20        45.86515
582.64        45.69055
583.07        38.94457
583.51         38.0868
583.94        37.16018
584.37        38.68318
584.81        40.65244
585.24        42.69643
585.68        43.48716
586.11        42.74593
586.54          39.769
586.98        38.53927
587.41        38.80113
587.85        40.69939
588.28        42.03141
588.71        40.01813
589.15        38.78338
589.58        39.23835
590.01        39.74396
590.45        40.26401
590.88        40.62232
591.31        40.17237
591.75        39.97453
592.18         40.1071
592.61        41.05671
593.05        41.66475
593.48        43.40536
593.91        43.77193
594.35        40.26987
594.78        39.54978
595.21        39.46589
595.65        41.27976
596.08        42.88969
596.51        41.05326
596.94         40.3772
597.38        41.01738
597.81        42.92185
598.24        43.93916
598.68        43.53943
599.11        43.14833
599.54         45.3666
599.97        46.48369
600.41        43.70711
600.84        44.16081
601.27        45.53844
601.70        45.08099
602.14        45.61889
602.57        45.31275
603.00        46.02593
603.43        47.52492
603.87         49.1642
604.30         49.2561
604.73        48.06345
605.16        47.72718
605.60        48.67231
606.03        50.01736
606.46        51.27175
606.89        51.49308
607.32         50.5832
607.76        50.63092
608.19        52.88837
608.62         52.5129
609.05        51.92464
609.48        52.65231
609.92        52.95253
610.35        53.06253
610.78        55.17958
611.21         55.8852
611.64        53.88726
612.07        54.74721
612.50        55.35867
612.94        56.03402
613.37        55.94123
613.80        56.38053
614.23        57.13928
614.66        57.33208
615.09        57.73097
615.52        57.97704
615.96        58.18417
616.39        58.55895
616.82        58.13131
617.25        58.10492
617.68        59.19955
618.11         59.9589
618.54        60.44183
618.97        60.16098
619.40        59.50144
619.84        59.72188
620.27         60.7558
620.70        61.67084
621.13        62.19566
621.56        61.67084
621.99        60.47496
622.42        61.23262
622.85        63.54535
623.28        63.14558
623.71        62.93858
624.14        62.86533
624.57        62.15033
625.00        62.02507
625.43        62.07554
625.86        61.53848
626.29        61.55098
626.72        61.92479
627.15        61.62807
627.58        61.70049
628.01        61.67957
628.44        61.68454
628.87        61.74703
629.30        61.15836
629.73        61.27471
630.16        61.01843
630.59        60.47854
631.02         59.9478
631.45         59.3912
631.88        58.87126
632.31        58.39269
632.74         57.9513
633.17        57.53774
633.60        57.13487
634.03        56.73683
634.46        56.35046
634.89        55.96355
635.32         55.5555
635.75        55.12357
636.18        54.67125
636.61        54.21581
637.04        53.78444
637.47        53.37906
637.89        52.99558
638.32         52.6045
638.75        52.19689
639.18        51.77649
639.61        51.36089
640.04        50.95885
640.47        50.57599
640.90        50.21852
641.33        49.88186
641.76        49.56824
642.18        49.35459
642.61        49.24554
643.04        49.10985
643.47        48.89655
643.90         49.1566
644.33        48.86635
644.76        48.85878
645.18        48.83934
645.61        48.83883
646.04        48.85237
646.47        48.86845
646.90        48.94699
647.33        49.14528
647.75        49.48913
648.18        49.99918
648.61        50.52417
649.04        50.83171
649.47        50.89346
649.89        50.65541
650.32        50.44723
650.75        50.95092
651.18        52.11979
651.61        53.31281
652.03        54.19427
652.46         54.6277
652.89        54.91336
653.32        54.89903
653.74        54.95041
654.17        56.67785
654.60        57.95159
655.03         56.6027
655.46        57.96367
655.88        61.91716
656.31        66.58849
656.74        152.6342
657.16        99.72479
657.59        35.38798
658.02        26.78144
658.45        46.52113
658.87        59.93929
659.30        63.35926
659.73        62.86641
660.15         61.1871
660.58        63.62219
661.01        65.75201
661.44         64.3199
661.86        63.97382
662.29        64.06506
662.72        65.01173
663.14         66.6366
663.57        67.03587
664.00        66.36336
664.42        66.44941
664.85        67.36741
665.27        67.94218
665.70        68.02052
666.13        68.03589
666.55        67.99493
666.98         67.7812
667.41        67.55031
667.83        67.60283
668.26        67.99719
668.69        68.60899
669.11        69.22598
669.54        69.83772
669.96        69.71809
670.39         69.5089
670.82        69.20193
671.24        69.09222
671.67        69.30486
672.09        69.80439
672.52        70.34154
672.94        70.95227
673.37        70.42616
673.80         70.4404
674.22        70.69056
674.65        70.87005
675.07          70.943
675.50         70.9744
675.92        71.04362
676.35        71.20206
676.77        71.44464
677.20        72.09538
677.62        72.31643
678.05        72.63826
678.47        72.78507
678.90        72.81665
679.32        72.80031
679.75        72.70472
680.17        72.85249
680.60        73.03955
681.02        73.25942
681.45        73.20965
681.87        72.94069
682.30        72.79268
682.72        72.86004
683.15        73.04726
683.57        73.38432
684.00        73.89172
684.42        74.55478
684.85         74.9215
685.27        74.95988
685.70         74.7786
686.12        74.51234
686.54        74.42911
686.97        74.58273
687.39        74.90967
687.82        75.28557
688.24        75.56424
688.66        75.67503
689.09        75.66238
689.51        75.62566
689.94        75.72153
690.36        75.98011
690.78        76.27412
691.21        76.53597
691.63        76.74724
692.06        76.87663
692.48        76.88272
692.90        76.83437
693.33        76.88985
693.75        77.06939
694.17        77.30129
694.60        77.56951
695.02        77.80288
695.44         77.9279
695.87        78.27876
696.29        78.78136
696.71        78.38456
697.14        77.44511
697.56        78.04741
697.98        79.83189
698.41        79.85446
698.83        78.90704
699.25        78.35654
699.68        78.56456
700.10        78.64039
700.52        78.60669
700.94        78.92426
701.37        79.47142
701.79        79.92567
702.21        80.17933
702.64        80.32195
703.06        80.35009
703.48        80.26498
703.90        80.10622
704.33        79.84245
704.75         79.6068
705.17        79.56117
705.59        79.77358
706.01        80.05843
706.44        80.31953
706.86        81.06567
707.28        81.16386
707.70         81.5415
708.12        81.83204
708.55         81.8168
708.97         81.5574
709.39        81.46828
709.81        81.60564
710.23        81.69139
710.66        81.73304
711.08        81.97213
711.50         82.2849
711.92        82.37769
712.34         82.2149
712.76         81.8709
713.19        81.52921
713.61        81.52103
714.03        81.89703
714.45        82.55436
714.87        83.23712
715.29         83.5431
715.71        83.38419
716.13        82.88407
716.56         82.2936
716.98        82.05608
717.40        82.27496
717.82        82.81624
718.24        83.45557
718.66        83.81389
719.08        83.78605
719.50        83.49748
719.92        83.10964
720.34        82.89555
720.76        82.93752
721.19         83.0116
721.61        83.30461
722.03        83.53803
722.45        83.73851
722.87        83.93277
723.29        84.12411
723.71        84.29939
724.13          84.449
724.55        84.57562
724.97        84.67844
725.39        84.72646
725.81        84.71486
726.23        84.82521
726.65        84.77111
727.07        84.82719
727.49        84.91576
727.91        85.05464
728.33        85.21222
728.75        85.33881
729.17        85.42106
729.59        85.44979
730.01        85.49058
730.43        85.66805
730.85        86.00406
731.27         86.4394
731.69        86.80185
732.10        87.07194
732.52        86.75535
732.94        86.33507
733.36        85.92504
733.78        85.81369
734.20        86.07767
734.62        86.82639
735.04         88.0201
735.46        88.02539
735.88        87.20018
736.30        87.37574
736.72        88.81516
737.13        89.29111
737.55        88.62529
737.97        88.50294
738.39        88.94712
738.81        88.09531
739.23         86.5277
739.65        87.59726
740.06        90.65118
740.48        91.10954
740.90        89.05355
741.32        88.12234
741.74        88.65491
742.16         88.9239
742.57        89.00007
742.99        89.83067
743.41        91.16443
743.83         92.0555
744.25        92.33012
744.67         92.2226
745.08        91.94875
745.50        91.86008
745.92        92.07466
746.34        92.45075
746.75        92.86554
747.17        93.10374
747.59        93.14452
748.01        93.12176
748.42        93.16174
748.84        93.40376
749.26        93.96236
749.68        94.71136
750.09        95.51498
750.51         96.5625
750.93        97.47589
751.35        96.97626
751.76        95.47079
752.18        94.96067
752.60         95.4961
753.01        95.76773
753.43        95.71973
753.85         95.9485
754.27        96.40601
754.68        97.51818
755.10        97.86829
755.52        98.43815
755.93        98.77312
756.35        98.84344
756.77        98.77566
757.18        98.74345
757.60        98.87529
758.02        99.31335
758.43        99.58315
758.85        99.40759
759.26        98.08593
759.68        96.89484
760.10        98.96931
760.51        100.5924
760.93        99.94145
761.34        98.08794
761.76        97.73974
762.18        96.70896
762.59        96.27912
763.01        96.65718
763.42        98.25247
763.84        99.61387
764.26         100.504
764.67        100.7069
765.09        100.2826
765.50        100.0856
765.92        99.98022
766.33        98.35523
766.75        95.90311
767.16        95.16724
767.58        96.37535
768.00        98.26865
768.41        100.3873
768.83        102.3136
769.24        103.2773
769.66        102.5379
770.07        100.7145
770.49        98.69643
770.90          97.105
771.32        98.06768
771.73        100.7758
772.15        100.1659
772.56        96.83057
772.97        96.33837
773.39        98.52101
773.80        99.35075
774.22         98.5525
774.63        98.09306
775.05        98.83926
775.46        99.08823
775.88        99.00578
776.29        98.85411
776.70        98.70601
777.12        98.70639
777.53        98.89066
777.95        99.13001
778.36        99.31841
778.77        99.26625
779.19        99.00254
779.60        98.60295
780.02         98.1995
780.43        98.19851
780.84        98.78102
781.26        98.94072
781.67        98.77154
782.09        100.5372
782.50        103.4288
782.91        101.5662
783.33        98.46822
783.74        97.18787
784.15         98.7029
784.57        99.80735
784.98        100.0863
785.39        99.87562
785.81        99.81727
786.22        99.27164
786.63        98.74496
787.04        98.65321
787.46         99.1536
787.87        100.0937
788.28        100.9951
788.70        102.4587
789.11        101.6093
789.52        101.0663
789.93         100.348
790.35        99.83749
790.76        99.68361
791.17        99.92984
791.58        100.4661
792.00        100.9188
792.41        101.0739
792.82        100.9837
793.23        100.7762
793.65        100.0892
794.06        99.50479
794.47        100.9708
794.88        103.3403
795.29        104.3191
795.71        100.3919
796.12        98.18132
796.53        97.27258
796.94        96.36751
797.35        95.82523
797.76          97.351
798.18          100.19
798.59        101.7177
799.00        101.3881
799.41        100.1815
799.82        98.74419
800.23        97.88315
800.64        97.87128
801.06        98.34484
801.47        99.10236
801.88        99.69285
802.29        99.93709
802.70         100.001
803.11        99.94506
803.52        99.84245
803.93        99.76276
804.34        99.63402
804.75        99.52461
805.17        99.72079
805.58        100.3138
805.99        100.7395
806.40        100.8827
806.81        101.7521
807.22        102.7094
807.63        101.1187
808.04        97.82351
808.45        96.45369
808.86        97.32452
809.27        98.61398
809.68        99.75818
810.09        100.5073
810.50        100.5748
810.91        100.0827
811.32        99.32479
811.73        98.77717
812.14        98.58882
812.55         98.5544
812.96        98.71601
813.37        99.14016
813.78        99.77021
814.19        100.6525
814.60        101.3651
815.01        101.2399
815.42        100.1999
815.83        98.39294
816.24        96.51694
816.65        95.81143
817.05        96.63998
817.46        98.61134
817.87        100.8914
818.28        101.9842
818.69         101.479
819.10        99.76386
819.51        97.70374
819.92        96.83325
820.33        97.56097
820.74        99.19995
821.14        100.9779
821.55        102.0572
821.96        101.8821
822.37        99.78682
822.78         96.7511
823.19        95.20686
823.60        95.54585
824.00        96.79246
824.41        98.22505
824.82        99.08652
825.23        98.99326
825.64         98.2423
826.04        97.29423
826.45        96.82682
826.86        97.00351
827.27        97.54705
827.68        98.23403
828.08        98.75687
828.49        98.90217
828.90        98.87798
829.31        98.66257
829.72        98.19759
830.12        97.57483
830.53        96.80102
830.94        96.19237
831.35        96.18542
831.75        96.88782
832.16         98.1227
832.57        99.57975
832.97        100.5879
833.38        100.8209
833.79        100.4617
834.20        99.83141
834.60        99.43664
835.01        99.44944
835.42        99.71018
835.82        100.0261
836.23        99.97868
836.64        99.52259
837.04        98.83624
837.45        98.17313
837.86        97.92062
838.26        98.17934
838.67        98.75944
839.08         99.4631
839.48        99.93237
839.89        99.98827
840.29        99.75543
840.70         99.3189
841.11        98.77596
841.51        98.19958
841.92         97.5507
842.33        96.93861
842.73        96.56493
843.14        96.42856
843.54        96.53016
843.95        96.70168
844.35        96.72818
844.76        96.53016
845.17        96.19164
845.57        95.78282
845.98        95.43391
846.38        95.19009
846.79        94.97587
847.19         94.8541
847.60        94.82328
848.00        94.91994
848.41         95.1114
848.81        95.34304
849.22        95.45309
849.62        95.47594
850.03        95.45859
850.43        95.51982
850.84        95.73242
851.24        96.18486
851.65        96.60759
852.05        97.18254
852.46        98.00301
852.86        99.02834
853.27        100.2526
853.67        100.9899
854.07        100.3349
854.48        98.32452
854.88        95.28621
855.29        92.34303
855.69        91.12032
856.10        91.94171
856.50        94.61349
856.90        98.14556
857.31        100.2397
857.71        100.1563
858.12        98.48804
858.52        96.31919
858.92        95.13111
859.33        95.23953
859.73        96.25549
860.13        97.81229
860.54        99.12938
860.94         99.9587
861.34        100.4656
861.75        100.7579
862.15        101.1062
862.55        101.5359
862.96        101.8653
863.36        102.0582
863.76        102.0211
864.17        101.7539
864.57        101.4115
864.97        101.0403
865.38        100.6632
865.78        100.3633
866.18        100.0711
866.58         99.9304
866.99        100.1534
867.39        100.8479
867.79        101.9878
868.19        103.1523
868.60         103.533
869.00         102.967
869.40        101.6359
869.80        100.3516
870.21        100.4065
870.61         102.169
871.01        105.2158
871.41        108.5558
871.81        110.5057
872.22        110.5531
872.62        109.2054
873.02        107.4087
873.42        106.5507
873.82        107.0704
874.22        108.8655
874.63        111.1132
875.03        112.0349
875.43        110.9726
875.83         108.285
876.23        106.6747
876.63        106.8914
877.03        109.7993
877.44        115.9302
877.84         92.3723
878.24         125.268
878.64         123.055
879.04        116.2523
879.44        116.4698
879.84        116.4583
880.24        113.3484
880.64        114.4446
881.04        118.6101
881.44        121.0531
881.84         119.894
882.24        116.5064
882.65        112.9343
883.05         111.838
883.45        113.6378
883.85        117.4214
884.25        121.7673
884.65        124.2423
885.05        123.9902
885.45        121.9058
885.85        119.2467
886.25        117.6972
886.65        117.6638
887.05        118.5522
887.45        119.9462
887.85        121.1281
888.25        121.7643
888.65        122.1811
889.04        122.2714
889.44        121.8747
889.84        121.0278
890.24        119.7034
890.64        118.4129
891.04        117.9853
891.44         118.549
891.84        119.9366
892.24        121.4608
892.64        121.8472
893.04        120.8795
893.44        119.1037
893.83        117.3546
894.23        116.8688
894.63        117.8556
895.03        119.8394
895.43        122.4272
895.83        124.8657
896.23        126.7069
896.63        128.1201
897.02        128.7506
897.42        128.0509
897.82        126.1316
898.22        123.2553
898.62         120.345
899.01        118.7564
899.41        118.8058
899.81         120.064
900.21        121.9182
900.61        123.3071
901.00        123.8651
901.40        123.9253
901.80         123.648
902.20        123.3044
902.59        123.0259
902.99        122.6334
903.39        122.2492
903.79         122.129
904.18        122.3122
904.58        122.8019
904.98         123.354
905.38        123.5536
905.77        123.2919
906.17        122.7047
906.57         122.035
906.96        121.7016
907.36        121.7462
907.76        122.0571
908.15        122.3662
908.55        122.1254
908.95        121.2733
909.34        119.9348
909.74        118.5934
910.14        117.8164
910.53        117.8035
910.93        118.4874
911.33         119.485
911.72        120.0956
912.12        120.0901
912.52        119.6349
912.91        119.3086
913.31         119.982
913.70        121.8352
914.10        124.6585
914.49        127.6939
914.89        128.6483
915.29        126.8014
915.68        123.0052
916.08        119.0767
916.47        116.6696
916.87        116.0739
917.26        116.7587
917.66        117.9712
918.05        118.5511
918.45        118.1427
918.84        117.1527
919.24        116.2316
919.64        116.2747
920.03        117.4904
920.42        119.5146
920.82        121.6385
921.21        122.8804
921.61        122.8002
922.00        121.8106
922.40        120.4276
922.79        119.2147
923.19        118.3329
923.58         117.883
923.98        117.9031
924.37        117.5589
924.77        116.6998
925.16        118.7795
925.55        117.8498
925.95         119.091
926.34        120.6107
926.74        122.2122
927.13        123.4857
927.52        123.7003
927.92        122.9002
928.31        121.3125
928.70        119.3588
929.10        117.7306
929.49        116.6444
929.89        115.9655
930.28         115.923
930.67        116.8637
931.07        118.6068
931.46        121.0503
931.85        123.3729
932.24         124.371
932.64        123.8199
933.03        122.0019
933.42        119.4065
933.82        117.2916
934.21        116.1121
934.60        115.6116
934.99        115.7332
935.39        116.0728
935.78         116.532
936.17        117.9818
936.56         120.299
936.96        118.4248
937.35         118.114
937.74        115.2369
938.13        113.1149
938.53        112.9436
938.92        114.6443
939.31        117.9378
939.70        121.6779
940.09        123.0584
940.49        121.0997
940.88        117.0243
941.27        112.6718
941.66        110.1399
942.05        109.7494
942.44        110.8318
942.84        112.8104
943.23        114.8199
943.62        116.3206
944.01        117.5151
944.40        118.4568
944.79        119.2639
945.18        119.9581
945.57        120.3341
945.97        120.0366
946.36        118.7868
946.75        116.7839
947.14        114.6478
947.53        112.8958
947.92        111.7974
948.31        111.3111
948.70        111.3322
949.09        111.9397
949.48        113.2145
949.87        114.9807
950.26        116.9943
950.65        118.8111
951.04        119.8925
951.43        120.0973
951.82        119.5033
952.21         118.192
952.60        116.4361
952.99         114.483
953.38        112.3896
953.77        110.5373
954.16        109.4091
954.55        109.0913
954.94        109.5708
955.33        110.3852
955.72        110.7008
956.11        110.3077
956.50        109.3447
956.89        108.4521
957.28        108.8244
957.66        110.7902
958.05        113.6963
958.44        116.5728
958.83        118.0014
959.22        117.6585
959.61        115.9177
960.00        113.5946
960.39        112.0156
960.78        111.6003
961.16        112.1012
961.55        112.7861
961.94        112.4497
962.33        110.8635
962.72        108.5446
963.11        106.4571
963.49        105.8539
963.88        106.9484
964.27        109.4584
964.66         112.468
965.04        114.0076
965.43        113.2347
965.82        110.8768
966.21        108.2778
966.60         107.195
966.98        107.9201
967.37        109.8266
967.76        112.0368
968.15        112.8787
968.53        111.8576
968.92        109.6807
969.31        107.1386
969.69        105.1815
970.08        104.1057
970.47        103.6111
970.86        103.5913
971.24        103.9304
971.63        104.4789
972.02        105.3081
972.40        106.4013
972.79        107.5381
973.17         108.738
973.56          109.77
973.95        110.3838
974.33        110.1593
974.72        109.0075
975.11        107.1196
975.49        105.1943
975.88        104.2452
976.26         104.386
976.65        105.4711
977.04        106.7647
977.42        106.4563
977.81         104.015
978.19        100.2585
978.58        97.21304
978.96        96.95419
979.35        99.74177
979.74        105.0756
980.12        111.8949
980.51        116.2918
980.89        116.9176
981.28        114.8253
981.66        111.3677
982.05        108.3644
982.43        106.2904
982.82        104.7049
983.20         103.935
983.59        104.6723
983.97        107.0692
984.35        111.2041
984.74        116.0307
985.12        119.3584
985.51        119.6443
985.89        117.2952
986.28        113.2101
986.66        109.2291
987.04        106.4721
987.43        104.7499
987.81        103.8819
988.20        103.6927
988.58         104.078
988.96        105.2835
989.35        107.5939
989.73        111.3307
990.12        114.8858
990.50        117.5255
990.88        118.1353
991.27        116.6426
991.65        113.4514
992.03        108.6991
992.42        103.8042
992.80        101.4507
993.18          102.42
993.56        105.2749
993.95         108.546
994.33        110.8179
994.71        111.7691
995.10        112.1145
995.48        111.7351
995.86        110.3011
996.24         107.841
996.63        104.0389
997.01        100.0625
997.39        99.07102
997.77        102.2911
998.15          108.83
998.54        115.6882
998.92        118.9297
999.30        117.3969
999.68        112.2206
1000.06        104.6581
1000.45        98.15826
1000.83        94.54655
1001.21        92.87843
1001.59        93.18728
1001.97        95.61968
1002.35        100.0868
1002.73        107.5763
1003.12         116.186
1003.50        119.6461
1003.88        114.6647
1004.26        103.7952
1004.64           93.28
1005.02         88.8763
1005.40        91.24323
1005.78        100.5573
1006.16        116.2832
1006.54        126.9969
1006.92        124.4765
1007.30        115.5206
1007.69        107.9123
1008.07        105.8633
1008.45        109.9566
1008.83        122.1384
1009.21         151.774
1009.59        214.7758
1009.97        306.0278
1010.35        325.8272
1010.73        213.9348
1011.11        146.6478
1011.49        124.8454
1011.86        118.4372
1012.24        116.6486
1012.62        114.7737
1013.00        112.0658
1013.38         108.553
1013.76        106.9536
1014.14        116.0456
1014.52        143.2706
1014.90        191.5117
1015.28        249.4246
1015.66        285.1074
1016.04        277.2581
1016.41        227.2514
1016.79        162.2893
1017.17        117.8223
1017.55        99.28278
1017.93        94.17548
1018.31        95.22294
1018.69        98.40233
1019.06        103.3775
1019.44        112.0894
1019.82        128.5042
1020.20        157.9847
1020.58        208.9457
1020.95        298.7261
1021.33         500.606
1021.71       -2614.822
1022.09       -116.6052
1022.46        17.34928
1022.84        58.35413
1023.22        69.89911
1023.60        60.00599
1023.97       -123.8791
1024.35        206.0005
1024.73        181.8301
