SpectraSmart Spectrum 2.9.0.0
--------- Device Information -----------
Spectrum Name :  反射率_0
Saving Time :  2024/04/25 23:17:22
Spectro-Module Model Name : SE2030-DUVN
Spectro-Module Serial Number : OS361AC55029948
Wavelength Start : 200
Wavelength End : 1025
Wavelength Unit : Wavelength(nm)
Spectrum Unit : Reflectance(%)
-----------Spectrum Setting ------------
Integration Time : 20ms
Average : 10
Boxcar : 0
Background removal :  enabled
linearity correction :  enabled
SC :  disabled
Intensity correction :  disabled
DWT denoise :  enabled
savitzky-golay :  disabled
FFT :  disabled
Running average :  disabled
Kalman :  disabled
High pass :  disabled
---------------BEGIN--------------------
Wavelength(nm)             Reflectance(%)
200.29               0
200.75        86.55238
201.21        82.42795
201.67        77.76202
202.13        74.24843
202.58         72.0713
203.04        71.09509
203.50        71.04188
203.96        71.47831
204.42        72.07481
204.88        72.79057
205.34        73.46542
205.80        73.99191
206.26        74.50768
206.72        75.30833
207.18        76.43259
207.64        76.79365
208.10        74.91106
208.55        72.02863
209.01        70.66861
209.47        71.21961
209.93         73.0433
210.39        76.28175
210.85        79.01817
211.31        77.05795
211.77        69.77332
212.23        59.04137
212.69        49.35439
213.14        47.70256
213.60        54.96587
214.06        68.92979
214.52        84.89354
214.98        95.48707
215.44        98.51973
215.90        96.33384
216.36        90.86774
216.81        84.79861
217.27        79.83002
217.73        75.36769
218.19        71.37245
218.65        67.62656
219.11        63.62385
219.57        58.90815
220.02        53.97683
220.48        52.16953
220.94         54.7126
221.40        60.79457
221.86        65.78046
222.32        65.10494
222.77        59.68654
223.23        52.45388
223.69        46.84841
224.15        46.56822
224.61        51.05893
225.06        58.46069
225.52        65.86169
225.98        69.50957
226.44        68.75549
226.90        65.22581
227.36        60.94347
227.81        58.63158
228.27        59.20462
228.73        61.46045
229.19        64.48324
229.65        66.92658
230.10        68.29816
230.56         69.1888
231.02        69.74451
231.48        70.11335
231.93        70.36205
232.39        70.43798
232.85        70.47115
233.31        70.80058
233.77        71.43647
234.22         72.3027
234.68        73.03159
235.14        72.89676
235.60        71.76295
236.05        69.98615
236.51        67.98577
236.97        66.22698
237.43        64.78649
237.88        63.50193
238.34        62.47232
238.80        62.37821
239.26        63.47701
239.71        65.93238
240.17        68.48175
240.63        69.37132
241.08        68.25547
241.54        65.48255
242.00        62.39751
242.46        60.78848
242.91        61.44608
243.37        65.26183
243.83        78.11328
244.28        115.5487
244.74        147.7661
245.20        118.7795
245.66        97.04246
246.11        89.47698
246.57        87.97994
247.03        90.50337
247.48        99.04143
247.94        87.92664
248.40        76.67048
248.85        74.21884
249.31        74.46602
249.77        76.19093
250.22          79.396
250.68        84.60339
251.14        91.86138
251.59        96.84252
252.05        95.00138
252.51        88.20356
252.96        80.25688
253.42        75.13106
253.88        72.61847
254.33        71.70029
254.79        72.61072
255.25          75.059
255.70        78.34314
256.16        82.17768
256.62        85.45742
257.07        87.10227
257.53        87.48297
257.99        86.54062
258.44         84.7527
258.90        83.70368
259.35        82.74238
259.81        81.85197
260.27        80.12596
260.72        76.64452
261.18        72.17496
261.63         67.0518
262.09        62.55147
262.55        59.42421
263.00        57.56057
263.46        56.66841
263.91        55.98558
264.37        55.05889
264.83        53.67455
265.28         51.9058
265.74        50.15712
266.19         48.7438
266.65        47.90998
267.11         47.4378
267.56          47.006
268.02        46.25665
268.47        45.06976
268.93        43.59766
269.38        42.05947
269.84        41.04479
270.30        40.69868
270.75        40.85424
271.21         41.1749
271.66        41.15391
272.12        40.65816
272.57        39.83022
273.03        38.94269
273.48        38.31353
273.94        38.05107
274.39        37.98728
274.85         37.9494
275.31        37.66421
275.76        37.06149
276.22        36.27963
276.67        35.44132
277.13        34.83068
277.58        34.44485
278.04         34.2447
278.49        34.03696
278.95        33.63965
279.40        32.98378
279.86        32.20263
280.31        31.40665
280.77        30.88907
281.22        30.64401
281.68        30.60662
282.13        30.60217
282.59         30.4401
283.04         30.0681
283.50        29.59827
283.95        29.09696
284.41        28.69949
284.86        28.42551
285.32         28.2305
285.77         28.1033
286.22        28.10061
286.68        28.18533
287.13        28.31398
287.59        28.35398
288.04        28.08508
288.50        27.51891
288.95        26.72069
289.41        25.89007
289.86        25.21508
290.32        24.80748
290.77        24.59061
291.22        24.54428
291.68        24.59178
292.13         24.7016
292.59        24.89764
293.04        25.16419
293.50        25.47885
293.95        25.81666
294.40        26.14474
294.86        26.45073
295.31        26.73406
295.77        26.99762
296.22        27.24305
296.68        27.45716
297.13        27.59192
297.58        27.66359
298.04        27.70906
298.49        27.79704
298.95        28.06693
299.40        28.53016
299.85        29.14283
300.31        29.80367
300.76        30.36221
301.21        30.75956
301.67         31.0576
302.12        31.26941
302.58        31.47613
303.03        31.67888
303.48        31.86147
303.94        32.07035
304.39        32.34267
304.84        32.68464
305.30        33.07922
305.75        33.42384
306.20        33.57336
306.66        33.52819
307.11        33.32572
307.57        33.09507
308.02        32.95058
308.47        32.95245
308.93        33.05849
309.38         33.2243
309.83        33.41213
310.29        33.58608
310.74         33.7445
311.19        33.85624
311.65         33.8704
312.10        33.77967
312.55        33.60351
313.00        33.36216
313.46        33.10486
313.91        32.84933
314.36        32.60208
314.82        32.41658
315.27        32.35333
315.72        32.42065
316.18        32.59436
316.63        32.78954
317.08        32.84293
317.53        32.71193
317.99         32.4293
318.44        32.10054
318.89        31.89896
319.35        31.85826
319.80        31.93826
320.25        32.01846
320.70        31.90184
321.16        31.54938
321.61        31.02882
322.06        30.48134
322.51        30.11833
322.97        29.97543
323.42        29.99676
323.87        30.05031
324.32        29.91731
324.78        29.54337
325.23        29.01236
325.68        28.44317
326.13        28.03057
326.59        27.82594
327.04         27.7855
327.49        27.83585
327.94        27.85936
328.39        27.81336
328.85        27.72484
329.30        27.64211
329.75        27.60248
330.20         27.6209
330.66        27.65797
331.11          27.714
331.56        27.75031
332.01        27.75176
332.46        27.71595
332.92        27.65065
333.37         27.6044
333.82        27.57578
334.27         27.5667
334.72        27.52447
335.17        27.36237
335.63        27.07222
336.08        26.69409
336.53        26.34286
336.98        26.20419
337.43        26.31382
337.88        26.61987
338.34        26.96354
338.79        27.12966
339.24        27.03545
339.69          26.741
340.14        26.39118
340.59        26.24117
341.05        26.34657
341.50        26.62292
341.95        26.93054
342.40        27.06874
342.85        26.99324
343.30        26.78177
343.75         26.5076
344.20        26.29758
344.66        26.19641
345.11         26.1286
345.56          26.098
346.01        26.10872
346.46        26.14208
346.91         26.2171
347.36        26.22604
347.81        25.99147
348.26        25.51295
348.72         24.8827
349.17        24.27596
349.62        24.06145
350.07        24.31389
350.52        24.90012
350.97        25.61314
351.42        26.13461
351.87        26.36533
352.32        26.39229
352.77        26.26392
353.22         26.0646
353.67        25.83983
354.13        25.56575
354.58        25.28072
355.03        25.08935
355.48        25.01164
355.93        25.04263
356.38        25.10594
356.83        25.06282
357.28        24.88209
357.73        24.60015
358.18          24.299
358.63        24.11062
359.08        24.06349
359.53        24.11409
359.98         24.1766
360.43        24.12116
360.88        23.91796
361.33        23.60582
361.78        23.27107
362.23         23.0519
362.68        22.97848
363.13        23.00397
363.58         23.0372
364.03        22.93668
364.48        22.67529
364.93         22.3096
365.38        21.92243
365.83        21.64323
366.28          21.509
366.73        21.47367
367.18        21.49677
367.63         21.5141
368.08        21.49439
368.53         21.4549
368.98         21.3846
369.43        21.26144
369.88        21.09141
370.33        20.88763
370.78        20.67548
371.23        20.50426
371.68        20.39114
372.13        20.31619
372.58        20.29919
373.03        20.36739
373.48        20.50564
373.93        20.69771
374.38        20.84816
374.83        20.81167
375.28        20.56911
375.72        20.15847
376.17        19.72095
376.62        19.44902
377.07        19.39775
377.52        19.50714
377.97        19.69604
378.42         19.8282
378.87        19.85664
379.32        19.82437
379.77        19.75073
380.22        19.66178
380.67        19.56895
381.11        19.45595
381.56        19.33174
382.01        19.22648
382.46        19.14642
382.91        19.08978
383.36        19.03724
383.81        18.95152
384.26        18.82879
384.71        18.68792
385.15        18.54313
385.60        18.42651
386.05        18.33643
386.50        18.25451
386.95        18.18708
387.40        18.14672
387.85        18.13332
388.29        18.14411
388.74        18.14732
389.19        18.07035
389.64        17.90833
390.09        17.67268
390.54        17.44799
390.98        17.37701
391.43        17.49336
391.88        17.73966
392.33        17.98762
392.78        18.04787
393.23        17.89768
393.67        17.59925
394.12         17.3004
394.57        17.14684
395.02        17.17047
395.47        17.31853
395.91         17.5206
396.36        17.62716
396.81         17.5968
397.26        17.46541
397.71        17.29716
398.15        17.16841
398.60        17.12359
399.05        17.13793
399.50        17.15398
399.95        17.04447
400.39        16.87361
400.84        16.61955
401.29        16.38967
401.74        16.34241
402.18        16.52166
402.63        16.84872
403.08        17.21239
403.53        17.43455
403.97        17.46563
404.42        17.35907
404.87        17.16852
405.32        16.99136
405.76        16.86814
406.21         16.7767
406.66        16.72286
407.11        16.72103
407.55        16.77201
408.00        16.87511
408.45        16.99397
408.90        17.04245
409.34        16.99535
409.79        16.87446
410.24        16.74266
410.68        16.69182
411.13        16.74421
411.58         16.8765
412.03        17.03122
412.47        17.11004
412.92         17.0735
413.37        16.95355
413.81        16.81981
414.26        16.79457
414.71        16.89085
415.15        17.07122
415.60         17.2388
416.05        17.25817
416.49        17.10163
416.94        16.83132
417.39        16.52888
417.83        16.33225
418.28        16.29224
418.73         16.3526
419.17        16.48571
419.62        16.64496
420.07        16.80503
420.51        16.98096
420.96        17.11484
421.41        17.10476
421.85        16.93749
422.30        16.66976
422.74        16.39289
423.19        16.27639
423.64        16.33533
424.08         16.5323
424.53        16.77737
424.98        16.93848
425.42        16.97509
425.87        16.91569
426.31        16.80097
426.76        16.74462
427.21        16.74628
427.65        16.66068
428.10         16.5591
428.54        16.66107
428.99        16.97437
429.44        17.40532
429.88         17.7725
430.33         17.8468
430.77        17.59393
431.22        17.09051
431.66        16.55664
432.11        16.39628
432.56        16.64384
433.00        17.08891
433.45        17.52653
433.89        17.82289
434.34        17.85268
434.78        17.50483
435.23        17.03999
435.67        16.99397
436.12        17.31039
436.57        17.39129
437.01        17.19022
437.46         17.0622
437.90        17.04912
438.35        17.05233
438.79        17.05213
439.24        17.06522
439.68        17.09688
440.13        17.07092
440.57        17.03241
441.02          17.285
441.46        17.69617
441.91        17.62979
442.35        17.16738
442.80        16.95509
443.24        16.97173
443.69        16.97215
444.13        16.90086
444.58        16.67138
445.02        16.36203
445.47        16.32872
445.91        16.52213
446.36         16.5631
446.80        16.42562
447.24        16.33329
447.69        16.30774
448.13        16.27232
448.58        16.23661
449.02        16.21499
449.47         16.2076
449.91        16.21351
450.36        16.23407
450.80        16.26324
451.25        16.29841
451.69        16.32409
452.13        16.33922
452.58        16.33404
453.02        16.32219
453.47        16.32245
453.91        16.34019
454.36        16.37752
454.80        16.39933
455.24        16.34586
455.69        16.22144
456.13        16.04227
456.58        15.89763
457.02        15.89285
457.46        16.04826
457.91        16.31681
458.35        16.60379
458.79        16.75442
459.24        16.74238
459.68        16.60195
460.13         16.4269
460.57         16.3213
461.01        16.33199
461.46        16.41942
461.90        16.53688
462.34        16.60381
462.79        16.59631
463.23        16.53583
463.68        16.47915
464.12        16.52038
464.56         16.6754
465.01        16.91505
465.45        17.12228
465.89        17.19187
466.34        17.11895
466.78        16.84685
467.22        16.52036
467.67        16.53866
468.11        16.85649
468.55        16.97292
468.99        16.84716
469.44        16.75443
469.88        16.75691
470.32        16.90712
470.77        17.14194
471.21        17.23192
471.65        17.14751
472.10        17.06065
472.54        17.01266
472.98        17.01377
473.42        17.08031
473.87        17.21359
474.31        17.36451
474.75        17.45185
475.20        17.46317
475.64        17.41349
476.08        17.35364
476.52        17.36108
476.97        17.45322
477.41        17.60881
477.85        17.77095
478.29        17.88202
478.74        17.92809
479.18        17.84067
479.62         17.6814
480.06        17.84469
480.50        17.97735
480.95        18.11299
481.39        18.10084
481.83        18.08508
482.27         18.0645
482.72        17.88957
483.16         17.6479
483.60        17.72381
484.04        18.13388
484.48        18.32547
484.93        18.49617
485.37        18.95141
485.81        19.60819
486.25        19.60754
486.69        25.79419
487.14        20.75261
487.58         13.5063
488.02        16.66937
488.46        18.48941
488.90        18.65996
489.34        18.97741
489.79        18.92346
490.23        19.75818
490.67        20.22068
491.11        20.11872
491.55        20.07616
491.99        20.03565
492.43        19.90212
492.88        19.74453
493.32        19.76795
493.76        19.84406
494.20        20.04697
494.64        20.31123
495.08        20.61587
495.52        20.94634
495.96        21.28318
496.41        21.55173
496.85        21.78833
497.29        21.94979
497.73        21.60647
498.17        21.08852
498.61        21.27326
499.05        22.14755
499.49        22.34206
499.93        22.36961
500.37        22.46577
500.82        22.57485
501.26         22.8356
501.70        23.13207
502.14        23.29759
502.58        23.30543
503.02        23.33599
503.46        23.39785
503.90         23.3692
504.34        23.28784
504.78         23.2761
505.22        23.35166
505.66         23.4869
506.10        23.63688
506.54        23.72331
506.98        23.72842
507.42        23.68044
507.86        23.63667
508.30        23.68426
508.74        23.83907
509.18         24.0667
509.62         24.3118
510.06        24.48489
510.50        24.56078
510.94        24.57179
511.38        24.54752
511.82        24.53389
512.26        24.54907
512.70        24.57476
513.14        24.61794
513.58        24.69211
514.02        24.78477
514.46        24.88721
514.90        24.96927
515.34         24.9468
515.78        24.78366
516.22        24.65659
516.66        24.61244
517.10        24.29762
517.54        23.72471
517.98        24.43345
518.42        24.19598
518.86        24.50642
519.30        24.68196
519.74         24.9235
520.18        25.15769
520.62        25.23956
521.06        25.17198
521.50        24.97716
521.93        24.73403
522.37        24.58315
522.81        24.56221
523.25        24.63193
523.69        24.74552
524.13        24.82913
524.57         24.8564
525.01        24.84852
525.45        24.81569
525.89        24.77193
526.32        24.72222
526.76        24.66228
527.20        24.58522
527.64        24.49294
528.08         24.3933
528.52        24.26616
528.96        24.12844
529.40         24.0703
529.83        24.10981
530.27        23.97742
530.71        24.10336
531.15        24.03826
531.59        23.91521
532.03        23.73838
532.46        23.58608
532.90         23.5859
533.34        23.74584
533.78        24.01364
534.22        24.27746
534.66        24.37247
535.09        24.26161
535.53        24.01416
535.97        23.70552
536.41        23.46133
536.85        23.32836
537.28        23.27367
537.72        23.28708
538.16        23.35251
538.60        23.45366
539.04        23.57705
539.47         23.7006
539.91         23.8481
540.35        23.98773
540.79        24.02808
541.22        23.99383
541.66        24.02518
542.10        24.13399
542.54        24.23946
542.97        24.35142
543.41         24.5261
543.85         24.7563
544.29        25.04122
544.72        25.30186
545.16        25.42327
545.60        25.39107
546.04        25.23838
546.47        25.10147
546.91        25.20902
547.35        25.58895
547.79        26.16856
548.22        26.76804
548.66         27.0857
549.10        27.07077
549.53        26.85408
549.97        26.59967
550.41        26.49983
550.84        26.61966
551.28        26.90915
551.72        27.29699
552.15        27.65277
552.59        27.92186
553.03        28.14082
553.46        28.31259
553.90        28.46464
554.34         28.6118
554.77        28.70942
555.21        28.76166
555.65        28.86863
556.08        29.05187
556.52        28.93681
556.96        29.19796
557.39        29.28222
557.83        29.39893
558.27        29.52324
558.70        29.67037
559.14        29.84703
559.57        30.03587
560.01        30.24177
560.45         30.4197
560.88        30.50044
561.32         30.4978
561.75        30.41836
562.19        30.33213
562.63        30.30463
563.06        30.35026
563.50        30.45788
563.93        30.59689
564.37        30.73357
564.80        30.84444
565.24        30.95159
565.68        31.05244
566.11        31.14475
566.55        31.25247
566.98        31.36612
567.42        31.50475
567.85        31.69166
568.29        31.94752
568.72        32.17339
569.16        32.41288
569.60        32.80416
570.03        33.18434
570.47        33.28516
570.90        33.26357
571.34        32.74247
571.77        33.20198
572.21        33.55412
572.64        33.48818
573.08        33.03475
573.51        32.13633
573.95        33.45311
574.38        35.33654
574.82        34.74025
575.25         34.4707
575.69        33.36506
576.12         32.8098
576.56        32.77321
576.99        33.64467
577.42        34.95055
577.86        35.09844
578.29        34.66022
578.73        36.52615
579.16        33.53788
579.60         30.5865
580.03         31.9347
580.47        34.12597
580.90        34.53082
581.33        33.86852
581.77        33.60852
582.20        36.72718
582.64        36.23339
583.07         30.9467
583.51         30.2182
583.94         29.5425
584.37        30.66765
584.81        32.01142
585.24        33.69461
585.68        34.62785
586.11        33.85022
586.54        31.26775
586.98        30.29961
587.41        30.60465
587.85        31.98853
588.28          33.137
588.71         31.4428
589.15        30.61193
589.58        30.90923
590.01        31.29161
590.45        31.86254
590.88        31.92106
591.31        31.57363
591.75        31.46881
592.18        31.59058
592.61        32.29413
593.05        32.83891
593.48         34.1194
593.91        34.40318
594.35        31.62116
594.78         31.0495
595.21         31.0197
595.65        32.59039
596.08        34.02806
596.51        32.81376
596.94        32.12416
597.38        32.61967
597.81        34.10466
598.24        35.01394
598.68        34.55236
599.11        34.20811
599.54        36.28102
599.97        37.33316
600.41        35.27775
600.84        35.71558
601.27        36.80106
601.70        36.71129
602.14        36.92753
602.57        36.83033
603.00        37.64807
603.43        38.95555
603.87        40.25442
604.30        40.43698
604.73         39.6939
605.16        39.70897
605.60        40.55092
606.03        41.67223
606.46        42.70676
606.89        42.82986
607.32         42.1644
607.76        42.92035
608.19        44.32901
608.62        44.07899
609.05        43.69655
609.48        44.46171
609.92        44.82528
610.35        45.26554
610.78        46.97592
611.21        47.54816
611.64        46.07721
612.07        46.88361
612.50        47.42265
612.94        48.04174
613.37        48.04898
613.80        48.40326
614.23        49.13121
614.66         49.3913
615.09        49.88993
615.52        50.23615
615.96         50.5149
616.39        50.92666
616.82        50.61159
617.25        50.69275
617.68        51.60338
618.11        52.36032
618.54        52.91941
618.97        52.83807
619.40         52.4398
619.84        52.38455
620.27        53.44026
620.70        54.12379
621.13        54.48688
621.56         54.0957
621.99        53.24045
622.42        53.94943
622.85        55.81915
623.28         55.5452
623.71        54.95779
624.14        55.16042
624.57        54.67415
625.00        54.72758
625.43        54.79139
625.86        54.29916
626.29        54.22117
626.72        54.82753
627.15        54.21954
627.58        54.17989
628.01         54.0531
628.44        53.93566
628.87        53.84128
629.30        53.70693
629.73        53.42444
630.16        53.59657
630.59        52.74691
631.02        52.16832
631.45        51.51913
631.88        50.94706
632.31        50.47727
632.74        50.08942
633.17        49.75541
633.60          49.386
634.03         48.9593
634.46        48.50636
634.89        48.02533
635.32        47.51203
635.75        46.97604
636.18          46.416
636.61        45.86768
637.04        45.38837
637.47        44.98159
637.89        44.63255
638.32        44.28572
638.75        43.87787
639.18        43.40043
639.61        42.89043
640.04        42.37939
640.47        41.90857
640.90        41.49799
641.33        41.13441
641.76        40.82718
642.18        40.65228
642.61         40.6092
643.04        40.58151
643.47        40.50111
643.90        40.78236
644.33        40.56502
644.76        40.55135
645.18        40.50581
645.61        40.47563
646.04        40.46688
646.47        40.46442
646.90        40.53624
647.33        40.75775
647.75        41.15421
648.18        41.73877
648.61        42.34842
649.04        42.72997
649.47        42.84754
649.89        42.65582
650.32        42.47573
650.75        42.98452
651.18        44.13385
651.61        45.29168
652.03        46.16734
652.46        46.61426
652.89         46.8992
653.32         47.1177
653.74        47.53281
654.17        48.98837
654.60        49.90195
655.03        49.04287
655.46        49.76104
655.88        53.79834
656.31        58.20863
656.74        134.3571
657.16        87.15137
657.59        30.59833
658.02        23.31365
658.45        40.97667
658.87        52.79081
659.30        55.72295
659.73        56.24372
660.15        54.21573
660.58        57.01508
661.01        58.64316
661.44         57.0381
661.86        56.70641
662.29         57.0551
662.72        58.16712
663.14        59.75673
663.57          60.011
664.00        59.16506
664.42        59.23298
664.85        60.30556
665.27        61.09527
665.70        61.37944
666.13        61.53746
666.55        61.54831
666.98        61.30843
667.41        61.00768
667.83        61.00046
668.26        61.36562
668.69         61.9733
669.11        62.60663
669.54        63.20476
669.96        63.09859
670.39        62.90249
670.82        62.63687
671.24        62.54883
671.67        62.84112
672.09        63.41838
672.52        64.04076
672.94        64.66865
673.37          64.187
673.80        64.15456
674.22        64.31367
674.65         64.4215
675.07        64.47073
675.50        64.48217
675.92        64.52421
676.35        64.73061
676.77        65.10352
677.20        65.55962
677.62        66.03596
678.05        66.31963
678.47        66.34177
678.90        66.61352
679.32        66.41059
679.75        66.36233
680.17        66.52931
680.60        66.69197
681.02        66.86606
681.45        66.93887
681.87        66.90874
682.30        66.81681
682.72        66.75312
683.15        66.83844
683.57        67.12967
684.00         67.5604
684.42        68.16159
684.85         68.4916
685.27        68.53315
685.70        68.41203
686.12        68.21992
686.54        68.12778
686.97        68.17616
687.39        68.33297
687.82        68.52766
688.24        68.69497
688.66        68.79292
689.09        68.85249
689.51         68.9239
689.94        69.07575
690.36         69.3291
690.78        69.59015
691.21         69.8139
691.63        70.07058
692.06        70.28381
692.48        70.19553
692.90         69.9136
693.33        69.84517
693.75        70.03326
694.17        70.29552
694.60        70.59494
695.02        70.84985
695.44        71.01058
695.87        71.45383
696.29        72.09319
696.71        71.91954
697.14        71.19788
697.56        71.70111
697.98        73.14238
698.41        73.06585
698.83        72.22615
699.25        71.69991
699.68        71.82133
700.10        71.95998
700.52        72.07865
700.94        72.30004
701.37        72.56602
701.79        72.92661
702.21        73.30656
702.64        73.60389
703.06        73.74878
703.48        73.70816
703.90         73.4974
704.33        73.13171
704.75        72.74116
705.17        72.62874
705.59        72.86776
706.01        73.25957
706.44        73.65188
706.86        74.42593
707.28        74.51846
707.70        74.74606
708.12        74.83293
708.55         74.8242
708.97        74.72119
709.39        74.52074
709.81        74.32277
710.23        74.28699
710.66        74.45244
711.08        74.81541
711.50         75.2056
711.92        75.36174
712.34        75.22913
712.76        74.86707
713.19        74.48051
713.61        74.43941
714.03         74.8083
714.45        75.46385
714.87        76.12808
715.29         76.3982
715.71        76.19322
716.13        75.50775
716.56        74.88104
716.98        74.57977
717.40        74.79798
717.82        75.38097
718.24        76.10251
718.66        76.57462
719.08        76.67214
719.50        76.51315
719.92        76.22604
720.34        76.03408
720.76        76.01188
721.19        75.96527
721.61        76.08695
722.03        76.16068
722.45        76.23344
722.87        76.33231
723.29        76.47316
723.71        76.66131
724.13        76.88712
724.55        77.12652
724.97        77.35452
725.39        77.54118
725.81        77.67316
726.23        77.76019
726.65        77.79487
727.07        77.76557
727.49         77.6815
727.91        77.55899
728.33        77.44956
728.75        77.40849
729.17        77.44753
729.59        77.63205
730.01        77.91448
730.43        77.99869
730.85        77.96049
731.27        78.30528
731.69        78.90786
732.10        79.14355
732.52        78.96636
732.94        78.68927
733.36        78.47878
733.78        78.46414
734.20        78.73407
734.62        79.06805
735.04        80.12003
735.46        80.03409
735.88        79.37408
736.30        79.37837
736.72        80.71875
737.13        81.48801
737.55        81.43425
737.97        81.36594
738.39         81.3362
738.81         80.1032
739.23        78.40047
739.65         79.5723
740.06        82.88629
740.48        83.47633
740.90        81.34812
741.32        80.25335
741.74        80.59982
742.16         80.7617
742.57        80.83331
742.99         81.7234
743.41        83.10082
743.83        83.85525
744.25        83.82999
744.67        83.46168
745.08        83.02893
745.50        82.84257
745.92        83.03795
746.34         83.5221
746.75         84.1372
747.17        84.54388
747.59        84.67293
748.01        84.75489
748.42        84.87599
748.84        84.89996
749.26        85.01273
749.68        85.63694
750.09        86.60411
750.51        87.39198
750.93        87.76158
751.35        87.35873
751.76        86.46098
752.18        86.17004
752.60        86.50257
753.01        86.58246
753.43        86.41421
753.85        86.59361
754.27        87.13331
754.68        87.88868
755.10        88.68875
755.52        89.05241
755.93        89.24968
756.35        89.44094
756.77        89.52068
757.18        89.64929
757.60        89.80968
758.02        90.47847
758.43         91.0219
758.85        90.62135
759.26        88.21259
759.68        86.93794
760.10        89.34427
760.51          90.823
760.93        90.45429
761.34        89.30811
761.76        88.45713
762.18        87.64235
762.59        87.57228
763.01        87.62347
763.42        89.27805
763.84        90.19682
764.26        90.63804
764.67        90.75665
765.09        90.59428
765.50        90.48617
765.92        90.30282
766.33        88.91866
766.75        86.88792
767.16         86.2524
767.58        87.19258
768.00        88.58464
768.41         90.1445
768.83        91.88486
769.24         93.0481
769.66        92.69045
770.07        90.90108
770.49        89.04835
770.90        87.62739
771.32        88.66341
771.73          91.381
772.15        90.93833
772.56         87.8433
772.97        87.33513
773.39        89.31345
773.80         90.0191
774.22        89.19263
774.63        89.08601
775.05        89.64857
775.46        89.86877
775.88        89.64912
776.29        89.28471
776.70        88.91803
777.12        88.81689
777.53        89.04697
777.95        89.44128
778.36        89.83566
778.77        89.91493
779.19        89.66121
779.60        89.27186
780.02        88.89764
780.43        88.74046
780.84        89.04653
781.26        89.42645
781.67        89.90067
782.09        91.65973
782.50        93.81935
782.91        92.68103
783.33        89.18909
783.74        87.99216
784.15        89.32195
784.57        90.34283
784.98        90.56722
785.39         90.3614
785.81        89.78342
786.22        89.27354
786.63        89.11688
787.04        89.24467
787.46        89.69145
787.87        90.65072
788.28        91.84367
788.70        92.48104
789.11        92.39614
789.52        92.12729
789.93        91.78716
790.35         90.8756
790.76        89.76733
791.17         89.8569
791.58        90.99184
792.00        91.46049
792.41        91.08357
792.82        91.11506
793.23        91.58919
793.65        91.11307
794.06        90.20332
794.47        91.38931
794.88        93.68671
795.29        94.14246
795.71        90.73719
796.12        88.52264
796.53        87.54028
796.94        87.04002
797.35        87.22144
797.76         88.7748
798.18        90.97186
798.59         92.1897
799.00        91.96924
799.41        90.73824
799.82        89.11879
800.23        88.13715
800.64        88.07185
801.06        88.51301
801.47        89.28385
801.88        89.97952
802.29        90.40642
802.70         90.7076
803.11        90.88197
803.52        90.83099
803.93        90.58906
804.34        90.28381
804.75        90.04575
805.17         89.6588
805.58        90.16689
805.99        90.40403
806.40        90.55953
806.81        91.73412
807.22        93.15405
807.63        91.72033
808.04        88.26334
808.45        86.82866
808.86        87.74078
809.27        88.89864
809.68        89.77443
810.09        90.36079
810.50        90.41425
810.91        89.98367
811.32        89.34345
811.73         88.9355
812.14        88.88629
812.55        89.01324
812.96        89.30219
813.37        89.71445
813.78        90.17913
814.19        90.77161
814.60        91.18713
815.01        90.93626
815.42          89.978
815.83        88.41877
816.24        86.84111
816.65        86.27512
817.05        87.02159
817.46        88.75535
817.87        90.75229
818.28        91.70646
818.69         91.2515
819.10        89.71568
819.51        87.86851
819.92         87.0183
820.33        87.51471
820.74        88.95497
821.14        90.62806
821.55        91.27951
821.96        90.63755
822.37        89.14549
822.78        87.45924
823.19        86.53459
823.60         86.6246
824.00        87.48738
824.41        88.63349
824.82        89.36121
825.23        89.38919
825.64        88.98107
826.04        88.41395
826.45        88.08945
826.86        88.11598
827.27        88.30721
827.68        88.58573
828.08        88.88659
828.49        89.08343
828.90        89.29672
829.31        89.40992
829.72        89.19412
830.12        88.66612
830.53          87.883
830.94        87.18847
831.35         87.0562
831.75        87.61156
832.16        88.66598
832.57        89.92844
832.97        90.78089
833.38        90.92729
833.79        90.53896
834.20        89.92513
834.60        89.56288
835.01        89.60547
835.42        89.89911
835.82        90.21881
836.23        90.10297
836.64        89.50201
837.04        88.61331
837.45          87.744
837.86        87.36526
838.26        87.59833
838.67        88.24121
839.08        89.06995
839.48        89.67289
839.89        89.85432
840.29        89.75231
840.70        89.44128
841.11        89.01381
841.51        88.54179
841.92         87.9713
842.33        87.44113
842.73        87.20137
843.14        87.26417
843.54        87.62968
843.95        88.05694
844.35        88.20118
844.76        87.95894
845.17        87.43597
845.57        86.84945
845.98        86.55439
846.38        86.62865
846.79        86.93718
847.19        87.32344
847.60        87.40594
848.00        87.13985
848.41        86.64427
848.81        86.13037
849.22        85.82735
849.62        85.86054
850.03        86.15757
850.43        86.69486
850.84        87.30497
851.24        87.94842
851.65        88.43835
852.05         88.9292
852.46        89.48692
852.86        90.10786
853.27        90.79867
853.67        91.02045
854.07        90.09773
854.48        88.09542
854.88        85.27216
855.29        82.61483
855.69        81.53367
856.10        82.29832
856.50        84.76625
856.90        87.98088
857.31        89.74667
857.71        89.38239
858.12        87.44421
858.52        85.10242
858.92        83.93092
859.33         84.2455
859.73        85.65412
860.13        87.60146
860.54        88.91451
860.94        89.21519
861.34        88.79144
861.75        88.11108
862.15        88.01633
862.55        88.68115
862.96        89.79139
863.36        90.97431
863.76        91.55608
864.17        91.35616
864.57          90.705
864.97        89.91665
865.38        89.43045
865.78        89.42884
866.18        89.67759
866.58        90.13651
866.99        90.73322
867.39        91.46352
867.79        92.40316
868.19        93.21078
868.60        93.22181
869.00        92.34068
869.40        90.72311
869.80        89.20423
870.21        89.11632
870.61        90.82011
871.01        93.89874
871.41        97.33128
871.81        99.35711
872.22        99.46268
872.62        98.18192
873.02        96.41737
873.42        95.61187
873.82        96.10254
874.22        97.45736
874.63        99.14033
875.03        100.0311
875.43        99.60331
875.83        98.44023
876.23        97.28812
876.63        97.33764
877.03        99.00012
877.44        102.5929
877.84        97.55153
878.24        109.2707
878.64        107.7468
879.04        103.9713
879.44        101.8784
879.84        100.6673
880.24        100.9956
880.64        102.4467
881.04         104.823
881.44        106.2188
881.84        105.4866
882.24        103.3528
882.65        101.1416
883.05        100.4441
883.45        101.5359
883.85        104.0033
884.25        106.9182
884.65        108.5799
885.05        108.4194
885.45        107.0228
885.85        105.3335
886.25        104.6399
886.65        105.2109
887.05        106.5958
887.45        108.2463
887.85        109.1998
888.25        109.1202
888.65          108.39
889.04        107.3049
889.44        106.3452
889.84        105.6896
890.24        105.1675
890.64        104.8657
891.04        104.9454
891.44        105.3731
891.84          106.13
892.24        106.9165
892.64        107.1461
893.04        106.7342
893.44        105.9469
893.83        105.1113
894.23        104.7419
894.63        104.9363
895.03        105.4678
895.43        106.3885
895.83        107.7568
896.23        109.4363
896.63        111.3924
897.02        112.9679
897.42        113.0924
897.82         111.659
898.22         109.058
898.62        106.3048
899.01        104.9033
899.41        105.1927
899.81        106.6559
900.21        108.5917
900.61        109.8409
901.00        110.0349
901.40        109.5701
901.80        108.7475
902.20        108.0203
902.59        107.5823
902.99        107.2644
903.39        107.0742
903.79        107.0586
904.18        107.2101
904.58         107.573
904.98        108.1126
905.38        108.7452
905.77        109.3695
906.17        109.9391
906.57        110.3383
906.96        110.4708
907.36        110.2801
907.76        109.8307
908.15        109.1704
908.55        108.2788
908.95        107.2685
909.34        106.1477
909.74        105.1893
910.14        104.6069
910.53        104.4907
910.93        104.8741
911.33        105.5636
911.72         106.194
912.12        106.5619
912.52        106.6484
912.91        106.7607
913.31        107.3979
913.70        108.6839
914.10        110.5331
914.49        112.3315
914.89        112.3775
915.29        110.2721
915.68        106.7161
916.08        103.3689
916.47        101.7722
916.87        102.0896
917.26        103.8116
917.66        105.9484
918.05          106.89
918.45        106.1822
918.84        104.3863
919.24        102.4267
919.64        101.6326
920.03        102.3706
920.42        104.2082
920.82        106.4508
921.21        108.0741
921.61        108.5355
922.00        108.1731
922.40        107.3872
922.79        106.6655
923.19         106.183
923.58        105.9187
923.98        105.6862
924.37         104.835
924.77        103.4502
925.16        102.2856
925.55        101.1576
925.95        101.7188
926.34        103.9123
926.74        107.1427
927.13        110.3634
927.52         111.743
927.92        111.0188
928.31        108.7305
928.70        105.7529
929.10         103.548
929.49        102.5435
929.89        102.3655
930.28        102.8739
930.67        103.8303
931.07        104.9285
931.46        106.3307
931.85        107.5863
932.24          108.01
932.64        107.5184
933.03        106.1864
933.42        104.3249
933.82        102.8009
934.21        101.8845
934.60        101.4475
934.99        101.3937
935.39        101.4857
935.78        101.6932
936.17        102.2931
936.56        103.0725
936.96        102.6758
937.35        101.8858
937.74        100.3306
938.13        99.22668
938.53        99.44125
938.92         100.953
939.31        103.6378
939.70        106.6119
940.09        107.6116
940.49        105.8948
940.88        102.4385
941.27        98.85098
941.66         96.9881
942.05        97.10603
942.44        98.62454
942.84        100.8709
943.23         102.767
943.62        103.7499
944.01        104.0671
944.40        104.0198
944.79        104.0882
945.18        104.4196
945.57        104.8493
945.97        104.8844
946.36        103.7809
946.75        101.6348
947.14        99.14645
947.53        97.23442
947.92        96.65155
948.31        97.36353
948.70        99.17241
949.09        101.5609
949.48        103.2455
949.87         103.581
950.26        102.7886
950.65         101.512
951.04        100.8157
951.43        100.9586
951.82        101.6092
952.21        102.1814
952.60        101.7684
952.99        100.2142
953.38        97.92443
953.77        95.61836
954.16        94.27614
954.55        94.11169
954.94        94.88416
955.33        95.95103
955.72        96.23352
956.11        95.47007
956.50        93.96359
956.89        92.50937
957.28        92.54493
957.66        94.50542
958.05        97.63422
958.44        100.9627
958.83        103.0965
959.22        103.6414
959.61        102.9293
960.00        101.4838
960.39        100.1586
960.78        99.27165
961.16         98.6858
961.55        98.02394
961.94        96.73578
962.33        94.82055
962.72        92.63232
963.11        90.85936
963.49        90.33392
963.88         91.1496
964.27        93.13941
964.66        95.52203
965.04        96.62675
965.43        95.76933
965.82        93.55256
966.21        91.16969
966.60         90.1818
966.98        90.86024
967.37        92.69395
967.76        94.90105
968.15        95.96536
968.53        95.41324
968.92        93.79668
969.31        91.91412
969.69        90.77743
970.08        90.65365
970.47        91.25396
970.86        92.17226
971.24        92.74509
971.63         92.6962
972.02        92.17168
972.40        91.67794
972.79        92.02063
973.17        93.52759
973.56        95.83398
973.95         98.0272
974.33        98.42204
974.72        96.63479
975.11        93.36707
975.49        90.06937
975.88        88.64849
976.26        89.37343
976.65        91.83665
977.04        94.95803
977.42        96.00329
977.81        93.91254
978.19        89.75705
978.58        85.81516
978.96        84.44199
979.35         85.9923
979.74        89.87046
980.12         95.1479
980.51        98.50478
980.89        98.86992
981.28        97.15607
981.66        94.59972
982.05        92.79057
982.43        92.04417
982.82        91.82845
983.20        92.14556
983.59        93.17323
983.97        94.94593
984.35        97.59007
984.74        100.3553
985.12        101.8323
985.51          101.08
985.89        98.41354
986.28        94.73952
986.66        91.62718
987.04         89.9324
987.43        89.38797
987.81        89.58147
988.20        90.08081
988.58        90.77387
988.96         91.8684
989.35        93.63338
989.73        96.41514
990.12        99.05298
990.50        100.9819
990.88        101.1799
991.27        99.33358
991.65        95.81206
992.03        90.77798
992.42        85.70038
992.80        83.30493
993.18        84.36725
993.56        87.33003
993.95        90.63843
994.33        92.89626
994.71        93.75578
995.10        94.01001
995.48        93.49986
995.86        91.78218
996.24        88.88247
996.63        84.49608
997.01         80.0486
997.39        79.48711
997.77        84.27367
998.15        93.22231
998.54        102.4433
998.92        106.8208
999.30        104.9101
999.68        98.01606
1000.06        87.90014
1000.45        79.31396
1000.83        74.74025
1001.21        72.99535
1001.59        73.53908
1001.97        75.73682
1002.35        79.26337
1002.73        85.15184
1003.12         92.0033
1003.50        94.78242
1003.88        90.97565
1004.26        82.60506
1004.64        74.40862
1005.02        70.81516
1005.40        72.33254
1005.78        78.86879
1006.16        90.69143
1006.54        100.9032
1006.92        102.6363
1007.30        99.21358
1007.69        95.34985
1008.07        93.95467
1008.45        95.40672
1008.83         99.9408
1009.21         110.523
1009.59        130.6012
1009.97        150.8055
1010.35        134.3248
1010.73        90.89819
1011.11        76.01575
1011.49        76.08916
1011.86        80.50726
1012.24        83.73417
1012.62        84.42895
1013.00        83.25351
1013.38        80.42474
1013.76        78.19712
1014.14        84.19338
1014.52        104.7373
1014.90        141.8815
1015.28        186.6672
1015.66        213.4894
1016.04        205.3628
1016.41        164.3308
1016.79        111.9864
1017.17        75.52444
1017.55         59.6146
1017.93        54.59893
1018.31        54.70127
1018.69        56.81995
1019.06         60.3756
1019.44        66.22208
1019.82        77.09134
1020.20        96.62894
1020.58        130.1314
1020.95        189.4004
1021.33        312.5747
1021.71       -1388.222
1022.09       -10.03827
1022.46        69.77314
1022.84        98.17339
1023.22        113.4089
1023.60        129.8822
1023.97        240.3652
1024.35        61.55598
1024.73         84.4578
