SpectraSmart Spectrum 2.9.0.0
--------- Device Information -----------
Spectrum Name :  反射率_0
Saving Time :  2024/04/25 22:58:24
Spectro-Module Model Name : SE2030-DUVN
Spectro-Module Serial Number : OS361AC55029948
Wavelength Start : 200
Wavelength End : 1025
Wavelength Unit : Wavelength(nm)
Spectrum Unit : Reflectance(%)
-----------Spectrum Setting ------------
Integration Time : 20ms
Average : 10
Boxcar : 0
Background removal :  enabled
linearity correction :  enabled
SC :  disabled
Intensity correction :  disabled
DWT denoise :  enabled
savitzky-golay :  disabled
FFT :  disabled
Running average :  disabled
Kalman :  disabled
High pass :  disabled
---------------BEGIN--------------------
Wavelength(nm)             Reflectance(%)
200.29               0
200.75        78.56371
201.21        76.90157
201.67         74.3472
202.13        72.00916
202.58        70.12626
203.04        68.67976
203.50        67.91048
203.96        68.28886
204.42        69.64902
204.88        71.63957
205.34        73.63779
205.80        75.19559
206.26        76.55445
206.72        78.22727
207.18         80.9907
207.64        84.84089
208.10        85.81077
208.55        83.18857
209.01        80.57085
209.47        78.81305
209.93        77.31821
210.39        76.02221
210.85        73.72455
211.31         68.5717
211.77        60.98013
212.23        52.02396
212.69        44.82447
213.14        44.18115
213.60          50.513
214.06        62.60975
214.52        76.54591
214.98        86.10597
215.44        89.45224
215.90        88.16827
216.36        84.55307
216.81        81.87182
217.27        81.31443
217.73        81.81675
218.19        82.01306
218.65        80.04522
219.11        75.15181
219.57        66.83833
220.02        56.36057
220.48        50.72171
220.94        53.65696
221.40        63.21251
221.86        72.24874
222.32        73.45234
222.77        67.66752
223.23        59.14396
223.69          51.953
224.15        50.30743
224.61        53.75746
225.06        60.18646
225.52        66.76877
225.98        69.96723
226.44        69.15936
226.90         65.9618
227.36        62.18052
227.81        60.18859
228.27        60.82045
228.73        62.91056
229.19        65.74493
229.65        68.29739
230.10        70.03357
230.56        71.34838
231.02        72.10428
231.48        72.12342
231.93         71.4801
232.39        70.29918
232.85        68.94119
233.31        68.07624
233.77         67.8468
234.22        68.13944
234.68        68.55272
235.14        68.29028
235.60         67.1885
236.05        65.59254
236.51        64.02428
236.97        63.13343
237.43        63.06932
237.88        63.74659
238.34        64.88867
238.80        66.02853
239.26        66.75869
239.71        67.31803
240.17        67.37334
240.63        67.03125
241.08         66.5308
241.54        65.77935
242.00         65.2011
242.46        65.36971
242.91        66.83162
243.37        70.63053
243.83        82.54622
244.28        120.8172
244.74        162.6935
245.20        138.2941
245.66        116.1555
246.11        109.0821
246.57        109.8379
247.03        118.5477
247.48        145.0426
247.94        126.3914
248.40        96.41247
248.85        87.88426
249.31        85.90977
249.77        86.29224
250.22        88.10573
250.68        91.38071
251.14        95.71806
251.59        97.21582
252.05        92.98947
252.51        85.67889
252.96        78.36858
253.42        73.89205
253.88        71.75331
254.33        70.87305
254.79         72.2599
255.25        76.55444
255.70        82.48418
256.16        89.01242
256.62        93.49026
257.07        93.33498
257.53        89.60475
257.99        83.45465
258.44        77.18412
258.90        74.36893
259.35        74.10843
259.81        75.05602
260.27        75.13678
260.72        72.36665
261.18         67.5867
261.63        61.73938
262.09        56.49279
262.55        53.05054
263.00        51.33513
263.46        50.77281
263.91        50.50465
264.37        49.96756
264.83        48.94519
265.28        47.56559
265.74        46.18999
266.19        45.05363
266.65        44.37165
267.11        43.94883
267.56        43.54849
268.02        42.91085
268.47        41.94103
268.93        40.76947
269.38        39.54488
269.84        38.72065
270.30        38.39967
270.75        38.45168
271.21        38.64063
271.66        38.61644
272.12        38.26985
272.57        37.68921
273.03        37.03559
273.48        36.46109
273.94        36.05461
274.39        35.73414
274.85         35.4336
275.31        35.03415
275.76        34.50355
276.22        33.91579
276.67        33.35147
277.13        33.03015
277.58        32.91151
278.04        32.95708
278.49        32.94598
278.95         32.6538
279.40        32.01547
279.86        31.18234
280.31        30.29417
280.77        29.69142
281.22        29.38855
281.68        29.30862
282.13        29.29342
282.59         29.1689
283.04        28.87858
283.50        28.52855
283.95        28.14184
284.41        27.78247
284.86        27.46279
285.32        27.16365
285.77        26.92851
286.22        26.89655
286.68         27.0467
287.13        27.30621
287.59        27.50223
288.04        27.35642
288.50        26.86183
288.95        26.10162
289.41        25.28969
289.86        24.63549
290.32        24.25748
290.77        24.07176
291.22        24.05057
291.68        24.10941
292.13        24.21452
292.59        24.39001
293.04        24.63255
293.50        24.93806
293.95        25.28214
294.40        25.62611
294.86        25.93189
295.31        26.15789
295.77        26.30598
296.22        26.40128
296.68         26.4695
297.13         26.5236
297.58        26.59958
298.04        26.71634
298.49        26.92526
298.95        27.33809
299.40         27.9478
299.85        28.70613
300.31         29.4963
300.76        30.14495
301.21        30.58534
301.67        30.88379
302.12        31.05511
302.58        31.18604
303.03        31.28949
303.48        31.35667
303.94        31.46085
304.39        31.67882
304.84         32.0213
305.30        32.45628
305.75         32.8562
306.20        33.03361
306.66        32.97758
307.11        32.74257
307.57        32.46189
308.02        32.25699
308.47        32.19701
308.93        32.23917
309.38        32.36338
309.83        32.57031
310.29        32.82656
310.74        33.11494
311.19        33.36944
311.65        33.48576
312.10        33.44158
312.55        33.26855
313.00        33.00397
313.46        32.72738
313.91         32.4683
314.36        32.22633
314.82        32.04928
315.27        31.98965
315.72        32.05512
316.18        32.22766
316.63        32.43261
317.08        32.52015
317.53        32.44867
317.99        32.24418
318.44        31.99586
318.89        31.85318
319.35        31.84367
319.80        31.93246
320.25        32.01324
320.70        31.91284
321.16        31.60062
321.61        31.14114
322.06         30.6624
322.51        30.35596
322.97        30.25434
323.42        30.30598
323.87        30.40127
324.32        30.35749
324.78        30.12339
325.23         29.7686
325.68        29.37092
326.13         29.0596
326.59        28.87353
327.04         28.7922
327.49        28.78485
327.94        28.80736
328.39        28.83891
328.85        28.88111
329.30         28.9624
329.75        29.08084
330.20        29.23002
330.66         29.3817
331.11        29.51852
331.56        29.57355
332.01        29.53209
332.46        29.39561
332.92        29.21689
333.37        29.13283
333.82        29.16975
334.27        29.31673
334.72        29.46775
335.17        29.43847
335.63        29.18842
336.08        28.77691
336.53        28.37175
336.98        28.24673
337.43         28.4574
337.88        28.92689
338.34        29.42871
338.79        29.63942
339.24          29.455
339.69        28.97466
340.14        28.43428
340.59        28.24323
341.05        28.49367
341.50        29.04132
341.95        29.65653
342.40         30.0121
342.85        30.03149
343.30         29.8312
343.75        29.51456
344.20        29.26124
344.66          29.138
345.11        29.04717
345.56        28.99818
346.01        29.00655
346.46        29.05481
346.91        29.17123
347.36        29.22518
347.81         28.9973
348.26        28.48182
348.72        27.77937
349.17        27.11009
349.62        26.91643
350.07        27.28436
350.52        28.05477
350.97        28.95573
351.42        29.57081
351.87        29.78235
352.32        29.70901
352.77         29.4617
353.22        29.22473
353.67        29.06652
354.13        28.92858
354.58        28.79727
355.03        28.69682
355.48        28.62509
355.93        28.60457
356.38        28.58969
356.83        28.48949
357.28        28.28779
357.73        28.00408
358.18        27.71004
358.63        27.52187
359.08        27.46602
359.53        27.51463
359.98        27.58248
360.43        27.53675
360.88         27.3499
361.33        27.05571
361.78        26.75966
362.23        26.63326
362.68         26.7021
363.13        26.89852
363.58        27.08411
364.03        27.04535
364.48        26.74181
364.93        26.25741
365.38        25.71249
365.83        25.29843
366.28        25.07703
366.73         24.9878
367.18        24.99465
367.63        25.03681
368.08        25.07609
368.53        25.12971
368.98        25.15511
369.43        25.07993
369.88        24.89849
370.33        24.63111
370.78        24.33603
371.23        24.12121
371.68        24.02145
372.13        24.00697
372.58         24.0632
373.03        24.15705
373.48        24.26248
373.93        24.38548
374.38        24.48032
374.83        24.47712
375.28        24.36662
375.72        24.15356
376.17        23.92309
376.62        23.77856
377.07        23.74887
377.52        23.80309
377.97        23.88697
378.42        23.91125
378.87        23.84883
379.32        23.72656
379.77        23.57888
380.22        23.45176
380.67        23.35755
381.11         23.2876
381.56        23.20899
382.01        23.07838
382.46        22.89284
382.91        22.66937
383.36        22.46783
383.81         22.3804
384.26         22.4185
384.71        22.54598
385.15        22.67119
385.60        22.67776
386.05        22.53149
386.50        22.26509
386.95        21.95487
387.40        21.73789
387.85        21.66164
388.29        21.68349
388.74        21.74751
389.19        21.73955
389.64         21.6411
390.09        21.47534
390.54        21.32547
390.98        21.32539
391.43        21.50011
391.88        21.78411
392.33         22.0397
392.78        22.06903
393.23        21.85677
393.67        21.47754
394.12        21.10098
394.57        20.88908
395.02        20.87948
395.47        21.01254
395.91         21.2281
396.36        21.38693
396.81        21.44257
397.26        21.42032
397.71        21.34678
398.15        21.24073
398.60        21.14603
399.05        21.06007
399.50        20.96319
399.95        20.77083
400.39        20.57447
400.84        20.32317
401.29        20.11526
401.74        20.08354
402.18        20.26313
402.63        20.58612
403.08        20.94092
403.53        21.14589
403.97        21.15405
404.42        21.01588
404.87        20.80137
405.32        20.63633
405.76        20.56263
406.21         20.5482
406.66        20.57169
407.11        20.61149
407.55        20.66096
408.00        20.72453
408.45        20.78421
408.90        20.78858
409.34         20.7266
409.79        20.61561
410.24        20.49823
410.68        20.43531
411.13        20.44539
411.58        20.51241
412.03        20.61186
412.47         20.7029
412.92        20.75299
413.37        20.77273
413.81        20.77636
414.26        20.80555
414.71        20.85712
415.15        20.91982
415.60        20.94746
416.05        20.88668
416.49        20.73351
416.94        20.52557
417.39        20.31156
417.83        20.17173
418.28        20.13891
418.73        20.17767
419.17        20.27964
419.62        20.42875
420.07        20.60547
420.51        20.81034
420.96        20.97655
421.41        20.99064
421.85        20.83302
422.30        20.57111
422.74        20.29074
423.19        20.15899
423.64        20.19198
424.08        20.35587
424.53        20.57505
424.98         20.7507
425.42         20.8492
425.87        20.87994
426.31        20.86175
426.76        20.88462
427.21        20.93242
427.65        20.84117
428.10         20.6925
428.54        20.75544
428.99        21.04836
429.44         21.4551
429.88        21.79446
430.33        21.85361
430.77        21.59807
431.22        21.09962
431.66        20.56937
432.11        20.44166
432.56        20.75023
433.00        21.18388
433.45        21.54298
433.89        21.95992
434.34        22.23054
434.78        21.75965
435.23        20.94787
435.67        20.89583
436.12         21.5437
436.57        21.91844
437.01        21.88065
437.46         21.8599
437.90        21.88042
438.35          21.819
438.79        21.69891
439.24        21.61849
439.68        21.60799
440.13         21.5565
440.57        21.51086
441.02         21.8234
441.46        22.32024
441.91        22.25239
442.35        21.71858
442.80        21.44261
443.24        21.43777
443.69        21.56087
444.13         21.7105
444.58        21.55773
445.02        21.18193
445.47        21.15963
445.91        21.43069
446.36        21.46194
446.80        21.22903
447.24        21.03444
447.69        20.93887
448.13        20.89918
448.58        20.93444
449.02        21.04622
449.47        21.18669
449.91        21.27561
450.36        21.29462
450.80        21.25997
451.25        21.20929
451.69        21.19021
452.13        21.21971
452.58        21.26814
453.02        21.32606
453.47        21.38173
453.91        21.43149
454.36        21.49176
454.80        21.53654
455.24        21.51574
455.69        21.43683
456.13        21.30335
456.58        21.20666
457.02        21.25151
457.46        21.45769
457.91         21.7775
458.35        22.10065
458.79        22.25111
459.24        22.20417
459.68        22.00348
460.13          21.766
460.57        21.62377
461.01        21.63336
461.46        21.74608
461.90        21.90518
462.34        22.01952
462.79        22.05535
463.23        22.03608
463.68        22.00957
464.12        22.06022
464.56        22.20366
465.01        22.42533
465.45        22.60525
465.89        22.65523
466.34        22.57781
466.78        22.27849
467.22        21.93326
467.67        22.04786
468.11        22.55365
468.55        22.78845
468.99        22.68047
469.44        22.57748
469.88        22.56272
470.32        22.71115
470.77        22.96696
471.21        23.07062
471.65        22.99489
472.10         22.9523
472.54         22.9737
472.98        23.02473
473.42        23.11414
473.87        23.26145
474.31        23.41335
474.75         23.4845
475.20        23.46778
475.64        23.37818
476.08        23.28454
476.52        23.29122
476.97        23.42194
477.41         23.6486
477.85        23.89495
478.29        24.08182
478.74        24.18653
479.18        24.11345
479.62        23.93841
480.06        24.18478
480.50        24.37413
480.95        24.55854
481.39        24.53828
481.83        24.51662
482.27        24.49331
482.72        24.26039
483.16        23.94888
483.60        24.07278
484.04        24.63106
484.48        24.95686
484.93        25.33966
485.37        25.82683
485.81        26.23587
486.25        26.55775
486.69        35.18654
487.14        27.62677
487.58        18.06536
488.02        22.58455
488.46         25.5937
488.90         25.8282
489.34        25.87606
489.79        25.63627
490.23        26.94509
490.67        27.59437
491.11        27.32761
491.55        27.26807
491.99        27.32784
492.43        27.23992
492.88        27.07568
493.32        27.14716
493.76        27.27044
494.20        27.54435
494.64        27.88128
495.08        28.24741
495.52        28.63048
495.96        29.02968
496.41        29.35222
496.85        29.62596
497.29        29.80868
497.73         29.3752
498.17        28.75377
498.61        29.05035
499.05        30.23542
499.49        30.49354
499.93        30.52121
500.37        30.59566
500.82        30.65848
501.26         30.9451
501.70        31.30678
502.14        31.50744
502.58        31.49919
503.02         31.5055
503.46         31.5343
503.90        31.43075
504.34        31.26321
504.78        31.22063
505.22        31.33183
505.66        31.55183
506.10        31.80114
506.54        31.94292
506.98        31.94359
507.42        31.84834
507.86        31.75219
508.30        31.80103
508.74        32.02309
509.18        32.36396
509.62        32.73024
510.06        32.97124
510.50        33.04591
510.94        33.00686
511.38        32.91851
511.82        32.88062
512.26        32.92664
512.70        33.02304
513.14        33.15091
513.58        33.28166
514.02        33.39119
514.46        33.48368
514.90        33.55221
515.34        33.55183
515.78        33.45685
516.22        33.41307
516.66        33.43828
517.10         33.1836
517.54        32.65355
517.98        33.22249
518.42        32.95163
518.86        33.20552
519.30        33.38969
519.74        33.66548
520.18        33.94574
520.62         34.0668
521.06        34.02015
521.50        33.83799
521.93        33.59745
522.37        33.43322
522.81        33.38741
523.25        33.42419
523.69        33.51118
524.13        33.59705
524.57         33.6605
525.01        33.71604
525.45        33.76191
525.89        33.79256
526.32         33.8011
526.76        33.78111
527.20        33.72701
527.64        33.64611
528.08        33.55088
528.52        33.41726
528.96        33.24775
529.40        33.13626
529.83        33.11008
530.27        32.81337
530.71        32.89418
531.15        32.82692
531.59         32.8048
532.03        32.80334
532.46        32.85077
532.90        32.98398
533.34         33.1832
533.78        33.42317
534.22        33.62194
534.66        33.66362
535.09        33.52644
535.53        33.26655
535.97         32.9572
536.41        32.72472
536.85        32.61347
537.28        32.59549
537.72        32.64708
538.16         32.7287
538.60        32.82044
539.04        32.90762
539.47        32.98603
539.91         33.1342
540.35        33.31494
540.79        33.38638
541.22        33.36423
541.66        33.41262
542.10        33.53862
542.54        33.64564
542.97        33.74423
543.41        33.90542
543.85        34.12449
544.29        34.39785
544.72         34.6498
545.16        34.77613
545.60        34.75982
546.04        34.62764
546.47        34.51138
546.91        34.63283
547.35        35.01724
547.79        35.60448
548.22        36.20171
548.66          36.481
549.10        36.39848
549.53        36.11065
549.97        35.82011
550.41        35.75475
550.84        35.98552
551.28        36.45353
551.72         37.0312
552.15        37.48549
552.59        37.73773
553.03        37.85445
553.46        37.88992
553.90        37.96098
554.34        38.10255
554.77        38.23596
555.21        38.33028
555.65        38.45995
556.08        38.63789
556.52        38.38541
556.96        38.62694
557.39        38.66348
557.83        38.78114
558.27        38.95062
558.70        39.16636
559.14        39.36581
559.57        39.53861
560.01        39.77768
560.45        40.02382
560.88        40.14365
561.32        40.13363
561.75         39.9662
562.19        39.74985
562.63        39.65279
563.06        39.69974
563.50        39.81429
563.93        39.95771
564.37        40.13794
564.80        40.30863
565.24        40.43298
565.68        40.50453
566.11         40.5682
566.55        40.65518
566.98        40.71943
567.42        40.80102
567.85        40.97559
568.29        41.27236
568.72        41.54214
569.16        41.80983
569.60        42.22855
570.03        42.60156
570.47        42.53374
570.90        42.23608
571.34        41.54333
571.77         42.1005
572.21        42.20515
572.64        42.20638
573.08        41.69315
573.51        40.57206
573.95        42.24383
574.38        44.60765
574.82        43.65014
575.25        43.48279
575.69        42.04784
576.12        41.27603
576.56        41.10173
576.99        42.01076
577.42        43.84383
577.86        43.81753
578.29         43.3735
578.73         45.6118
579.16        41.93281
579.60        38.34789
580.03        40.11576
580.47        42.90005
580.90        43.38653
581.33        42.82561
581.77        42.23737
582.20        45.97129
582.64        45.29188
583.07         38.7209
583.51        38.03017
583.94         37.4895
584.37        39.29131
584.81        41.30094
585.24         43.2636
585.68        43.91304
586.11        43.12003
586.54        40.20434
586.98         38.9733
587.41        39.28039
587.85        41.34237
588.28        42.31197
588.71        40.46576
589.15        38.99802
589.58        39.95257
590.01        40.13806
590.45        40.93513
590.88        41.56115
591.31        41.11762
591.75         40.7145
592.18        40.63255
592.61        41.36144
593.05        42.26151
593.48        43.92335
593.91        43.81858
594.35        40.63721
594.78        39.87292
595.21        40.02198
595.65        41.93614
596.08        43.48956
596.51        41.95883
596.94        41.08345
597.38        41.71727
597.81        43.52613
598.24        44.81515
598.68        43.72412
599.11        43.85664
599.54        45.93889
599.97        46.79043
600.41        44.23671
600.84         44.6078
601.27        45.87415
601.70        45.42556
602.14         45.8916
602.57         45.4065
603.00        46.08551
603.43        47.59673
603.87        48.84612
604.30        48.92981
604.73        47.93979
605.16        47.47881
605.60        48.58067
606.03        49.73861
606.46        50.76312
606.89         50.7428
607.32          49.945
607.76        50.13949
608.19        52.09601
608.62        51.75213
609.05        51.29701
609.48        51.91645
609.92        51.82888
610.35        52.19433
610.78         54.1012
611.21        54.47712
611.64        52.67653
612.07         53.4763
612.50        54.09323
612.94        54.70491
613.37        54.49048
613.80        54.96665
614.23         55.4757
614.66        55.65744
615.09        56.08603
615.52        56.35278
615.96        56.55114
616.39        56.78429
616.82        56.11636
617.25        56.37771
617.68        57.15785
618.11        58.08624
618.54        58.40797
618.97         58.2015
619.40        57.70295
619.84         57.6124
620.27        58.84371
620.70        59.53333
621.13        59.79298
621.56        59.46054
621.99        58.92112
622.42        59.61856
622.85        61.11634
623.28        60.98624
623.71        60.54118
624.14        60.14796
624.57        60.17887
625.00        60.02003
625.43        60.09493
625.86        59.63222
626.29        59.88336
626.72        60.09253
627.15         59.9532
627.58        59.91232
628.01        59.73476
628.44        59.86201
628.87        60.12816
629.30        59.53804
629.73        59.78179
630.16        60.11329
630.59        59.32473
631.02        58.94339
631.45        58.56081
631.88        58.07498
632.31        57.43843
632.74        57.60197
633.17        56.95314
633.60         56.7271
634.03         56.4351
634.46        56.13562
634.89        55.81273
635.32        55.47084
635.75        55.12802
636.18        54.76666
636.61        54.40107
637.04        54.05407
637.47        53.72429
637.89        53.40485
638.32        53.07558
638.75        52.74253
639.18        52.40845
639.61        52.08653
640.04        51.75708
640.47        51.38194
640.90        50.96503
641.33        50.52013
641.76        50.09563
642.18        49.84496
642.61         49.7901
643.04        49.77197
643.47        49.69847
643.90        50.06509
644.33        49.80778
644.76        49.79295
645.18        49.72724
645.61        49.65529
646.04        49.58087
646.47        49.48335
646.90         49.4421
647.33        49.54937
647.75        49.83577
648.18        50.31484
648.61        50.80337
649.04        51.01759
649.47        50.92389
649.89        50.48066
650.32        50.04992
650.75        50.39158
651.18        51.45363
651.61        52.49204
652.03        53.17969
652.46        53.51066
652.89         53.7671
653.32        53.65157
653.74        53.43876
654.17        55.00587
654.60        55.92274
655.03         54.1786
655.46        55.45022
655.88        58.92336
656.31        63.12114
656.74        140.1163
657.16        89.43993
657.59        31.66529
658.02        24.53105
658.45        43.17359
658.87        56.09118
659.30        59.10886
659.73        58.68733
660.15        56.80912
660.58        59.31622
661.01        61.12971
661.44        59.50218
661.86        59.02961
662.29        59.11181
662.72        60.07524
663.14        61.65886
663.57         61.8193
664.00        60.79678
664.42        60.72371
664.85        61.69091
665.27        62.37526
665.70         62.5621
666.13        62.64769
666.55        62.61046
666.98        62.34078
667.41        62.02472
667.83        62.00895
668.26         62.3676
668.69        62.97128
669.11        63.58387
669.54        64.13367
669.96        63.94485
670.39        63.61165
670.82        63.18787
671.24        63.09055
671.67        63.42583
672.09        64.00685
672.52        64.56834
672.94        65.19642
673.37        64.76176
673.80        64.75018
674.22        64.90305
674.65        65.01796
675.07        65.08678
675.50        65.11494
675.92        65.15093
676.35        65.30669
676.77        65.59367
677.20        65.90816
677.62        66.21299
678.05        66.44685
678.47        66.57398
678.90         66.6411
679.32           66.69
679.75        66.60831
680.17        66.66174
680.60         66.8371
681.02        66.87834
681.45        66.80679
681.87        66.57447
682.30        66.53638
682.72        66.71324
683.15        66.71494
683.57        66.68148
684.00        67.19574
684.42        68.23487
684.85        68.73196
685.27        68.63139
685.70        68.39472
686.12        68.14854
686.54        67.98178
686.97        67.95171
687.39        68.04721
687.82        68.20874
688.24        68.39019
688.66        68.54592
689.09        68.69454
689.51         68.8609
689.94        69.05406
690.36        69.28153
690.78        69.52431
691.21        69.74097
691.63        69.87837
692.06        69.93229
692.48        69.93149
692.90        69.94428
693.33          70.048
693.75        70.25696
694.17        70.59302
694.60        70.99223
695.02         71.2059
695.44        71.21123
695.87        71.49899
696.29        72.02482
696.71        71.85313
697.14        71.20634
697.56        71.64787
697.98        72.93165
698.41        72.83328
698.83        72.10385
699.25        71.73391
699.68        71.97742
700.10        72.00984
700.52        71.83417
700.94        71.87685
701.37        72.12739
701.79        72.46235
702.21        72.81873
702.64        73.22953
703.06          73.577
703.48        73.66701
703.90        73.48884
704.33        73.10755
704.75        72.67552
705.17        72.52984
705.59        72.75106
706.01        73.11919
706.44        73.49332
706.86        74.23588
707.28        74.27778
707.70        74.56667
708.12        74.77529
708.55        74.57507
708.97         74.0984
709.39        74.02001
709.81        74.35746
710.23        74.52367
710.66        74.49754
711.08        74.69273
711.50        75.01031
711.92         75.1163
712.34        74.97865
712.76         74.6745
713.19        74.37266
713.61        74.38025
714.03        74.74349
714.45        75.36819
714.87        76.00521
715.29        76.26197
715.71         76.0562
716.13         75.5189
716.56        74.93147
716.98        74.69717
717.40        74.90336
717.82        75.57455
718.24        76.51773
718.66        76.51937
719.08        76.85541
719.50         76.5377
719.92        76.13278
720.34         75.8631
720.76        75.82301
721.19        75.79189
721.61        75.95796
722.03        76.13576
722.45        76.35892
722.87        76.64094
723.29        76.93999
723.71        77.16798
724.13        77.29762
724.55        77.33425
724.97        77.31884
725.39        77.33421
725.81        77.40157
726.23        77.50002
726.65        77.59503
727.07        77.62758
727.49        77.59338
727.91        77.52951
728.33        77.47359
728.75        77.48428
729.17        77.57378
729.59        77.70697
730.01         77.8839
730.43          78.096
730.85        78.33335
731.27        78.62771
731.69        78.88474
732.10        78.93164
732.52        78.73923
732.94        78.39522
733.36        78.10679
733.78        78.05038
734.20        78.27914
734.62        79.11114
735.04         80.2113
735.46        80.20432
735.88        79.36922
736.30        79.55115
736.72        80.77116
737.13        81.54095
737.55         81.4593
737.97        81.34801
738.39        81.27713
738.81        80.28958
739.23        78.95435
739.65        79.85114
740.06        82.40223
740.48        82.73203
740.90        80.92803
741.32        80.19304
741.74        80.81245
742.16        81.17825
742.57          81.328
742.99        82.14979
743.41         83.3762
743.83        84.07648
744.25        84.09616
744.67        83.67187
745.08        83.12235
745.50        82.96558
745.92        83.35107
746.34        84.09782
746.75         84.9328
747.17        85.40434
747.59        85.41441
748.01        85.10439
748.42         84.7427
748.84        84.74405
749.26        85.21666
749.68        85.97415
750.09        86.78202
750.51        87.32156
750.93        87.47598
751.35         87.1725
751.76        86.60938
752.18         86.4241
752.60        86.60537
753.01        86.57841
753.43        86.43037
753.85        86.61652
754.27        87.13136
754.68        88.09499
755.10        89.31249
755.52        89.11259
755.93        89.41071
756.35        89.43641
756.77        89.82394
757.18        89.79279
757.60        89.47887
758.02        89.91714
758.43        90.56927
758.85        90.24088
759.26        87.80292
759.68        87.19283
760.10        89.63268
760.51        90.79522
760.93        90.23563
761.34        89.26699
761.76        88.68492
762.18        87.70687
762.59        86.95052
763.01        87.51188
763.42        89.24155
763.84        90.27667
764.26         90.3819
764.67        90.47015
765.09        90.53851
765.50        90.31654
765.92        89.78884
766.33        88.47166
766.75        86.89636
767.16        86.49023
767.58        87.42521
768.00        89.16447
768.41        91.28011
768.83        92.88559
769.24          93.336
769.66        92.47372
770.07        90.86931
770.49         88.9603
770.90        87.36184
771.32        88.34962
771.73        91.15176
772.15        90.83528
772.56        87.87627
772.97        87.49812
773.39        89.58163
773.80        90.37334
774.22        89.59296
774.63        89.42878
775.05         89.8906
775.46        90.13132
775.88        90.07308
776.29        89.93967
776.70        89.79275
777.12        89.78123
777.53        89.94855
777.95        90.17983
778.36        90.35726
778.77        90.27297
779.19        89.94066
779.60        89.42989
780.02         88.9377
780.43        88.89112
780.84        89.42868
781.26        89.84783
781.67         90.1231
782.09        91.45967
782.50        93.15808
782.91        92.01806
783.33        88.92719
783.74        87.98146
784.15        89.38435
784.57        90.58963
784.98        91.12756
785.39        91.29665
785.81        91.04362
786.22        90.63622
786.63        90.34817
787.04        90.12814
787.46        90.15925
787.87        91.01168
788.28        92.33739
788.70        92.94012
789.11        92.65279
789.52        92.08329
789.93         91.5257
790.35        91.07323
790.76          90.908
791.17        91.36178
791.58        92.19609
792.00        92.54105
792.41        92.24408
792.82        91.88719
793.23        91.70801
793.65        91.11648
794.06        90.51508
794.47        91.83202
794.88        94.17901
795.29        93.92737
795.71        91.29016
796.12        89.22749
796.53        88.34486
796.94        87.67438
797.35        87.47391
797.76        88.76847
798.18        90.90362
798.59        92.10501
799.00        91.93104
799.41        90.97504
799.82        89.75511
800.23        89.02192
800.64        89.00235
801.06        89.36512
801.47        89.97829
801.88        90.51423
802.29        90.82656
802.70         91.0342
803.11        91.13701
803.52        91.11137
803.93        90.99623
804.34        90.75912
804.75        90.49541
805.17        90.52494
805.58        90.95936
805.99         91.2522
806.40        91.31197
806.81        92.14156
807.22         93.1269
807.63        91.71603
808.04        88.69588
808.45        87.51549
808.86        88.46823
809.27        89.82214
809.68         91.0012
810.09        91.72169
810.50        91.70148
810.91        91.02081
811.32        90.07841
811.73        89.58955
812.14         89.6953
812.55        90.01926
812.96         90.4369
813.37        90.80999
813.78        91.06712
814.19        91.41666
814.60        91.66137
815.01        91.37489
815.42        90.54739
815.83        89.30539
816.24        88.13002
816.65        87.83087
817.05        88.64329
817.46        90.29856
817.87        92.14373
818.28        92.99334
818.69        92.52431
819.10        91.02944
819.51         89.2315
819.92        88.36967
820.33        88.77607
820.74        90.06754
821.14        91.59081
821.55        92.19851
821.96        91.62629
822.37        90.23985
822.78        88.63354
823.19        87.71237
823.60        87.70835
824.00        88.37553
824.41        89.28561
824.82        89.87739
825.23        89.91026
825.64        89.60371
826.04        89.16307
826.45        88.87699
826.86        88.83023
827.27        88.88586
827.68        89.00706
828.08        89.19629
828.49        89.35493
828.90        89.57138
829.31        89.75413
829.72        89.71545
830.12         89.4548
830.53        89.00652
830.94        88.60284
831.35        88.56164
831.75        88.98545
832.16        89.71786
832.57        90.59238
832.97        91.23431
833.38        91.42879
833.79        91.28785
834.20        90.98139
834.60        90.76997
835.01         90.7557
835.42        90.84568
835.82        90.93128
836.23        90.74578
836.64        90.28727
837.04        89.68154
837.45        89.10462
837.86        88.83098
838.26        88.93292
838.67        89.26682
839.08        89.72879
839.48        90.11402
839.89        90.29651
840.29        90.36181
840.70        90.27383
841.11        89.95738
841.51        89.44255
841.92        88.71818
842.33        88.02821
842.73        87.79258
843.14        88.05231
843.54        88.74454
843.95        89.47998
844.35        89.67336
844.76        89.17879
845.17        88.20602
845.57        87.13642
845.98        86.56516
846.38         86.6342
846.79        87.13281
847.19        87.83883
847.60         88.2458
848.00        88.23658
848.41        87.95307
848.81        87.57761
849.22        87.29948
849.62        87.24656
850.03        87.34648
850.43        87.62211
850.84        88.00733
851.24        88.50713
851.65        88.92082
852.05        89.39943
852.46        89.98518
852.86        90.65663
853.27        91.43176
853.67        91.73808
854.07        90.84039
854.48        88.80795
854.88         85.9307
855.29        83.23632
855.69        82.20896
856.10        83.13348
856.50        85.82266
856.90        89.34164
857.31         91.5006
857.71        91.56034
858.12        90.05579
858.52        87.97237
858.92        86.65469
859.33        86.40012
859.73        86.84261
860.13        87.71813
860.54        88.49008
860.94        89.01101
861.34        89.43001
861.75        89.76159
862.15        90.08999
862.55        90.39543
862.96        90.57539
863.36         90.6647
863.76         90.7019
864.17        90.70817
864.57        90.75378
864.97        90.82478
865.38        90.87791
865.78        90.95264
866.18        90.97564
866.58        91.04201
866.99        91.29107
867.39        91.80619
867.79        92.58354
868.19        93.25455
868.60        93.13044
869.00        92.10291
869.40        90.36369
869.80        88.75929
870.21        88.60828
870.61        90.26826
871.01        93.32651
871.41        96.72907
871.81        98.67252
872.22        98.63922
872.62        97.16422
873.02        95.22945
873.42        94.40867
873.82        95.04176
874.22        96.65163
874.63        98.60322
875.03        99.53376
875.43        98.85388
875.83         97.3161
876.23        95.72178
876.63        95.57269
877.03        97.32235
877.44        101.3601
877.84        97.67712
878.24        109.4774
878.64        107.9688
879.04        103.8939
879.44        101.4276
879.84        100.0966
880.24        100.7668
880.64        102.6264
881.04        105.5126
881.44        107.1641
881.84        106.1958
882.24        103.4805
882.65        100.7041
883.05        99.89103
883.45        101.3744
883.85        104.6356
884.25         108.429
884.65        110.4585
885.05        109.9915
885.45         107.861
885.85        105.3318
886.25        104.1137
886.65        104.5811
887.05        106.1407
887.45        108.1863
887.85        109.6457
888.25        110.0905
888.65        109.9249
889.04        109.3177
889.44        108.5539
889.84        107.7777
890.24        106.8443
890.64        106.0108
891.04        105.7114
891.44        105.9906
891.84        106.8046
892.24        107.7094
892.64        107.8551
893.04        107.1182
893.44        105.8624
893.83        104.6624
894.23        104.3815
894.63         105.153
895.03        106.6223
895.43        108.5267
895.83         110.356
896.23        111.7852
896.63         112.934
897.02        113.4462
897.42        112.7719
897.82        110.9921
898.22        108.3761
898.62        105.7906
899.01        104.5033
899.41        104.7859
899.81        106.2097
900.21        108.1579
900.61        109.5792
901.00        110.1198
901.40        110.1104
901.80        109.7313
902.20        109.2822
902.59        108.9048
902.99        108.4295
903.39        107.9925
903.79        107.8676
904.18        108.0967
904.58        108.6847
904.98         109.351
905.38        109.6261
905.77        109.3924
906.17        108.7835
906.57          108.09
906.96        107.8023
907.36        107.9674
907.76         108.462
908.15        108.9594
908.55        108.8145
908.95        107.9523
909.34        106.5379
909.74        105.1347
910.14        104.4396
910.53        104.6651
910.93        105.6781
911.33         107.024
911.72        107.8838
912.12        107.9569
912.52        107.4508
912.91        106.9265
913.31        107.1625
913.70        108.3343
914.10        110.2608
914.49        112.2959
914.89        112.6358
915.29        110.7805
915.68        107.4529
916.08          104.24
916.47        102.6014
916.87        102.7184
917.26        104.0949
917.66        105.8687
918.05        106.6647
918.45        106.0977
918.84        104.6808
919.24        103.1855
919.64        102.7033
920.03        103.5336
920.42        105.2724
920.82        107.3827
921.21        109.1225
921.61        109.9956
922.00        110.2372
922.40        109.9616
922.79        109.2665
923.19        108.2676
923.58        107.0637
923.98        105.8033
924.37        104.5256
924.77        103.5394
925.16        103.5007
925.55         103.441
925.95        104.5273
926.34        106.3496
926.74        108.5602
927.13         110.632
927.52        111.5375
927.92        111.1855
928.31        109.8741
928.70        107.9751
929.10         106.147
929.49        104.6321
929.89        103.3117
930.28        102.5771
930.67        103.0654
931.07        104.6775
931.46        107.2619
931.85        109.8271
932.24        110.8714
932.64        110.0938
933.03        107.8197
933.42        104.6871
933.82        102.2489
934.21         101.064
934.60        100.7711
934.99        101.0486
935.39        101.4037
935.78        101.7256
936.17        102.3955
936.56         103.202
936.96        102.7179
937.35        101.7841
937.74        100.0663
938.13        98.82484
938.53        98.97112
938.92        100.4794
939.31        103.1885
939.70        106.3072
940.09        107.7131
940.49        106.6166
940.88        103.8899
941.27        100.8463
941.66        99.00906
942.05        98.63896
942.44        99.25611
942.84        100.4972
943.23        101.8721
943.62        103.0017
944.01         103.971
944.40        104.7577
944.79         105.336
945.18        105.6884
945.57        105.7399
945.97        105.1662
946.36        103.6586
946.75        101.5037
947.14        99.25365
947.53        97.57892
947.92         96.9731
948.31        97.38124
948.70        98.67754
949.09        100.5665
949.48        102.2341
949.87        103.1928
950.26        103.5017
950.65        103.4066
951.04        103.3984
951.43        103.6105
951.82        103.8594
952.21        103.8623
952.60        103.2387
952.99        101.9616
953.38        100.2343
953.77        98.53812
954.16        97.50997
954.55        97.27296
954.94        97.71518
955.33        98.28928
955.72        98.05611
956.11        96.82161
956.50        94.84631
956.89        92.94981
957.28        92.63556
957.66        94.36336
958.05         97.3866
958.44        100.7141
958.83        102.8803
959.22        103.4751
959.61        102.8692
960.00        101.5414
960.39        100.2821
960.78        99.40329
961.16         98.7454
961.55        98.09592
961.94        97.18991
962.33        96.02707
962.72        94.82224
963.11        93.92541
963.49        93.72598
963.88        94.24763
964.27        95.42072
964.66         96.7412
965.04        97.18721
965.43        96.33725
965.82        94.59766
966.21        92.83121
966.60        92.15677
966.98        92.75269
967.37        94.25035
967.76        95.99148
968.15        96.69828
968.53         95.9885
968.92        94.30175
969.31        92.38023
969.69        91.16858
970.08        90.90558
970.47        91.35865
970.86        92.07975
971.24        92.31426
971.63        91.79768
972.02        90.71309
972.40        89.74191
972.79        90.00813
973.17        91.93659
973.56         95.0954
973.95        98.36828
974.33        99.65767
974.72        98.37507
975.11        95.26127
975.49        91.90248
975.88        90.41814
976.26        91.13068
976.65         93.5891
977.04        96.58657
977.42        97.16031
977.81        94.28559
978.19        89.26389
978.58        84.67594
978.96        83.17162
979.35         85.1578
979.74         89.9988
980.12        96.65415
980.51        101.3713
980.89        102.7282
981.28        101.6256
981.66        99.32687
982.05        97.55702
982.43         96.6946
982.82        96.17759
983.20        96.06167
983.59        96.61517
983.97        97.88652
984.35        100.0086
984.74        102.1908
985.12        102.9861
985.51        101.4998
985.89        98.11906
986.28        93.94535
986.66        90.79319
987.04        89.50409
987.43        89.68158
987.81        90.58424
988.20        91.43339
988.58         92.0501
988.96        92.57561
989.35        93.42594
989.73        95.85284
990.12        99.30939
990.50        102.8483
990.88        104.3756
991.27        102.7486
991.65        98.40282
992.03        91.73863
992.42        84.99143
992.80        82.32598
993.18        84.74399
993.56        89.99709
993.95        95.46116
994.33         98.5319
994.71         98.8333
995.10        97.57851
995.48        95.40791
995.86        93.14928
996.24        91.16608
996.63        88.89847
997.01        87.01814
997.39        87.49895
997.77         90.8668
998.15        96.53016
998.54        101.8738
998.92        103.5345
999.30        100.5542
999.68        93.81752
1000.06        84.83468
1000.45        77.68981
1000.83        74.35251
1001.21        73.71804
1001.59        75.15698
1001.97        78.02102
1002.35        82.05441
1002.73        88.22551
1003.12        94.99652
1003.50        97.21852
1003.88        92.46211
1004.26        83.02885
1004.64        73.96813
1005.02        69.80531
1005.40        70.98029
1005.78        77.37178
1006.16        89.34007
1006.54        100.0824
1006.92        102.4097
1007.30        99.33113
1007.69        95.53591
1008.07        93.94557
1008.45        94.86367
1008.83        98.26238
1009.21        105.6019
1009.59        115.0409
1009.97        107.2009
1010.35        53.46843
1010.73        20.06105
1011.11        33.08264
1011.49         52.8442
1011.86        70.29959
1012.24        80.60163
1012.62        83.64173
1013.00        81.64622
1013.38        75.43425
1013.76        67.48599
1014.14        67.76378
1014.52        85.26662
1014.90        123.2921
1015.28        172.4555
1015.66        202.4571
1016.04        193.9171
1016.41        150.5401
1016.79        98.01029
1017.17         66.9297
1017.55        58.60643
1017.93        60.12142
1018.31        64.71912
1018.69         68.9285
1019.06        72.70709
1019.44        77.45152
1019.82        85.34722
1020.20         99.1154
1020.58        122.4462
1020.95        162.2337
1021.33           240.1
1021.71       -801.1743
1022.09        44.44029
1022.46        93.88198
1022.84        112.0255
1023.22        123.4296
1023.60        139.2252
1023.97        263.1412
1024.35          60.809
1024.73        89.96492
