SpectraSmart Spectrum 2.9.0.0
--------- Device Information -----------
Spectrum Name :  反射率_0
Saving Time :  2024/04/26 00:46:46
Spectro-Module Model Name : SE2030-DUVN
Spectro-Module Serial Number : OS361AC55029948
Wavelength Start : 200
Wavelength End : 1025
Wavelength Unit : Wavelength(nm)
Spectrum Unit : Reflectance(%)
-----------Spectrum Setting ------------
Integration Time : 20ms
Average : 10
Boxcar : 0
Background removal :  enabled
linearity correction :  enabled
SC :  disabled
Intensity correction :  disabled
DWT denoise :  enabled
savitzky-golay :  disabled
FFT :  disabled
Running average :  disabled
Kalman :  disabled
High pass :  disabled
---------------BEGIN--------------------
Wavelength(nm)             Reflectance(%)
200.29               0
200.75        91.32375
201.21        82.42564
201.67         72.2333
202.13        66.19968
202.58        64.95324
203.04        67.25438
203.50        71.08746
203.96        72.95666
204.42        72.03777
204.88        69.78535
205.34        67.60744
205.80        66.82336
206.26        67.87741
206.72        71.38304
207.18        78.75462
207.64        85.47385
208.10         81.4008
208.55        72.60536
209.01        67.19652
209.47        65.99255
209.93        67.41733
210.39         70.8141
210.85        74.43581
211.31        74.52618
211.77        70.09748
212.23        62.58661
212.69        55.53563
213.14        54.47016
213.60        60.00883
214.06        70.53751
214.52        81.89127
214.98        87.65833
215.44        86.41393
215.90        80.45092
216.36         72.8709
216.81         67.9887
217.27        67.03301
217.73        68.34074
218.19        69.97691
218.65        69.47911
219.11        65.91556
219.57        58.98763
220.02        49.46158
220.48         43.1062
220.94        43.22891
221.40        48.66624
221.86        53.90798
222.32        53.08112
222.77        46.87696
223.23        38.69329
223.69        32.08773
224.15        30.70228
224.61        33.96146
225.06        39.94079
225.52        45.63944
225.98        47.36852
226.44        44.56332
226.90        38.92021
227.36        32.67855
227.81        28.81771
228.27        28.29178
228.73        29.91947
229.19        32.63353
229.65        34.85579
230.10        36.04323
230.56        36.62915
231.02        36.96248
231.48        37.39164
231.93        37.96201
232.39        38.51233
232.85        38.78566
233.31        38.46905
233.77        37.50899
234.22        35.98802
234.68        34.33679
235.14        33.31904
235.60        33.22428
236.05        33.92765
236.51        34.89508
236.97        35.26618
237.43          34.869
237.88        33.91596
238.34        32.94845
238.80        33.43172
239.26        36.01263
239.71        40.26681
240.17         45.1458
240.63         49.2298
241.08        51.98483
241.54        53.61261
242.00        54.43717
242.46        55.07929
242.91        56.07532
243.37        57.44062
243.83        62.41088
244.28        88.04588
244.74        135.4901
245.20        132.9506
245.66        118.8627
246.11        113.5575
246.57        113.5565
247.03        117.3774
247.48        122.0832
247.94        89.76703
248.40        77.11282
248.85        76.77975
249.31        78.06359
249.77        79.36834
250.22        80.80058
250.68        82.71887
251.14        84.67165
251.59        83.75447
252.05        78.62048
252.51        71.70663
252.96        64.96451
253.42         59.8828
253.88        55.92213
254.33        52.54383
254.79        51.66414
255.25        55.19165
255.70        61.78419
256.16        69.47633
256.62        74.78507
257.07        74.33541
257.53        69.31071
257.99        61.56926
258.44        54.01462
258.90        50.70011
259.35        50.83357
259.81        52.53048
260.27        53.58066
260.72        51.92759
261.18        48.16154
261.63        43.24937
262.09        38.68281
262.55        35.57428
263.00        33.93549
263.46        33.27411
263.91        32.81962
264.37        31.93415
264.83        30.48868
265.28        28.63211
265.74        26.93735
266.19        26.04497
266.65         26.0688
267.11        26.60608
267.56        27.08153
268.02        26.78991
268.47        25.65527
268.93        23.93822
269.38        22.01753
269.84        20.77037
270.30        20.44213
270.75        20.78999
271.21        21.40513
271.66        21.68266
272.12        21.43758
272.57        20.85718
273.03        20.20273
273.48        19.79194
273.94        19.72044
274.39        19.83463
274.85        19.94076
275.31        19.77496
275.76         19.2868
276.22        18.60345
276.67        17.90621
277.13        17.51844
277.58        17.45005
278.04        17.60176
278.49        17.74659
278.95        17.60094
279.40        17.10994
279.86        16.43357
280.31        15.71632
280.77        15.26327
281.22        15.10143
281.68        15.13143
282.13        15.25043
282.59        15.33104
283.04        15.33169
283.50        15.32159
283.95        15.26376
284.41        15.10363
284.86        14.84895
285.32        14.51955
285.77        14.24575
286.22        14.27903
286.68        14.62095
287.13        15.16702
287.59        15.69137
288.04        15.85954
288.50        15.63076
288.95        15.11574
289.41        14.52174
289.86        14.07029
290.32        13.87577
290.77        13.85671
291.22        13.99116
291.68        14.21072
292.13        14.49155
292.59        14.85394
293.04        15.28903
293.50        15.77367
293.95         16.2804
294.40        16.77147
294.86        17.21544
295.31        17.58862
295.77        17.89109
296.22         18.1379
296.68        18.33992
297.13         18.4857
297.58        18.60824
298.04        18.74087
298.49        18.94288
298.95        19.33299
299.40        19.91472
299.85        20.63457
300.31        21.40387
300.76        22.09589
301.21        22.64144
301.67        23.08236
302.12        23.38106
302.58        23.53116
303.03        23.54264
303.48         23.4419
303.94         23.3574
304.39        23.45678
304.84        23.77567
305.30        24.25779
305.75         24.7609
306.20        25.06521
306.66        25.13974
307.11        25.04665
307.57        24.90557
308.02        24.83245
308.47        24.88622
308.93        25.01565
309.38        25.19794
309.83        25.42885
310.29        25.67638
310.74        25.93442
311.19        26.14331
311.65        26.20812
312.10        26.11622
312.55        25.90043
313.00        25.61283
313.46        25.35296
313.91        25.15054
314.36        24.99517
314.82        24.90837
315.27         24.9084
315.72        24.99116
316.18        25.14837
316.63         25.3168
317.08        25.36896
317.53         25.2736
317.99        25.05292
318.44        24.79536
318.89        24.64847
319.35        24.63932
319.80        24.72956
320.25        24.81744
320.70        24.73474
321.16        24.44695
321.61        24.01491
322.06        23.54614
322.51        23.20015
322.97        23.00804
323.42        22.92715
323.87        22.87936
324.32        22.73762
324.78        22.46695
325.23        22.11555
325.68        21.73833
326.13        21.42289
326.59        21.19315
327.04         21.0372
327.49        20.92454
327.94        20.80818
328.39        20.67527
328.85        20.53627
329.30        20.43685
329.75        20.42134
330.20        20.49705
330.66         20.6247
331.11         20.7749
331.56        20.86144
332.01        20.85529
332.46        20.76214
332.92        20.61092
333.37        20.47785
333.82        20.38527
334.27         20.3323
334.72        20.27024
335.17        20.11601
335.63        19.85921
336.08        19.53301
336.53        19.24943
336.98        19.18503
337.43         19.3663
337.88        19.73862
338.34        20.11988
338.79         20.2541
339.24        20.05676
339.69        19.60244
340.14        19.08042
340.59        18.82553
341.05        18.91369
341.50        19.23532
341.95        19.61812
342.40        19.80929
342.85         19.7463
343.30        19.52514
343.75        19.20943
344.20        18.91067
344.66        18.68011
345.11        18.44926
345.56        18.26794
346.01        18.21165
346.46        18.26958
346.91        18.43639
347.36        18.55333
347.81        18.35955
348.26        17.83539
348.72         17.1044
349.17        16.37132
349.62        16.05648
350.07        16.25778
350.52        16.82702
350.97        17.56292
351.42        18.15747
351.87        18.50244
352.32        18.67442
352.77         18.6917
353.22        18.58894
353.67        18.39802
354.13        18.10923
354.58        17.77293
355.03        17.51381
355.48        17.36761
355.93        17.32989
356.38        17.34845
356.83         17.3212
357.28        17.22082
357.73         17.0714
358.18        16.92468
358.63        16.86164
359.08        16.89482
359.53        16.99336
359.98        17.08194
360.43        17.04926
360.88        16.87635
361.33        16.59909
361.78        16.30995
362.23        16.15867
362.68        16.17332
363.13        16.29665
363.58        16.43331
364.03        16.43494
364.48        16.26669
364.93        15.98615
365.38        15.65013
365.83         15.3471
366.28        15.11527
366.73        14.92953
367.18        14.80376
367.63         14.7619
368.08        14.79484
368.53        14.89243
368.98        15.00372
369.43        15.04294
369.88        14.99387
370.33        14.88582
370.78        14.74622
371.23        14.62908
371.68         14.5556
372.13        14.49838
372.58        14.48953
373.03        14.58166
373.48         14.7658
373.93        15.02322
374.38        15.24313
374.83        15.25375
375.28        15.03171
375.72        14.62357
376.17        14.18828
376.62        13.94571
377.07        13.95577
377.52        14.14659
377.97        14.41822
378.42        14.60549
378.87        14.65343
379.32         14.6153
379.77        14.52326
380.22        14.42084
380.67        14.32783
381.11         14.2272
381.56         14.1255
382.01        14.04928
382.46        14.00183
382.91        13.97736
383.36        13.96734
383.81        13.95004
384.26        13.91911
384.71        13.88756
385.15        13.83401
385.60         13.7349
386.05        13.58665
386.50        13.38847
386.95        13.20464
387.40        13.14607
387.85        13.22882
388.29        13.41265
388.74        13.59164
389.19        13.61653
389.64        13.46999
390.09         13.1899
390.54         12.8933
390.98        12.77847
391.43        12.89477
391.88        13.16389
392.33        13.43821
392.78        13.50147
393.23         13.3263
393.67        12.99433
394.12          12.655
394.57        12.46497
395.02        12.45942
395.47        12.58164
395.91        12.76621
396.36        12.88027
396.81        12.88057
397.26        12.79665
397.71        12.67699
398.15        12.57765
398.60        12.53507
399.05        12.53472
399.50        12.52671
399.95        12.40787
400.39        12.22478
400.84        11.96246
401.29        11.73151
401.74        11.70601
402.18        11.92831
402.63        12.31949
403.08        12.73282
403.53        12.93517
403.97         12.8702
404.42        12.60983
404.87        12.26349
405.32        12.02446
405.76        11.95596
406.21        11.99981
406.66        12.10232
407.11        12.19224
407.55        12.24787
408.00        12.29129
408.45        12.31962
408.90        12.31295
409.34        12.26849
409.79        12.18614
410.24         12.0923
410.68        12.02805
411.13        12.00596
411.58        12.02346
412.03         12.0597
412.47        12.07851
412.92        12.06108
413.37        12.01323
413.81        11.97044
414.26        12.00078
414.71        12.10363
415.15        12.26144
415.60        12.38743
416.05        12.36263
416.49        12.16742
416.94        11.85557
417.39        11.52519
417.83        11.34453
418.28        11.36498
418.73        11.52015
419.17        11.74271
419.62        11.92151
420.07        12.02291
420.51        12.08164
420.96        12.08165
421.41        11.99339
421.85        11.82528
422.30        11.60464
422.74        11.39572
423.19        11.32071
423.64        11.38501
424.08        11.56328
424.53         11.7739
424.98         11.8909
425.42        11.87766
425.87        11.76554
426.31        11.59944
426.76        11.48883
427.21        11.44182
427.65        11.34939
428.10        11.26782
428.54        11.35286
428.99        11.60616
429.44        11.96309
429.88        12.27437
430.33        12.34041
430.77        12.13446
431.22        11.72013
431.66        11.28318
432.11        11.15097
432.56        11.35707
433.00        11.74932
433.45        12.15036
433.89        12.39788
434.34        12.38292
434.78        12.05294
435.23        11.64004
435.67        11.57235
436.12        11.82327
436.57        11.96536
437.01        11.92597
437.46         11.8841
437.90        11.85008
438.35        11.77715
438.79        11.68399
439.24         11.6331
439.68        11.63935
440.13        11.63138
440.57        11.61958
441.02        11.77757
441.46        12.00679
441.91        11.89485
442.35        11.51036
442.80         11.3036
443.24        11.25971
443.69        11.21092
444.13        11.12883
444.58        10.97703
445.02        10.80472
445.47        10.84033
445.91        11.02685
446.36        11.07151
446.80        10.94662
447.24        10.81216
447.69        10.70934
448.13        10.62749
448.58        10.58573
449.02        10.58346
449.47         10.5985
449.91        10.59398
450.36        10.56303
450.80        10.51193
451.25        10.46899
451.69        10.46697
452.13        10.51358
452.58        10.58619
453.02        10.65764
453.47        10.67952
453.91        10.64695
454.36        10.58035
454.80        10.50059
455.24        10.44414
455.69        10.42931
456.13        10.43577
456.58        10.47805
457.02        10.56132
457.46        10.68509
457.91        10.84157
458.35        10.98989
458.79        11.05524
459.24        11.03358
459.68        10.93321
460.13        10.82641
460.57         10.7937
461.01        10.86542
461.46        11.00805
461.90        11.16611
462.34         11.2377
462.79        11.20008
463.23        11.08024
463.68        10.94889
464.12        10.92312
464.56        11.03263
465.01        11.23809
465.45        11.44152
465.89        11.54061
466.34        11.52491
466.78        11.36969
467.22        11.17417
467.67        11.21143
468.11        11.45246
468.55        11.54951
468.99        11.48452
469.44        11.46369
469.88        11.53017
470.32        11.71549
470.77        11.94629
471.21        12.01555
471.65        11.89587
472.10         11.7295
472.54        11.58606
472.98        11.54372
473.42        11.63034
473.87        11.82157
474.31        12.05195
474.75        12.21166
475.20         12.2749
475.64        12.26623
476.08        12.23241
476.52        12.24545
476.97        12.32469
477.41        12.45138
477.85        12.58161
478.29        12.67117
478.74        12.71023
479.18        12.65097
479.62        12.54972
480.06        12.70438
480.50        12.86464
480.95        13.04836
481.39        13.11835
481.83        13.13507
482.27        13.09284
482.72        12.90169
483.16        12.66304
483.60        12.70193
484.04        13.03198
484.48        13.29062
484.93        13.61312
485.37        13.99264
485.81        14.32535
486.25        14.62815
486.69        19.26173
487.14        15.13655
487.58         10.1707
488.02        12.31311
488.46         13.9454
488.90        14.02029
489.34        14.20375
489.79        14.24035
490.23        15.05219
490.67        15.52945
491.11        15.47667
491.55        15.42459
491.99        15.34891
492.43          15.229
492.88        15.13059
493.32        15.16483
493.76        15.24234
494.20        15.45613
494.64        15.75837
495.08        16.12168
495.52         16.5016
495.96        16.85048
496.41         17.1038
496.85         17.2492
497.29        17.30168
497.73        17.12152
498.17        16.92398
498.61         17.1248
499.05         17.7182
499.49        17.86105
499.93        17.97515
500.37        18.09008
500.82        18.16376
501.26         18.3892
501.70        18.67459
502.14        18.86218
502.58        18.91298
503.02         18.9474
503.46        18.96768
503.90        18.88736
504.34         18.7586
504.78        18.71079
505.22         18.7684
505.66         18.9049
506.10        19.06979
506.54        19.17336
506.98        19.19441
507.42        19.16334
507.86        19.14249
508.30         19.2282
508.74        19.43482
509.18        19.71906
509.62        20.01476
510.06        20.21561
510.50        20.29277
510.94         20.2882
511.38        20.23352
511.82          20.178
512.26        20.14549
512.70        20.11629
513.14        20.12007
513.58        20.20657
514.02         20.3657
514.46        20.57625
514.90        20.76534
515.34        20.77948
515.78        20.56717
516.22        20.33369
516.66        20.16978
517.10        19.77016
517.54        19.16745
517.98        19.97289
518.42        19.79492
518.86        20.16656
519.30        20.35164
519.74        20.57905
520.18        20.79049
520.62        20.86179
521.06        20.80382
521.50        20.62815
521.93        20.40375
522.37        20.25866
522.81        20.22644
523.25        20.27321
523.69        20.36183
524.13        20.43093
524.57        20.45864
525.01         20.4656
525.45         20.4515
525.89        20.41417
526.32        20.35482
526.76        20.26982
527.20        20.17385
527.64        20.10098
528.08        20.06174
528.52        20.03132
528.96        19.98553
529.40        19.93988
529.83        19.90066
530.27        19.66393
530.71        19.63632
531.15        19.53028
531.59        19.47062
532.03         19.4373
532.46        19.43799
532.90        19.48461
533.34         19.5626
533.78        19.66337
534.22        19.75158
534.66        19.77665
535.09        19.72543
535.53        19.62173
535.97        19.48956
536.41        19.37343
536.85        19.29343
537.28        19.24431
537.72        19.22886
538.16        19.24951
538.60        19.30379
539.04        19.37513
539.47         19.4589
539.91        19.59696
540.35        19.76392
540.79        19.87631
541.22        19.93408
541.66        20.01785
542.10        20.12917
542.54        20.21311
542.97         20.2853
543.41        20.40651
543.85        20.57866
544.29         20.7971
544.72        21.00995
545.16        21.14318
545.60        21.18513
546.04        21.15569
546.47        21.14179
546.91        21.29116
547.35        21.61709
547.79        22.07312
548.22        22.53184
548.66        22.77429
549.10        22.77121
549.53         22.6271
549.97        22.46844
550.41        22.43225
550.84        22.56702
551.28        22.84122
551.72        23.19994
552.15        23.53963
552.59        23.81253
553.03         24.0417
553.46         24.2231
553.90        24.37094
554.34        24.49801
554.77        24.57223
555.21         24.5989
555.65        24.66487
556.08        24.79208
556.52        24.66201
556.96        24.86235
557.39        24.94104
557.83        25.07639
558.27        25.23893
558.70        25.41928
559.14        25.58596
559.57        25.71629
560.01        25.82697
560.45        25.89965
560.88        25.90698
561.32        25.87328
561.75        25.79717
562.19        25.73029
562.63        25.71902
563.06         25.7713
563.50        25.86992
563.93        25.99701
564.37        26.15534
564.80        26.31581
565.24        26.44781
565.68        26.54043
566.11        26.62346
566.55        26.71793
566.98        26.78045
567.42        26.85596
567.85        27.04446
568.29        27.35648
568.72        27.63452
569.16         27.8739
569.60        28.21091
570.03        28.51769
570.47        28.47438
570.90        28.23818
571.34        27.89819
571.77        28.31363
572.21        28.46361
572.64        28.63042
573.08        28.30416
573.51        27.60945
573.95        28.78121
574.38        30.40056
574.82         29.8181
575.25        29.50078
575.69        28.46195
576.12        27.93762
576.56        27.83197
576.99        28.45718
577.42        29.81558
577.86        29.97753
578.29        29.48714
578.73         30.7536
579.16        28.25238
579.60        26.05163
580.03        27.29084
580.47        28.96701
580.90        29.41064
581.33        28.72864
581.77        28.60571
582.20        31.06056
582.64        30.66888
583.07        26.04438
583.51        25.48444
583.94        25.07051
584.37        26.14678
584.81        27.29992
585.24        28.57091
585.68        29.14975
586.11        28.49635
586.54        26.54091
586.98        25.84312
587.41         26.0386
587.85        27.08547
588.28        27.90506
588.71        26.48664
589.15        25.80825
589.58        26.15452
590.01        26.56893
590.45        27.13037
590.88         27.2514
591.31        26.90244
591.75        26.66854
592.18        26.72947
592.61        27.42322
593.05        27.66037
593.48        28.89108
593.91        29.11344
594.35        26.79724
594.78        26.41124
595.21        26.59756
595.65        27.95756
596.08        29.01558
596.51        27.96942
596.94        27.32001
597.38        27.75355
597.81        29.06654
598.24        29.90839
598.68        29.44704
599.11        29.49914
599.54        30.89425
599.97         31.6026
600.41        30.17593
600.84        30.57732
601.27        31.43838
601.70        31.25821
602.14        31.49677
602.57        31.43889
603.00        32.16501
603.43        33.29977
603.87        34.40392
604.30         34.5144
604.73        33.81095
605.16        33.78926
605.60         34.5107
606.03        35.42076
606.46        36.21564
606.89        36.27782
607.32        35.90221
607.76        36.29159
608.19        37.55091
608.62        37.25253
609.05        36.87598
609.48        37.31985
609.92        37.38974
610.35        37.60111
610.78        39.31967
611.21         40.0208
611.64        38.56056
612.07        39.18849
612.50        39.64956
612.94        40.15816
613.37        40.13082
613.80        40.38773
614.23        40.96586
614.66        41.19226
615.09        41.65182
615.52        41.97922
615.96        42.21455
616.39        42.51422
616.82        42.15867
617.25        42.05529
617.68        42.60073
618.11        43.16456
618.54        43.72701
618.97         43.6767
619.40         43.2328
619.84        43.44891
620.27        44.26353
620.70        44.78539
621.13        44.91863
621.56          44.665
621.99        44.21054
622.42        44.96495
622.85        46.09323
623.28        45.96515
623.71         45.7161
624.14        45.53325
624.57        45.57036
625.00         45.3102
625.43        45.36829
625.86        44.83972
626.29        44.81775
626.72        44.98696
627.15        44.76516
627.58        44.90596
628.01        45.06035
628.44        44.93545
628.87        44.61094
629.30        44.51538
629.73        44.54356
630.16        44.82583
630.59        44.05556
631.02        43.61079
631.45         43.1874
631.88        42.78627
632.31        42.42336
632.74        42.12009
633.17         41.8572
633.60        41.56303
634.03        41.22396
634.46        40.86006
634.89        40.47654
635.32        40.08555
635.75        39.69577
636.18        39.29834
636.61        38.91051
637.04        38.56428
637.47        38.25641
637.89        37.97179
638.32        37.67543
638.75        37.34133
639.18        36.96804
639.61        36.57332
640.04        36.18095
640.47         35.8246
640.90        35.51762
641.33        35.24944
641.76        35.01791
642.18        34.87066
642.61        34.80606
643.04        34.73137
643.47        34.60537
643.90          34.809
644.33        34.61552
644.76        34.61703
645.18        34.60276
645.61        34.59857
646.04        34.60092
646.47        34.59799
646.90         34.6456
647.33        34.80639
647.75        35.10088
648.18        35.53748
648.61         35.9792
649.04        36.21591
649.47        36.22417
649.89        35.97101
650.32        35.73064
650.75        36.08794
651.18        37.00684
651.61        37.90551
652.03         38.5283
652.46        38.91492
652.89        39.27607
653.32        39.25882
653.74        39.03266
654.17        40.44014
654.60        41.23563
655.03        39.83779
655.46        40.99717
655.88        44.24155
656.31        47.03051
656.74        104.8697
657.16        68.11371
657.59        24.19676
658.02         18.6508
658.45        32.88271
658.87        42.34689
659.30        44.77281
659.73        44.60516
660.15        42.93419
660.58        45.11829
661.01        46.47738
661.44        45.24344
661.86        45.04582
662.29        45.37223
662.72        46.06537
663.14        46.97959
663.57        47.13734
664.00        46.68829
664.42        46.74978
664.85        47.38235
665.27        47.86107
665.70        48.02829
666.13         48.0682
666.55          47.968
666.98        47.67863
667.41        47.37276
667.83         47.3637
668.26        47.71566
668.69        48.30712
669.11        48.91027
669.54        49.39462
669.96        49.22172
670.39        48.87312
670.82        48.42861
671.24        48.27318
671.67        48.50926
672.09        48.97229
672.52        49.44295
672.94        49.96315
673.37        49.65773
673.80        49.68298
674.22        49.83028
674.65        49.92075
675.07        49.94637
675.50        49.91402
675.92        49.89238
676.35        50.01582
676.77         50.3031
677.20        50.66481
677.62        51.02534
678.05        51.26294
678.47        51.33356
678.90        51.28287
679.32        51.20098
679.75        51.12311
680.17        51.27992
680.60        51.51306
681.02        51.77759
681.45        51.77413
681.87        51.53236
682.30        51.36401
682.72        51.34266
683.15        51.37175
683.57        51.49949
684.00        51.73929
684.42        52.23667
684.85        52.51639
685.27        52.59179
685.70        52.58816
686.12        52.54491
686.54        52.49392
686.97        52.49354
687.39        52.62169
687.82        52.88023
688.24        53.06911
688.66        53.15402
689.09        53.12486
689.51        53.08495
689.94        53.23097
690.36        53.52524
690.78        53.81019
691.21        54.08619
691.63        53.80868
692.06        54.21698
692.48        54.19888
692.90        54.16625
693.33        54.20469
693.75        54.33979
694.17        54.53647
694.60        54.74846
695.02         54.8973
695.44        54.94245
695.87        55.09244
696.29        55.33769
696.71        55.21405
697.14        54.90706
697.56        55.36106
697.98        56.31001
698.41        56.60382
698.83        55.83195
699.25        55.53408
699.68        55.66304
700.10        55.68744
700.52         55.6239
700.94        55.78375
701.37        56.12831
701.79        56.48928
702.21        56.79856
702.64        57.09311
703.06        57.29765
703.48        57.31825
703.90        57.16625
704.33        56.75133
704.75        56.42233
705.17        56.25785
705.59        56.39128
706.01        56.64944
706.44        56.92595
706.86        57.50702
707.28        57.56044
707.70        57.79631
708.12        57.95618
708.55        57.82996
708.97        57.49603
709.39        57.36748
709.81        57.48598
710.23        57.55436
710.66        57.57377
711.08        57.77647
711.50        58.07751
711.92        58.23729
712.34        58.22124
712.76        58.08644
713.19        57.92626
713.61        57.91696
714.03         58.0881
714.45        58.38422
714.87        58.68463
715.29        58.80165
715.71        58.69837
716.13        58.44113
716.56        58.15277
716.98        58.05466
717.40        58.19357
717.82         58.4953
718.24        58.85473
718.66        59.09321
719.08        59.15627
719.50        59.10345
719.92        58.97539
720.34        58.85475
720.76        58.77924
721.19        58.62579
721.61        58.61449
722.03        58.69276
722.45        58.91478
722.87        59.25726
723.29        59.62767
723.71        59.86198
724.13        59.91508
724.55        59.82683
724.97        59.68015
725.39        59.61936
725.81        59.68468
726.23          59.832
726.65         60.0056
727.07        60.11655
727.49        60.14391
727.91        60.12762
728.33        60.10122
728.75        60.11403
729.17        60.17914
729.59        60.27227
730.01        60.39077
730.43        60.51619
730.85        60.65015
731.27        60.84546
731.69        61.04288
732.10        61.10641
732.52        61.01378
732.94        60.83638
733.36        60.71035
733.78         60.7198
734.20        60.89936
734.62        61.50419
735.04        62.27466
735.46        62.16611
735.88        61.47974
736.30        61.35567
736.72        62.81251
737.13        63.27328
737.55        62.83348
737.97         62.8431
738.39        63.28808
738.81        62.72974
739.23        61.53627
739.65        62.02872
740.06        63.83121
740.48        63.97065
740.90        62.54886
741.32        62.01097
741.74        62.54593
742.16        62.87662
742.57        63.01184
742.99        63.64028
743.41        64.56835
743.83         65.0976
744.25        65.11539
744.67        64.80127
745.08        64.37775
745.50        64.21262
745.92        64.41592
746.34        64.86143
746.75        65.39742
747.17         65.7372
747.59        65.81554
748.01        65.79722
748.42        65.80294
748.84        65.82073
749.26        65.98364
749.68         66.6226
750.09         67.5385
750.51        68.02607
750.93        68.00278
751.35        67.75799
751.76          67.424
752.18        67.25774
752.60        67.25419
753.01        67.07379
753.43        66.79418
753.85        66.87015
754.27        67.34649
754.68        68.02512
755.10        68.73438
755.52        69.33158
755.93        69.70608
756.35        69.81707
756.77        69.81412
757.18        69.77093
757.60        69.72304
758.02        70.15061
758.43        70.66654
758.85        69.72791
759.26        68.02164
759.68        67.66843
760.10        68.80204
760.51        70.54933
760.93        69.88827
761.34        68.37294
761.76        68.19917
762.18        67.74466
762.59        67.92811
763.01        68.25212
763.42        68.88947
763.84        69.38197
764.26        69.70416
764.67        69.76031
765.09        69.60583
765.50        69.63841
765.92        69.74193
766.33        69.00702
766.75        67.79264
767.16        67.48358
767.58        68.21912
768.00        69.41071
768.41        70.77845
768.83        71.90351
769.24        72.29897
769.66         71.6254
770.07        70.31366
770.49        68.83696
770.90        67.64449
771.32        68.36981
771.73        70.41444
772.15        70.05133
772.56        67.66826
772.97         67.2513
773.39        68.73603
773.80        69.30386
774.22        68.76089
774.63        68.77722
775.05        69.31748
775.46         69.6339
775.88        69.63342
776.29        69.51404
776.70        69.33719
777.12        69.23991
777.53        69.27036
777.95        69.34087
778.36        69.36353
778.77        69.18862
779.19        68.83865
779.60        68.38019
780.02        67.98103
780.43        67.99162
780.84        68.51881
781.26        69.00453
781.67        69.40017
782.09        70.59968
782.50        72.01864
782.91        71.13934
783.33        68.67964
783.74        67.84923
784.15        68.81421
784.57        69.71523
784.98         70.1207
785.39        69.89934
785.81         69.1543
786.22        68.69251
786.63         68.7244
787.04        68.83579
787.46        69.06442
787.87        69.78488
788.28        70.74646
788.70        71.25119
789.11        71.17585
789.52        70.75218
789.93        70.19668
790.35         69.8005
790.76        69.66003
791.17        69.71962
791.58        69.90466
792.00         70.0421
792.41        70.07402
792.82        70.11427
793.23        70.24516
793.65        70.16321
794.06        70.01552
794.47        70.80109
794.88        71.98022
795.29        71.45055
795.71        69.44949
796.12        67.88591
796.53        67.20141
796.94        66.76862
797.35         66.7691
797.76        67.95546
798.18        69.76943
798.59        70.77092
799.00        70.59486
799.41        69.70605
799.82        68.57924
800.23        67.91959
800.64        67.93301
801.06         68.3344
801.47        68.96552
801.88        69.46459
802.29        69.68565
802.70        69.75147
803.11        69.71717
803.52        69.65368
803.93        69.61102
804.34        69.53233
804.75        69.43327
805.17        69.45676
805.58        69.66071
805.99        69.69978
806.40        69.55728
806.81        69.99039
807.22        70.60614
807.63        69.64737
808.04        67.61555
808.45        66.80566
808.86        67.40184
809.27        68.23948
809.68         68.9528
810.09        69.39079
810.50        69.37268
810.91        68.95426
811.32        68.37364
811.73        68.01899
812.14        67.99934
812.55        68.18233
812.96        68.47857
813.37        68.71753
813.78        68.83002
814.19        68.92157
814.60        68.93049
815.01        68.74239
815.42        68.36189
815.83         67.7808
816.24        67.24268
816.65        67.18273
817.05        67.72079
817.46        68.69863
817.87        69.72082
818.28        70.06215
818.69        69.54604
819.10        68.36063
819.51        67.02685
819.92        66.42983
820.33        66.79556
820.74         67.8555
821.14        69.12324
821.55        69.70729
821.96        69.40617
822.37        68.51857
822.78        67.44187
823.19        66.76099
823.60        66.64378
824.00        66.93873
824.41        67.40781
824.82        67.76577
825.23        67.87396
825.64        67.85061
826.04        67.76263
826.45        67.68529
826.86        67.64278
827.27         67.5668
827.68        67.46252
828.08        67.38622
828.49        67.29955
828.90        67.26233
829.31        67.21117
829.72        67.02053
830.12        66.71023
830.53        66.30694
830.94        66.01299
831.35        66.09589
831.75        66.62936
832.16        67.47569
832.57        68.43507
832.97        69.07506
833.38         69.1936
833.79        68.91082
834.20        68.45637
834.60        68.18526
835.01        68.21842
835.42        68.43893
835.82        68.69895
836.23        68.68105
836.64         68.3429
837.04        67.81333
837.45        67.26683
837.86        66.97265
838.26        67.00425
838.67        67.24416
839.08        67.57561
839.48         67.7868
839.89        67.78012
840.29        67.64086
840.70         67.4146
841.11        67.15451
841.51         66.8994
841.92        66.60703
842.33        66.35487
842.73        66.28258
843.14        66.38206
843.54        66.66174
843.95        66.95532
844.35        67.03883
844.76        66.84878
845.17         66.4618
845.57        66.04673
845.98        65.87226
846.38        65.99451
846.79        66.30314
847.19        66.67312
847.60        66.80854
848.00        66.66219
848.41        66.31462
848.81        65.89899
849.22        65.52839
849.62         65.2968
850.03        65.17761
850.43        65.20905
850.84        65.40388
851.24        65.77612
851.65        66.16386
852.05        66.64893
852.46        67.19434
852.86        67.76575
853.27         68.3863
853.67        68.64074
854.07        68.01763
854.48        66.57255
854.88        64.49832
855.29        62.55097
855.69        61.82705
856.10        62.53375
856.50        64.54063
856.90         67.1405
857.31         68.6716
857.71        68.60404
858.12        67.35391
858.52        65.71433
858.92        64.72491
859.33        64.62049
859.73        65.09924
860.13          65.967
860.54        66.80972
860.94        67.47109
861.34         68.0735
861.75        68.54201
862.15        68.83398
862.55        68.92799
862.96        68.79623
863.36        68.60584
863.76        68.65282
864.17        68.99883
864.57        69.59711
864.97        70.29744
865.38        70.85371
865.78        71.23263
866.18        71.41486
866.58        71.44901
866.99        71.41759
867.39          71.392
867.79        71.37084
868.19        71.18337
868.60        70.52777
869.00        69.39557
869.40        67.95901
869.80        66.80757
870.21        66.80203
870.61        68.18807
871.01        70.69629
871.41        73.57165
871.81        75.51196
872.22        76.13393
872.62        75.72919
873.02        74.90395
873.42        74.92431
873.82         75.7937
874.22        76.59215
874.63        77.09855
875.03        76.97497
875.43        76.07381
875.83        76.03862
876.23        73.94623
876.63        72.53994
877.03        71.36387
877.44         70.4439
877.84        108.9408
878.24        77.39935
878.64         79.8444
879.04        83.26325
879.44        78.67268
879.84        76.27602
880.24        81.92965
880.64        83.50177
881.04         82.1881
881.44         80.7707
881.84        79.66734
882.24        78.69561
882.65        78.27551
883.05        78.39593
883.45        79.03935
883.85        80.60708
884.25        82.60479
884.65        83.73044
885.05        83.63065
885.45        82.69184
885.85        81.52612
886.25         81.0191
886.65        81.37162
887.05        82.28741
887.45        83.47622
887.85          84.417
888.25        84.87229
888.65        85.00521
889.04        84.86427
889.44        84.56017
889.84        84.14475
890.24         83.5665
890.64        82.92008
891.04        82.37008
891.44         81.9493
891.84        81.65932
892.24        81.42942
892.64        81.09946
893.04        80.69132
893.44        80.33932
893.83        80.13393
894.23        80.19796
894.63        80.53476
895.03        81.01004
895.43        81.70016
895.83        82.72812
896.23        84.01396
896.63        85.49884
897.02        86.62191
897.42        86.50702
897.82        85.07768
898.22        82.68672
898.62        80.24409
899.01        79.08044
899.41        79.47153
899.81        80.96677
900.21        82.88055
900.61        84.08605
901.00        84.23839
901.40         83.6911
901.80        82.80813
902.20        82.14993
902.59        81.89957
902.99        81.85522
903.39        81.88656
903.79        81.80521
904.18        81.56563
904.58         81.3407
904.98        81.22604
905.38        81.33468
905.77        81.66637
906.17        82.11185
906.57        82.61885
906.96         83.1813
907.36        83.68462
907.76        84.12607
908.15        84.36622
908.55        84.07298
908.95        83.26548
909.34        82.04248
909.74        80.75101
910.14        79.74884
910.53         79.1851
910.93        79.03918
911.33        79.28601
911.72        79.87289
912.12        80.61112
912.52        81.39467
912.91        82.15145
913.31        82.79752
913.70        83.37751
914.10        83.92529
914.49        84.17323
914.89        83.58131
915.29        82.12866
915.68         80.0806
916.08         78.3661
916.47        77.83064
916.87        78.49477
917.26        80.12123
917.66        81.88616
918.05        82.43372
918.45        81.45525
918.84        79.45564
919.24        77.36542
919.64         76.5582
920.03        77.38049
920.42        79.36462
920.82        81.88803
921.21        83.94942
921.61        84.93735
922.00         85.1634
922.40        84.67345
922.79         83.5774
923.19        82.11917
923.58        80.06223
923.98        77.58736
924.37        76.17562
924.77         76.5708
925.16         73.7982
925.55        76.54276
925.95        77.87081
926.34        80.18994
926.74        82.96427
927.13        85.54477
927.52         86.5583
927.92         85.8162
928.31        83.76489
928.70        81.08642
929.10        78.99103
929.49        77.82153
929.89        77.29723
930.28        77.42464
930.67        78.18986
931.07        79.34867
931.46         81.0141
931.85        82.48777
932.24        82.70283
932.64        81.51032
933.03         79.0037
933.42        75.93799
933.82        74.02312
934.21        73.73321
934.60        74.62611
934.99        75.75713
935.39         76.2834
935.78        76.09294
936.17         74.6658
936.56        71.81147
936.96        73.60881
937.35        72.08198
937.74        73.45699
938.13        74.69218
938.53        75.76293
938.92        76.73145
939.31        77.81295
939.70        78.84166
940.09        79.07176
940.49        78.35566
940.88        77.01999
941.27        75.67555
941.66          75.062
942.05        75.25891
942.44        76.00378
942.84        77.06942
943.23        78.10686
943.62        78.84799
944.01        79.37891
944.40        79.53007
944.79        79.03136
945.18        77.82598
945.57         75.8655
945.97        73.54764
946.36         71.9257
946.75        71.56364
947.14        72.15231
947.53        73.08262
947.92        73.67383
948.31        73.83418
948.70        73.78027
949.09        73.61994
949.48        73.57763
949.87        73.73358
950.26        73.89832
950.65         74.0876
951.04        74.38907
951.43        74.77596
951.82        75.25237
952.21         75.5182
952.60         75.0838
952.99        73.91053
953.38        72.18834
953.77        70.44397
954.16        69.43707
954.55        69.32504
954.94        69.95216
955.33        70.81291
955.72        71.03304
956.11        70.40666
956.50        69.17683
956.89        67.97552
957.28        67.95758
957.66         69.4833
958.05        71.90485
958.44        74.47301
958.83        76.10461
959.22         76.4968
959.61        75.94665
960.00         74.7795
960.39        73.52332
960.78         72.4164
961.16        71.35799
961.55        70.34399
961.94        69.39955
962.33         68.5899
962.72        68.02331
963.11        67.76161
963.49        67.81993
963.88        68.14955
964.27        68.73888
964.66        69.41037
965.04        69.81315
965.43        69.73457
965.82        69.29832
966.21        68.77972
966.60        68.56316
966.98        68.74131
967.37        69.17646
967.76        69.70509
968.15        69.98182
968.53        69.89405
968.92        69.50893
969.31        69.04106
969.69        68.74668
970.08         68.6798
970.47         68.7907
970.86        68.86812
971.24        68.54565
971.63        67.75123
972.02        66.57556
972.40        65.42054
972.79        65.01263
973.17        65.63322
973.56        67.02062
973.95          68.659
974.33        69.51917
974.72        69.18849
975.11        67.98204
975.49        66.52679
975.88        65.70609
976.26        65.64024
976.65        66.11896
977.04        66.60031
977.42        65.88612
977.81        63.75303
978.19        60.83577
978.58        58.49382
978.96        57.96608
979.35        59.41646
979.74        62.58326
980.12        66.96545
980.51        70.31246
980.89         71.8102
981.28        71.83927
981.66        71.06259
982.05         70.3981
982.43        70.11198
982.82        69.85879
983.20        69.90153
983.59        70.69978
983.97        72.39191
984.35        75.06297
984.74        77.88029
985.12        79.08306
985.51        77.67895
985.89        73.90831
986.28        69.18835
986.66        65.82922
987.04        64.72097
987.43        65.26244
987.81        66.15385
988.20        65.66722
988.58        63.19999
988.96        58.37907
989.35        51.85424
989.73        48.20699
990.12        51.13756
990.50        58.86209
990.88        66.08662
991.27        68.57729
991.65        66.84241
992.03        62.12056
992.42        56.84191
992.80        55.19311
993.18         58.2037
993.56        63.44125
993.95        68.63079
994.33          71.863
994.71        72.72775
995.10        72.27728
995.48        70.83195
995.86        68.57552
996.24        65.69149
996.63        61.85143
997.01        57.76442
997.39        56.01697
997.77        57.70117
998.15        62.28484
998.54        67.38165
998.92         69.8004
999.30        68.49203
999.68        64.31632
1000.06        58.24005
1000.45        52.93537
1000.83        49.76959
1001.21        48.08367
1001.59         47.8653
1001.97         49.1503
1002.35        51.73996
1002.73        56.18834
1003.12        61.22432
1003.50        62.33311
1003.88        57.73447
1004.26        49.73755
1004.64        42.10113
1005.02        37.87244
1005.40        37.17215
1005.78        39.38533
1006.16        45.65002
1006.54        54.76706
1006.92        61.62601
1007.30        64.98705
1007.69        65.69029
1008.07         65.1354
1008.45        63.30398
1008.83        58.38423
1009.21        44.37289
1009.59        2.930885
1009.97       -96.65816
1010.35       -211.3934
1010.73       -166.8944
1011.11       -81.63531
1011.49       -26.43195
1011.86         10.4721
1012.24        31.35076
1012.62        41.91245
1013.00         46.8732
1013.38        48.31681
1013.76        47.97842
1014.14        50.06921
1014.52        57.40403
1014.90         70.1186
1015.28        81.97128
1015.66        77.93324
1016.04        51.75351
1016.41        11.45396
1016.79       -19.40215
1017.17       -22.54003
1017.55       -7.785342
1017.93        10.99942
1018.31         26.3765
1018.69        34.84814
1019.06        37.60048
1019.44        35.28239
1019.82        28.75804
1020.20        23.07974
1020.58        24.59103
1020.95        41.53614
1021.33        69.67694
1021.71        227.3583
1022.09        147.2735
1022.46        157.7009
1022.84          169.69
1023.22        187.2351
1023.60        228.8213
1023.97        632.8843
1024.35       -48.80289
1024.73        30.51284
