SpectraSmart Spectrum 2.9.0.0
--------- Device Information -----------
Spectrum Name :  反射率_0
Saving Time :  2024/04/26 00:53:02
Spectro-Module Model Name : SE2030-DUVN
Spectro-Module Serial Number : OS361AC55029948
Wavelength Start : 200
Wavelength End : 1025
Wavelength Unit : Wavelength(nm)
Spectrum Unit : Reflectance(%)
-----------Spectrum Setting ------------
Integration Time : 20ms
Average : 10
Boxcar : 0
Background removal :  enabled
linearity correction :  enabled
SC :  disabled
Intensity correction :  disabled
DWT denoise :  enabled
savitzky-golay :  disabled
FFT :  disabled
Running average :  disabled
Kalman :  disabled
High pass :  disabled
---------------BEGIN--------------------
Wavelength(nm)             Reflectance(%)
200.29               0
200.75        67.95863
201.21        63.28255
201.67        57.76805
202.13        53.84589
202.58        51.81734
203.04        51.48736
203.50        52.20193
203.96        52.78463
204.42         52.8282
204.88        52.59239
205.34        52.43803
205.80        52.80468
206.26        53.96865
206.72        56.56163
207.18        60.94225
207.64        62.35444
208.10        55.34262
208.55        47.08861
209.01        42.73907
209.47        42.02374
209.93        43.43424
210.39        46.74307
210.85         50.0895
211.31         49.4561
211.77        43.95472
212.23        35.13273
212.69        27.11393
213.14        26.29782
213.60        33.60923
214.06        47.39305
214.52        62.74295
214.98         72.1066
215.44        73.50145
215.90        69.02013
216.36        62.52487
216.81        59.42794
217.27        60.87511
217.73        64.91629
218.19        68.13668
218.65        65.97817
219.11        56.86912
219.57        39.92944
220.02        17.64257
220.48        3.984454
220.94        7.428501
221.40        24.26891
221.86         41.7336
222.32        46.34127
222.77        39.16051
223.23        27.02033
223.69        16.43646
224.15        13.90458
224.61        18.86589
225.06         27.9782
225.52        37.20522
225.98        41.50759
226.44        39.93069
226.90        34.75796
227.36        28.51792
227.81        24.52806
228.27        23.90592
228.73        25.32254
229.19        27.82476
229.65         30.0625
230.10        31.50911
230.56        32.53505
231.02        33.36202
231.48        34.15784
231.93        34.97183
232.39         35.7158
232.85        36.20172
233.31        36.22144
233.77        35.74208
234.22        34.78119
234.68        33.74245
235.14        33.31661
235.60        33.69791
236.05        34.73314
236.51        35.81108
236.97        35.96613
237.43        34.99942
237.88        33.10442
238.34         30.8614
238.80        30.04041
239.26        31.55809
239.71        34.96478
240.17        39.34972
240.63        43.36761
241.08        46.37287
241.54        48.55688
242.00        49.67072
242.46        49.32896
242.91         47.1007
243.37        40.30404
243.83          22.561
244.28       -9.677861
244.74       0.8874785
245.20        54.26795
245.66        74.41664
246.11        78.34847
246.57        75.32724
247.03        61.35723
247.48        6.911663
247.94       -9.952235
248.40        37.43489
248.85        56.58807
249.31        64.87164
249.77        69.67105
250.22        73.82375
250.68        79.23455
251.14        85.40147
251.59        86.39838
252.05        78.40022
252.51        65.13074
252.96        53.25707
253.42         48.3668
253.88        49.38429
254.33        54.00919
254.79        60.55853
255.25        65.97972
255.70        69.18221
256.16        71.36697
256.62        71.81841
257.07        69.71957
257.53        65.96267
257.99          60.819
258.44         56.1944
258.90        55.07549
259.35        56.39274
259.81        58.75383
260.27        59.90368
260.72        57.69955
261.18        52.98951
261.63        46.87954
262.09        41.28962
262.55        37.81832
263.00        36.40106
263.46        36.27628
263.91        36.33294
264.37        35.60049
264.83        33.94412
265.28        31.66804
265.74        29.51597
266.19         28.3799
266.65        28.42768
267.11        29.12478
267.56        29.79862
268.02        29.66066
268.47        28.60751
268.93        26.93582
269.38        25.01471
269.84        23.69668
270.30        23.23121
270.75         23.3818
271.21        23.77594
271.66        23.86551
272.12        23.48448
272.57         22.8144
273.03        22.10861
273.48        21.66048
273.94        21.56152
274.39        21.66694
274.85        21.78149
275.31        21.63617
275.76        21.17417
276.22        20.51115
276.67         19.8338
277.13        19.48253
277.58        19.45951
278.04        19.65993
278.49        19.81944
278.95        19.60994
279.40        18.97351
279.86        18.09296
280.31        17.16471
280.77        16.57462
281.22        16.36676
281.68        16.42512
282.13        16.59497
282.59        16.67556
283.04         16.6138
283.50        16.50517
283.95        16.36622
284.41        16.22611
284.86         16.0989
285.32        15.96428
285.77        15.88661
286.22        16.02308
286.68        16.35718
287.13        16.81989
287.59        17.22601
288.04        17.30041
288.50        17.02064
288.95        16.47045
289.41        15.85945
289.86        15.41014
290.32        15.23207
290.77        15.25068
291.22        15.40638
291.68        15.56938
292.13        15.71228
292.59        15.87499
293.04        16.11956
293.50        16.53818
293.95        17.12216
294.40        17.79354
294.86        18.43909
295.31        18.90638
295.77        19.16688
296.22        19.27871
296.68        19.31109
297.13        19.34981
297.58        19.45529
298.04         19.6221
298.49        19.88602
298.95        20.33158
299.40         20.9471
299.85        21.69894
300.31          22.478
300.76        23.12076
301.21        23.56308
301.67        23.86154
302.12        24.03656
302.58          24.171
303.03        24.28338
303.48        24.36582
303.94        24.48367
304.39        24.70598
304.84        25.04464
305.30        25.47466
305.75        25.88924
306.20        26.12687
306.66        26.17439
307.11        26.07141
307.57        25.92972
308.02        25.85308
308.47        25.89622
308.93        26.01882
309.38        26.18809
309.83        26.38167
310.29        26.56738
310.74        26.74137
311.19        26.87021
311.65        26.90072
312.10        26.82509
312.55        26.66349
313.00        26.43202
313.46        26.16945
313.91        25.89626
314.36        25.62946
314.82        25.42865
315.27        25.36899
315.72        25.46057
316.18        25.67154
316.63        25.92807
317.08        26.08471
317.53         26.0946
317.99        25.98291
318.44        25.80863
318.89        25.67378
319.35        25.60006
319.80        25.56011
320.25        25.49848
320.70        25.33041
321.16        25.04406
321.61        24.67774
322.06        24.29742
322.51        23.99413
322.97        23.78161
323.42        23.64216
323.87        23.52031
324.32        23.32709
324.78        23.04288
325.23        22.70147
325.68        22.35731
326.13        22.09935
326.59         21.9466
327.04        21.88826
327.49        21.87407
327.94        21.82294
328.39        21.71242
328.85        21.55594
329.30        21.42125
329.75        21.39322
330.20        21.49012
330.66         21.6619
331.11        21.85626
331.56        21.94787
332.01        21.89992
332.46        21.73381
332.92        21.50193
333.37        21.32406
333.82        21.23735
334.27        21.22695
334.72        21.23097
335.17        21.14351
335.63        20.93962
336.08        20.65539
336.53        20.39307
336.98        20.31438
337.43        20.44732
337.88        20.74543
338.34        21.04115
338.79        21.10524
339.24        20.86418
339.69        20.38657
340.14        19.87151
340.59        19.66625
341.05         19.8403
341.50        20.27507
341.95        20.76191
342.40        20.99572
342.85        20.90768
343.30         20.6108
343.75         20.2029
344.20        19.85773
344.66        19.64576
345.11        19.47716
345.56         19.3849
346.01        19.41793
346.46         19.5533
346.91        19.79406
347.36        19.96682
347.81        19.78838
348.26        19.23548
348.72        18.43041
349.17        17.60765
349.62        17.23971
350.07        17.43583
350.52        18.03828
350.97        18.80332
351.42         19.3536
351.87        19.57444
352.32        19.57277
352.77        19.42479
353.22        19.25529
353.67         19.1146
354.13        18.95698
354.58        18.78469
355.03        18.64846
355.48        18.55556
355.93        18.51763
356.38        18.49122
356.83        18.38999
357.28        18.19792
357.73        17.93829
358.18        17.67123
358.63        17.49247
359.08        17.42459
359.53        17.44226
359.98        17.48057
360.43        17.43909
360.88        17.29574
361.33        17.07642
361.78        16.85475
362.23        16.75081
362.68        16.78099
363.13        16.89337
363.58        16.99325
364.03        16.93593
364.48         16.6937
364.93        16.32738
365.38        15.91018
365.83        15.55701
366.28        15.31203
366.73        15.14243
367.18        15.05143
367.63        15.04232
368.08        15.09621
368.53         15.2069
368.98        15.31429
369.43        15.32061
369.88        15.20841
370.33        15.00609
370.78        14.76243
371.23        14.56858
371.68        14.45611
372.13        14.39459
372.58         14.3872
373.03        14.43517
373.48        14.52234
373.93        14.64937
374.38        14.75241
374.83        14.72974
375.28        14.56881
375.72        14.29022
376.17         14.0024
376.62        13.84307
377.07        13.84996
377.52        13.97703
377.97        14.15959
378.42         14.2912
378.87        14.33261
379.32        14.31188
379.77        14.24742
380.22        14.16495
380.67        14.07529
381.11        13.97053
381.56        13.84481
382.01        13.70149
382.46         13.5467
382.91        13.38689
383.36        13.24534
383.81        13.15236
384.26        13.11349
384.71        13.12378
385.15        13.13999
385.60         13.1044
386.05        13.00059
386.50         12.8359
386.95        12.66659
387.40         12.5914
387.85        12.63042
388.29        12.75144
388.74        12.87012
389.19        12.86722
389.64        12.73024
390.09        12.49115
390.54         12.2547
390.98         12.1946
391.43        12.35177
391.88        12.65461
392.33        12.96194
392.78          13.068
393.23        12.94496
393.67        12.66422
394.12         12.3715
394.57        12.22277
395.02        12.25182
395.47        12.40366
395.91         12.6038
396.36        12.70299
396.81        12.65744
397.26        12.50576
397.71        12.31614
398.15         12.1736
398.60        12.12015
399.05        12.13226
399.50        12.14738
399.95         12.0451
400.39         11.8651
400.84        11.59878
401.29        11.35926
401.74        11.32541
402.18        11.54303
402.63         11.9332
403.08        12.34863
403.53        12.55653
403.97        12.50047
404.42        12.25036
404.87        11.92122
405.32        11.71508
405.76        11.69148
406.21        11.78468
406.66        11.92308
407.11        12.01011
407.55        12.02094
408.00        11.98719
408.45        11.92295
408.90        11.84328
409.34        11.76302
409.79        11.67592
410.24        11.60277
410.68        11.57537
411.13        11.59975
411.58        11.67344
412.03        11.76908
412.47        11.83583
412.92        11.84909
413.37        11.81854
413.81        11.77653
414.26        11.78928
414.71        11.86087
415.15         11.9748
415.60        12.06853
416.05        12.06185
416.49        11.93953
416.94        11.74289
417.39        11.53216
417.83        11.40974
418.28        11.41136
418.73        11.49358
419.17        11.62296
419.62        11.73956
420.07        11.82367
420.51        11.89199
420.96        11.92117
421.41        11.86909
421.85        11.73406
422.30        11.54767
422.74        11.36067
423.19        11.27373
423.64        11.29256
424.08        11.39917
424.53        11.53223
424.98        11.60624
425.42        11.59771
425.87        11.52514
426.31        11.42302
426.76        11.38245
427.21        11.40407
427.65        11.38703
428.10        11.36802
428.54        11.47265
428.99        11.70045
429.44        11.99276
429.88        12.24189
430.33         12.3132
430.77        12.18639
431.22        11.90015
431.66        11.59001
432.11        11.51635
432.56        11.69764
433.00        11.99433
433.45        12.26582
433.89        12.43075
434.34        12.41122
434.78        12.13363
435.23        11.78715
435.67        11.74648
436.12        11.97479
436.57        12.05721
437.01         11.9604
437.46        11.92783
437.90        11.98137
438.35         12.0462
438.79        12.09446
439.24        12.12255
439.68        12.12998
440.13        12.06579
440.57        11.97109
441.02        12.07167
441.46         12.2821
441.91        12.16766
442.35        11.78905
442.80        11.59346
443.24        11.56037
443.69        11.52156
444.13        11.44858
444.58         11.3014
445.02        11.13051
445.47        11.17333
445.91        11.36423
446.36        11.39188
446.80        11.22995
447.24        11.04656
447.69        10.90823
448.13        10.84239
448.58         10.8732
449.02        10.98789
449.47        11.12653
449.91        11.18995
450.36        11.15749
450.80        11.05459
451.25        10.94622
451.69        10.92422
452.13        11.00891
452.58        11.15394
453.02        11.30629
453.47        11.37978
453.91         11.3574
454.36        11.27368
454.80        11.15309
455.24        11.03723
455.69         10.9532
456.13        10.88178
456.58        10.85306
457.02        10.89438
457.46        11.00779
457.91        11.17867
458.35        11.35193
458.79        11.42871
459.24        11.39799
459.68        11.27495
460.13        11.13585
460.57         11.0676
461.01        11.10432
461.46        11.20985
461.90        11.33386
462.34        11.38325
462.79        11.33585
463.23        11.21686
463.68        11.08929
464.12          11.056
464.56        11.14425
465.01        11.32108
465.45        11.49461
465.89        11.57116
466.34        11.54174
466.78        11.37688
467.22        11.17607
467.67        11.21332
468.11        11.45799
468.55        11.56211
468.99        11.49888
469.44        11.46075
469.88        11.48958
470.32        11.62135
470.77        11.79452
471.21        11.82456
471.65        11.68932
472.10        11.52133
472.54        11.38203
472.98        11.33634
473.42        11.40889
473.87        11.58373
474.31         11.7926
474.75        11.92085
475.20        11.94515
475.64        11.88966
476.08        11.82154
476.52         11.8454
476.97        11.98195
477.41        12.19999
477.85        12.41932
478.29        12.53531
478.74         12.5255
479.18        12.36371
479.62        12.14197
480.06        12.20621
480.50          12.328
480.95        12.50142
481.39        12.57945
481.83        12.59945
482.27          12.548
482.72        12.34525
483.16        12.07929
483.60        12.06885
484.04         12.3329
484.48        12.47141
484.93        12.64301
485.37        13.06608
485.81        13.55289
486.25        13.81099
486.69        17.57883
487.14        13.99675
487.58        9.507329
488.02        11.70902
488.46        13.14637
488.90        13.12639
489.34        13.23275
489.79        13.22526
490.23        13.98211
490.67        14.43688
491.11        14.38796
491.55        14.30524
491.99        14.16612
492.43        13.99561
492.88        13.85869
493.32        13.81516
493.76         13.8012
494.20        13.95816
494.64        14.24798
495.08        14.62416
495.52        15.02301
495.96        15.36496
496.41        15.58207
496.85        15.67897
497.29        15.67681
497.73        15.46288
498.17        15.23967
498.61        15.37164
499.05        15.87083
499.49        16.01643
499.93        16.18886
500.37        16.40652
500.82        16.57821
501.26        16.79856
501.70        16.97133
502.14        16.97733
502.58        16.85168
503.02        16.81499
503.46        16.89257
503.90        16.96956
504.34        17.02691
504.78        17.07697
505.22        17.11338
505.66        17.14527
506.10        17.16499
506.54         17.1565
506.98        17.12571
507.42         17.0793
507.86        17.06377
508.30         17.1523
508.74        17.35013
509.18        17.62595
509.62        17.91405
510.06        18.10447
510.50        18.16865
510.94        18.14626
511.38        18.07283
511.82        18.00677
512.26        17.97383
512.70        17.95244
513.14        17.96808
513.58        18.06265
514.02        18.22381
514.46        18.43268
514.90        18.61941
515.34        18.63471
515.78        18.42651
516.22        18.20023
516.66        18.04432
517.10        17.63876
517.54         17.0133
517.98        17.82368
518.42        17.61246
518.86        17.95026
519.30        18.08398
519.74        18.25524
520.18        18.41239
520.62        18.43973
521.06        18.35402
521.50         18.1651
521.93          17.948
522.37         17.8395
522.81        17.86943
523.25        17.99581
523.69        18.16232
524.13         18.2805
524.57        18.32006
525.01        18.30548
525.45        18.24778
525.89        18.16483
526.32        18.06694
526.76        17.95061
527.20        17.82285
527.64        17.70479
528.08        17.60532
528.52        17.50512
528.96        17.40503
529.40        17.34934
529.83        17.34691
530.27        17.21203
530.71        17.25688
531.15        17.16309
531.59        17.02991
532.03        16.85804
532.46         16.7162
532.90        16.71984
533.34        16.87535
533.78        17.13752
534.22        17.40027
534.66        17.50669
535.09        17.42138
535.53        17.20266
535.97        16.92919
536.41        16.73078
536.85        16.65016
537.28        16.65276
537.72        16.70597
538.16        16.75619
538.60         16.7849
539.04        16.79939
539.47        16.81598
539.91        16.89709
540.35         17.0291
540.79        17.13061
541.22        17.19208
541.66        17.26963
542.10        17.36187
542.54        17.42685
542.97        17.48783
543.41        17.61192
543.85        17.80146
544.29         18.0446
544.72        18.28242
545.16        18.43023
545.60        18.47284
546.04        18.43352
546.47        18.39666
546.91        18.50597
547.35        18.77742
547.79        19.16599
548.22        19.55939
548.66        19.76282
549.10        19.75121
549.53        19.62055
549.97         19.4793
550.41        19.44149
550.84        19.54907
551.28        19.77402
551.72        20.08051
552.15        20.39964
552.59        20.68905
553.03        20.95865
553.46        21.17934
553.90        21.32508
554.34        21.40221
554.77        21.39622
555.21        21.33707
555.65        21.34063
556.08        21.43899
556.52        21.34704
556.96        21.55936
557.39        21.66329
557.83        21.80549
558.27        21.96484
558.70        22.13954
559.14         22.3099
559.57        22.45705
560.01         22.5918
560.45        22.68428
560.88        22.69091
561.32        22.63204
561.75        22.51379
562.19        22.40558
562.63        22.38042
563.06        22.45093
563.50        22.59985
563.93        22.78356
564.37        22.94101
564.80        23.04465
565.24        23.12004
565.68        23.17599
566.11        23.22825
566.55        23.30174
566.98        23.38336
567.42         23.4889
567.85         23.6381
568.29        23.84321
568.72        24.02782
569.16         24.2197
569.60        24.52022
570.03        24.81906
570.47        24.89985
570.90        24.86011
571.34        24.47592
571.77        24.88035
572.21        24.88307
572.64        24.90593
573.08        24.58878
573.51        24.05212
573.95        25.21228
574.38        26.75735
574.82        26.29571
575.25         25.8328
575.69        24.88922
576.12        24.47793
576.56         24.3836
576.99        25.04432
577.42        26.03212
577.86        26.04364
578.29          25.936
578.73        26.95176
579.16        24.82828
579.60        22.85523
580.03        23.94659
580.47        25.48373
580.90        25.66648
581.33        25.14207
581.77        24.89201
582.20        27.10033
582.64        26.62461
583.07        22.71884
583.51         22.2453
583.94        21.89111
584.37        22.77377
584.81        23.66355
585.24        24.75077
585.68        25.34846
586.11        24.64496
586.54        22.97801
586.98        22.37884
587.41        22.63955
587.85        23.51486
588.28        24.05444
588.71        23.04865
589.15        22.30631
589.58        22.74295
590.01         23.1663
590.45        23.61245
590.88        23.44538
591.31        23.08971
591.75        23.08861
592.18        23.22248
592.61        23.62477
593.05        24.41445
593.48        25.14934
593.91        24.83113
594.35         23.1803
594.78         22.8442
595.21        22.98726
595.65        24.10009
596.08        24.94531
596.51        24.09211
596.94        23.64855
597.38        24.12619
597.81        25.34727
598.24        26.01392
598.68        25.58953
599.11        25.93185
599.54        26.79655
599.97         27.5986
600.41        26.36608
600.84        26.77525
601.27        27.50687
601.70        27.41186
602.14        27.63877
602.57         27.6146
603.00        28.26245
603.43        29.34224
603.87        30.43987
604.30        30.56889
604.73        29.91491
605.16        29.92621
605.60        30.67597
606.03        31.66526
606.46        32.55795
606.89         32.6753
607.32        32.19151
607.76        32.57725
608.19         33.8087
608.62        33.56931
609.05        33.17648
609.48        33.77662
609.92        34.23353
610.35        34.34353
610.78        35.85899
611.21        36.39708
611.64        35.21892
612.07        35.87145
612.50        36.35006
612.94        36.82002
613.37        36.71463
613.80        37.30087
614.23        37.68044
614.66        37.93894
615.09        38.32299
615.52         38.5271
615.96        38.66093
616.39        38.91529
616.82        38.63259
617.25        38.99648
617.68        39.68958
618.11        40.22011
618.54        40.42857
618.97        40.25983
619.40        39.94424
619.84        40.08831
620.27         40.6879
620.70        41.26075
621.13        41.66195
621.56         41.5983
621.99        41.21294
622.42        41.68676
622.85        42.75852
623.28        42.45003
623.71         42.3043
624.14        42.03519
624.57        42.16516
625.00        41.88125
625.43        42.00489
625.86        41.56687
626.29        41.60062
626.72        41.70043
627.15        41.44621
627.58        41.38396
628.01         41.3022
628.44        41.17234
628.87         41.0063
629.30        40.89093
629.73        40.77496
630.16        40.69123
630.59        40.24581
631.02        39.84305
631.45        39.41513
631.88        38.99266
632.31        38.58611
632.74        38.22739
633.17        37.89619
633.60        37.46321
634.03        36.96211
634.46        36.60415
634.89        36.36112
635.32         36.0091
635.75        35.53674
636.18        35.06839
636.61        34.63675
637.04         34.2382
637.47         33.8786
637.89        33.55712
638.32        33.24673
638.75        32.92447
639.18        32.58732
639.61        32.25019
640.04        31.91901
640.47        31.59811
640.90        31.29316
641.33        31.00091
641.76        30.72961
642.18        30.54032
642.61        30.43924
643.04        30.34064
643.47        30.20854
643.90        30.37426
644.33        30.20242
644.76        30.21246
645.18        30.21593
645.61        30.22804
646.04        30.24369
646.47        30.25579
646.90         30.3207
647.33         30.5022
647.75        30.82465
648.18         31.3009
648.61        31.80061
649.04        32.11646
649.47        32.21299
649.89        32.06859
650.32        31.95846
650.75         32.3774
651.18        33.31492
651.61        34.46341
652.03        35.48615
652.46        35.84131
652.89         35.8012
653.32        35.81232
653.74        36.12361
654.17        37.48842
654.60         38.4958
655.03        37.57322
655.46        38.83978
655.88        41.33421
656.31        44.05748
656.74        99.04549
657.16        63.93847
657.59        22.61259
658.02        17.63087
658.45        31.36226
658.87        40.44984
659.30        43.00567
659.73        43.05253
660.15        41.62605
660.58        43.52396
661.01        45.05379
661.44         44.2914
661.86        44.09369
662.29         44.0453
662.72        44.65856
663.14        45.80863
663.57        46.03746
664.00        45.48174
664.42        45.53329
664.85        46.25345
665.27        46.79968
665.70        47.01794
666.13        47.13554
666.55        47.13494
666.98        46.96072
667.41        46.74484
667.83        46.73124
668.26        46.97689
668.69        47.38678
669.11        47.80216
669.54        48.19715
669.96        48.07098
670.39        47.86412
670.82        47.59302
671.24        47.53691
671.67        47.77037
672.09        48.15085
672.52        48.50536
672.94        48.97229
673.37        48.69794
673.80        48.72355
674.22        48.84251
674.65        48.94085
675.07        49.00818
675.50        49.01482
675.92         49.0171
676.35        49.14731
676.77        49.41711
677.20        49.73163
677.62        50.03198
678.05        50.20932
678.47        50.22678
678.90        50.16755
679.32        50.10564
679.75        49.89041
680.17        50.02923
680.60        50.11406
681.02        50.23873
681.45        50.29946
681.87        50.28694
682.30        50.22178
682.72         50.1637
683.15        50.23383
683.57        50.46867
684.00        50.71936
684.42        51.12505
684.85        51.29812
685.27        51.26938
685.70        51.11426
686.12        50.92026
686.54        50.84613
686.97        50.92189
687.39        51.11211
687.82        51.34195
688.24        51.52468
688.66        51.61256
689.09        51.63846
689.51        51.64465
689.94        51.68024
690.36        51.76712
690.78        51.88119
691.21        51.99757
691.63        52.08576
692.06        52.13646
692.48         52.1642
692.90        52.19419
693.33        52.24873
693.75        52.33964
694.17        52.47771
694.60        52.62841
695.02        52.71933
695.44        52.72712
695.87        52.78258
696.29        52.92532
696.71        52.91463
697.14        52.82443
697.56        53.22827
697.98        53.94434
698.41        53.77847
698.83        53.29596
699.25        52.96403
699.68        52.99917
700.10        52.96536
700.52        52.88521
700.94        53.02301
701.37        53.33183
701.79        53.66002
702.21        53.93645
702.64        54.20517
703.06        54.40108
703.48        54.41298
703.90        54.24095
704.33        53.91938
704.75        53.54969
705.17        53.36794
705.59        53.43934
706.01        53.62149
706.44        53.81038
706.86        54.29912
707.28        54.31712
707.70        54.45692
708.12        54.52639
708.55        54.56661
708.97        54.57423
709.39        54.54704
709.81          54.514
710.23        54.51209
710.66        54.55326
711.08        54.65834
711.50        54.76292
711.92        54.77155
712.34        54.66867
712.76        54.47348
713.19        54.28462
713.61        54.28226
714.03        54.48801
714.45        54.84733
714.87         55.2048
715.29        55.31344
715.71        55.12505
716.13        54.72192
716.56        54.26649
716.98        54.04437
717.40        54.12581
717.82        54.42748
718.24        54.81971
718.66        55.08054
719.08         55.1404
719.50        55.06511
719.92        54.92759
720.34         54.8582
720.76        54.89877
721.19        54.91681
721.61        55.05205
722.03        55.15067
722.45        55.24408
722.87        55.34164
723.29         55.4529
723.71        55.58077
724.13        55.71268
724.55        55.84916
724.97        55.96927
725.39        55.99562
725.81        55.91186
726.23        55.94049
726.65        55.75094
727.07        55.65918
727.49         55.5808
727.91         55.5289
728.33        55.51151
728.75        55.54576
729.17        55.63142
729.59        55.74979
730.01        55.89691
730.43        56.05828
730.85        56.22357
731.27         56.4101
731.69        56.56157
732.10         56.5737
732.52        56.43595
732.94        56.21504
733.36        56.03422
733.78        55.98576
734.20        56.09524
734.62        56.56858
735.04        57.23078
735.46        57.22274
735.88        56.73298
736.30        57.05155
736.72        58.09543
737.13        58.51145
737.55         58.1036
737.97        57.88247
738.39        57.94744
738.81        57.49483
739.23        56.80828
739.65        57.42524
740.06        58.95975
740.48        59.06959
740.90        57.84283
741.32        57.27472
741.74        57.58036
742.16        57.79785
742.57        57.96767
742.99        58.65751
743.41          59.643
743.83        60.20587
744.25        60.21605
744.67        59.86562
745.08        59.39112
745.50        59.17963
745.92        59.35119
746.34        59.77534
746.75        60.28675
747.17        60.60409
747.59        60.66682
748.01        60.56836
748.42        60.45581
748.84        60.55606
749.26        60.92477
749.68        61.43002
750.09        61.94773
750.51        62.34775
750.93        62.53836
751.35        62.40049
751.76        62.04939
752.18        61.87428
752.60        61.84875
753.01        61.87033
753.43        61.45677
753.85         61.5028
754.27        61.87902
754.68        62.44726
755.10        63.05919
755.52        63.41999
755.93        63.71685
756.35        63.78998
756.77        63.80864
757.18        63.79848
757.60        63.80379
758.02        64.07436
758.43        64.34142
758.85        64.03952
759.26        62.66239
759.68        62.52325
760.10        63.30225
760.51        63.97232
760.93        64.17603
761.34        63.24198
761.76        62.76439
762.18        62.06561
762.59        61.81207
763.01        62.22287
763.42         63.2376
763.84        63.95316
764.26        64.21571
764.67        64.55525
765.09        64.85042
765.50        64.59972
765.92         63.8764
766.33        62.84021
766.75        61.86884
767.16        61.57198
767.58        62.04271
768.00        63.19265
768.41         64.6916
768.83        65.57496
769.24        65.48663
769.66        64.83052
770.07        63.98049
770.49        62.82033
770.90        61.76696
771.32        62.65852
771.73        64.89558
772.15        64.74621
772.56        62.52602
772.97        62.02379
773.39        63.20837
773.80        63.52143
774.22        62.83332
774.63        62.67873
775.05        63.05024
775.46        63.29383
775.88        63.32866
776.29        63.34326
776.70        63.33104
777.12        63.30158
777.53        63.27739
777.95        63.21117
778.36        63.08997
778.77        62.89725
779.19        62.67549
779.60        62.43215
780.02        62.26789
780.43        62.40659
780.84        62.90903
781.26        63.36676
781.67        63.72537
782.09        64.58317
782.50        65.52901
782.91        64.73827
783.33         62.7782
783.74        62.11639
784.15        62.88931
784.57        63.49087
784.98        63.66186
785.39        63.78697
785.81        63.78549
786.22        63.43612
786.63         62.9726
787.04        62.86248
787.46        63.16005
787.87        63.71096
788.28        64.32701
788.70        64.66844
789.11        64.64481
789.52        64.43149
789.93        64.14716
790.35        63.82136
790.76        63.56543
791.17        63.62904
791.58        63.94463
792.00        64.09697
792.41        64.01653
792.82        63.98836
793.23        64.09614
793.65        63.90657
794.06        63.61942
794.47         64.3989
794.88        65.66581
795.29        65.23592
795.71        63.32032
796.12        61.60736
796.53        60.64539
796.94        60.52793
797.35        61.27079
797.76        62.41087
798.18        63.44101
798.59        64.11942
799.00        64.17478
799.41        63.39003
799.82        62.18224
800.23        61.48896
800.64         61.5049
801.06         61.8828
801.47        62.49389
801.88        63.02828
802.29        63.34854
802.70        63.58114
803.11        63.70798
803.52        63.66968
803.93        63.48546
804.34        63.13288
804.75        62.75676
805.17        62.65504
805.58        62.91667
805.99        63.32492
806.40         63.6914
806.81        64.05395
807.22        64.14948
807.63        63.24797
808.04        61.79265
808.45        61.18304
808.86        61.57536
809.27        62.32013
809.68        63.08275
810.09        63.49755
810.50        63.38692
810.91         62.8845
811.32        62.22515
811.73        61.78421
812.14        61.67105
812.55        61.73814
812.96        61.93805
813.37        62.18151
813.78        62.40688
814.19         62.6931
814.60        62.87415
815.01        62.67916
815.42        62.09076
815.83         61.1492
816.24        60.22978
816.65        59.99987
817.05        60.64332
817.46        61.93979
817.87        63.36851
818.28         63.9934
818.69        63.56483
819.10        62.32453
819.51        60.85705
819.92        60.15833
820.33          60.494
820.74        61.55691
821.14        62.83277
821.55        63.39484
821.96        63.03294
822.37        62.07399
822.78        60.93922
823.19         60.2378
823.60         60.1469
824.00         60.5038
824.41        61.06382
824.82        61.50983
825.23         61.6821
825.64        61.68586
826.04         61.6067
826.45        61.55118
826.86          61.549
827.27        61.53388
827.68        61.44916
828.08        61.24212
828.49        60.87137
828.90        60.43114
829.31        60.00478
829.72         59.7282
830.12        59.67857
830.53        59.78185
830.94         60.0549
831.35          60.506
831.75        61.14143
832.16        61.89383
832.57        62.62613
832.97        63.03521
833.38        62.98864
833.79        62.56715
834.20        62.00399
834.60        61.65882
835.01        61.64668
835.42         61.8688
835.82        62.15601
836.23        62.14531
836.64        61.77984
837.04        61.19417
837.45        60.58452
837.86        60.25927
838.26        60.29888
838.67        60.57648
839.08        60.95028
839.48        61.17002
839.89        61.12799
840.29        60.91519
840.70        60.60281
841.11        60.28349
841.51        60.00748
841.92        59.73314
842.33        59.49603
842.73        59.36742
843.14        59.33105
843.54        59.40546
843.95        59.52122
844.35        59.60663
844.76        59.62234
845.17         59.5969
845.57        59.54556
845.98        59.50185
846.38         59.4797
846.79        59.43812
847.19        59.41935
847.60        59.43592
848.00        59.51999
848.41        59.65146
848.81        59.78415
849.22          59.769
849.62         59.6257
850.03        59.38847
850.43        59.20332
850.84        59.29741
851.24        59.74158
851.65        60.31991
852.05        60.95898
852.46        61.38618
852.86        61.53082
853.27        61.51891
853.67        61.15464
854.07        60.23451
854.48        58.87211
854.88        57.17255
855.29        55.68384
855.69        55.19335
856.10        55.83895
856.50        57.55261
856.90        59.81925
857.31        61.37717
857.71        61.78741
858.12        61.27413
858.52        60.36785
858.92        59.79334
859.33        59.73112
859.73        59.97234
860.13        60.39339
860.54        60.74809
860.94        60.97363
861.34        61.16064
861.75         61.2859
862.15        61.36921
862.55        61.39116
862.96          61.351
863.36        61.29976
863.76        61.32011
864.17         61.4304
864.57        61.64333
864.97         61.9637
865.38        62.39374
865.78        62.95131
866.18        63.53387
866.58        64.05119
866.99        64.35843
867.39        64.43908
867.79        64.34505
868.19        63.99468
868.60        63.25698
869.00        62.17265
869.40        60.86785
869.80         59.8402
870.21        59.81362
870.61        60.99777
871.01        63.17126
871.41        65.69798
871.81        67.46346
872.22        68.14378
872.62        67.97482
873.02        67.39379
873.42        67.48764
873.82        68.14883
874.22        68.30228
874.63        67.99036
875.03        67.53651
875.43         66.9892
875.83        68.11485
876.23        66.42778
876.63        65.05451
877.03         63.2169
877.44        60.92563
877.84        112.4609
878.24        66.58356
878.64        69.12084
879.04        74.13707
879.44        67.31004
879.84        64.05874
880.24        72.95467
880.64        75.70149
881.04        74.33824
881.44        72.97913
881.84        72.01395
882.24         71.0621
882.65        70.51218
883.05        70.19057
883.45        70.06107
883.85        70.70574
884.25        71.85399
884.65        72.47234
885.05        72.31713
885.45        71.69034
885.85        70.98061
886.25        70.75155
886.65        71.12383
887.05        71.89233
887.45        72.82265
887.85        73.50879
888.25        73.78179
888.65        73.76508
889.04        73.57211
889.44        73.41805
889.84        73.35622
890.24        73.30424
890.64        73.23733
891.04        73.13145
891.44         72.9817
891.84        72.84257
892.24        72.70816
892.64        72.53833
893.04         72.3728
893.44        72.26247
893.83        72.28246
894.23        72.54594
894.63        73.03811
895.03        73.62938
895.43        74.29955
895.83        74.99275
896.23        75.62252
896.63        76.23817
897.02        76.46738
897.42        75.74183
897.82        74.09587
898.22        71.81134
898.62        69.75237
899.01        69.17226
899.41        70.25317
899.81        72.51387
900.21        75.12234
900.61        76.72454
901.00        76.91799
901.40        76.10505
901.80         74.7523
902.20        73.59727
902.59        72.89465
902.99        72.42789
903.39        72.09921
903.79        71.76221
904.18        71.39548
904.58        71.20327
904.98          71.244
905.38        71.54937
905.77        72.08752
906.17        72.72659
906.57        73.44053
906.96        74.27984
907.36        75.11512
907.76        75.90935
908.15        76.43561
908.55        76.22212
908.95        75.27361
909.34        73.76214
909.74        72.13395
910.14        70.90832
910.53        70.26823
910.93        70.10963
911.33        70.43504
911.72         71.2263
912.12        72.24976
912.52        73.41039
912.91         74.3922
913.31        74.74947
913.70        74.47842
914.10        73.62869
914.49        72.33754
914.89        71.21628
915.29        70.62063
915.68        70.36575
916.08        70.49447
916.47         70.8985
916.87        71.48891
917.26        72.34008
917.66        73.03143
918.05        72.90857
918.45        71.89203
918.84        70.25806
919.24        68.65321
919.64        68.02804
920.03        68.61421
920.42        70.10787
920.82        72.10198
921.21        73.93569
921.61        75.10114
922.00         75.7614
922.40         75.7575
922.79        74.99562
923.19        73.69306
923.58        71.55596
923.98        68.80051
924.37        67.38178
924.77        68.18049
925.16        64.44028
925.55        67.83007
925.95        68.80479
926.34        70.68829
926.74        72.94962
927.13        75.05797
927.52        75.72595
927.92        74.77334
928.31        72.66659
928.70        70.05662
929.10        68.11351
929.49        67.14546
929.89         66.8536
930.28        67.24236
930.67        68.29905
931.07        69.76107
931.46        71.73291
931.85        73.40514
932.24        73.55753
932.64        72.02063
933.03        68.87694
933.42        65.11798
933.82        62.91916
934.21        62.86898
934.60        64.37761
934.99        66.04503
935.39        66.60124
935.78        65.87154
936.17        63.04382
936.56        58.00141
936.96        60.49887
937.35        58.81022
937.74        61.91723
938.13        64.69355
938.53        66.62369
938.92        67.81851
939.31        68.71867
939.70        69.35441
940.09        69.33744
940.49        68.69946
940.88        67.61939
941.27        66.58187
941.66        66.20621
942.05        66.53019
942.44         67.3193
942.84        68.38416
943.23        69.39329
943.62        70.09354
944.01         70.5965
944.40        70.60055
944.79         69.6167
945.18        67.54284
945.57        64.33195
945.97        60.82005
946.36        58.97148
946.75        59.57656
947.14        61.84182
947.53        64.36846
947.92        65.74286
948.31         65.8535
948.70        65.11369
949.09        63.97614
949.48        63.44788
949.87        63.93065
950.26        65.00043
950.65        66.21691
951.04        66.98512
951.43        67.12543
951.82        66.87124
952.21        66.28735
952.60        65.48048
952.99        64.54734
953.38        63.41804
953.77        62.33125
954.16        61.63288
954.55        61.38563
954.94        61.63025
955.33        61.93518
955.72        61.53402
956.11        60.30031
956.50        58.40216
956.89        56.72301
957.28        56.87245
957.66        59.27056
958.05         63.1451
958.44        67.16972
958.83        69.39964
959.22        69.37547
959.61        67.60898
960.00        65.02154
960.39         63.1538
960.78        62.49569
961.16        62.64701
961.55        63.03016
961.94        62.61819
962.33        61.21722
962.72        59.37407
963.11         57.6856
963.49        56.84535
963.88        56.96856
964.27        57.82061
964.66        59.12267
965.04        60.27454
965.43        60.86144
965.82        61.03478
966.21         60.9501
966.60        60.85244
966.98        60.84437
967.37         60.7926
967.76        60.67088
968.15        60.45779
968.53        60.16936
968.92        59.79929
969.31        59.45228
969.69         59.2079
970.08        59.05747
970.47        59.00397
970.86        58.85879
971.24        58.27892
971.63        57.23202
972.02         55.8027
972.40         54.3653
972.79        53.64531
973.17        53.92093
973.56        54.96966
973.95        56.41959
974.33        57.48201
974.72        57.74218
975.11        57.38099
975.49        56.75426
975.88        56.42288
976.26        56.47401
976.65        56.77139
977.04        56.91556
977.42        56.07584
977.81        54.16808
978.19        51.64695
978.58        49.63446
978.96        49.08904
979.35        50.12862
979.74        52.61115
980.12        56.06338
980.51         58.4768
980.89        59.23217
981.28         58.6475
981.66        57.60793
982.05        57.24525
982.43        57.75806
982.82        58.68303
983.20        59.77909
983.59        60.70158
983.97        61.39781
984.35         62.0095
984.74        62.31935
985.12        62.06058
985.51        61.04207
985.89        59.16283
986.28        56.92644
986.66        54.91603
987.04        53.56496
987.43        52.84673
987.81         52.1933
988.20        50.60756
988.58        47.56786
988.96        42.40084
989.35        35.57776
989.73        30.99079
990.12        32.41798
990.50        38.73631
990.88         45.2034
991.27        47.59709
991.65        46.42711
992.03        42.86978
992.42        39.14584
992.80        38.89284
993.18         42.8442
993.56        48.56903
993.95        54.16335
994.33        58.31127
994.71        60.60743
995.10        61.94426
995.48        62.11787
995.86        60.46921
996.24        56.95457
996.63        51.32512
997.01        44.91019
997.39        42.03225
997.77        44.59139
998.15        51.70241
998.54          59.567
998.92        62.85099
999.30         60.0081
999.68        52.39281
1000.06        42.18549
1000.45         34.7822
1000.83        32.47684
1001.21        33.50278
1001.59        36.37933
1001.97        39.62535
1002.35        42.79529
1002.73        46.85622
1003.12        50.77898
1003.50        50.76802
1003.88        45.64566
1004.26        37.45242
1004.64        29.61081
1005.02        24.69422
1005.40        22.60182
1005.78        22.62858
1006.16          26.008
1006.54        33.44399
1006.92        40.97505
1007.30        45.88821
1007.69        47.83421
1008.07        47.78174
1008.45         45.6035
1008.83        39.61724
1009.21        21.60809
1009.59       -36.29655
1009.97       -185.3918
1010.35        -375.368
1010.73       -318.4877
1011.11       -177.4468
1011.49       -80.06699
1011.86       -14.84979
1012.24        21.42593
1012.62        36.92965
1013.00        39.85458
1013.38        34.08949
1013.76        21.74755
1014.14        11.64965
1014.52        11.92921
1014.90        23.95511
1015.28        42.50699
1015.66        48.35792
1016.04        31.21645
1016.41      -0.7011361
1016.79       -27.06999
1017.17       -31.54389
1017.55       -21.05827
1017.93       -7.355478
1018.31        3.444615
1018.69        8.399567
1019.06        7.882104
1019.44          1.2897
1019.82        -12.0547
1020.20       -29.34532
1020.58       -47.69646
1020.95       -65.12685
1021.33       -121.1422
1021.71         1478.81
1022.09        252.4119
1022.46        205.4106
1022.84        202.6736
1023.22        221.6895
1023.60        285.0876
1023.97        944.6948
1024.35       -178.9736
1024.73        -56.1496
