SpectraSmart Spectrum 2.9.0.0
--------- Device Information -----------
Spectrum Name :  反射率_0
Saving Time :  2024/04/26 23:01:41
Spectro-Module Model Name : SE2030-DUVN
Spectro-Module Serial Number : OS361AC55029948
Wavelength Start : 200
Wavelength End : 1025
Wavelength Unit : Wavelength(nm)
Spectrum Unit : Reflectance(%)
-----------Spectrum Setting ------------
Integration Time : 20ms
Average : 10
Boxcar : 0
Background removal :  enabled
linearity correction :  enabled
SC :  disabled
Intensity correction :  disabled
DWT denoise :  enabled
savitzky-golay :  disabled
FFT :  disabled
Running average :  disabled
Kalman :  disabled
High pass :  disabled
---------------BEGIN--------------------
Wavelength(nm)             Reflectance(%)
200.29               0
200.75         48.6717
201.21        44.36093
201.67        40.55727
202.13        38.57505
202.58        38.36649
203.04        40.17185
203.50        43.57822
203.96        46.51928
204.42        47.61421
204.88        46.80169
205.34        46.12074
205.80        49.52822
206.26        56.70629
206.72        64.54758
207.18         70.2113
207.64        71.78413
208.10        69.32679
208.55        63.54615
209.01        53.20153
209.47        42.66817
209.93        38.22306
210.39        38.73171
210.85        41.24247
211.31        44.10918
211.77        47.93821
212.23        55.76147
212.69        75.72427
213.14        114.6371
213.60        121.5971
214.06        100.6164
214.52        83.51747
214.98        74.17839
215.44        68.22483
215.90        62.43807
216.36        57.70058
216.81        55.92308
217.27         58.1117
217.73        65.87304
218.19        77.29529
218.65        80.30946
219.11         71.4918
219.57        58.94554
220.02        51.26105
220.48        53.04219
220.94        63.81182
221.40        85.07904
221.86        115.3968
222.32        132.7774
222.77        120.5967
223.23        94.48378
223.69        71.35928
224.15        60.48943
224.61        59.07335
225.06        61.59902
225.52        65.65902
225.98        68.86166
226.44        70.85072
226.90        72.86227
227.36        74.32641
227.81        73.96589
228.27        72.06304
228.73        68.90139
229.19        66.36214
229.65        66.78564
230.10        70.07367
230.56        75.39242
231.02        80.56983
231.48        82.08934
231.93        79.42998
232.39        74.54593
232.85        69.41692
233.31        66.57439
233.77         66.3447
234.22        67.77416
234.68        70.01227
235.14        71.86522
235.60        72.87891
236.05        73.59138
236.51        73.79112
236.97        73.14956
237.43        71.68802
237.88        69.38041
238.34        67.02939
238.80        66.36574
239.26        68.01713
239.71        72.55145
240.17        79.00092
240.63        84.37215
241.08        86.63563
241.54        85.06107
242.00        82.18446
242.46        83.80696
242.91        93.93137
243.37        114.6655
243.83        146.5554
244.28        173.8857
244.74        173.9816
245.20        147.1918
245.66        115.0037
246.11        96.63329
246.57        92.42588
247.03        96.34482
247.48         101.111
247.94        95.75986
248.40        82.47004
248.85        68.70055
249.31        58.56128
249.77         53.2988
250.22        51.72491
250.68        52.28418
251.14        54.69666
251.59        57.85772
252.05        60.51962
252.51        63.12764
252.96        63.78186
253.42        61.21106
253.88        56.46181
254.33        50.60186
254.79        46.92707
255.25        48.10196
255.70        53.64747
256.16        62.18305
256.62        70.38584
257.07        72.96918
257.53        70.66315
257.99        66.40473
258.44        62.51905
258.90        61.27515
259.35        61.78399
259.81        63.32249
260.27        64.72312
260.72        64.66026
261.18        63.38739
261.63         61.3426
262.09        59.53872
262.55         58.4924
263.00        58.09161
263.46        58.18467
263.91        58.18972
264.37        57.71854
264.83        56.71451
265.28        55.37261
265.74        54.21326
266.19        53.55132
266.65        53.48671
267.11        53.75689
267.56        54.09219
268.02        54.07915
268.47        53.60214
268.93        52.84437
269.38          51.898
269.84         50.9744
270.30        50.12547
270.75        49.25486
271.21        48.47002
271.66        47.86778
272.12        47.45285
272.57        47.19741
273.03        46.88256
273.48        46.13003
273.94        44.96639
274.39        43.49962
274.85         42.1342
275.31        41.27554
275.76        40.93827
276.22        40.98843
276.67        41.10329
277.13        40.93562
277.58         40.3494
278.04        39.51295
278.49        38.53036
278.95        37.68958
279.40        37.00383
279.86        36.46257
280.31        35.93208
280.77        35.35171
281.22        34.66816
281.68        34.00176
282.13        33.38718
282.59         32.9623
283.04        32.69576
283.50        32.54877
283.95         32.4394
284.41        32.26897
284.86        32.00151
285.32        31.69822
285.77        31.36051
286.22        31.05547
286.68        30.79983
287.13        30.53855
287.59        30.29829
288.04        30.07123
288.50         29.8805
288.95        29.70393
289.41        29.52888
289.86        29.26161
290.32         28.9315
290.77        28.54835
291.22        28.20193
291.68        28.00979
292.13        27.98086
292.59        28.09606
293.04        28.28135
293.50        28.44194
293.95        28.54321
294.40        28.61954
294.86        28.72406
295.31        28.93057
295.77        29.26032
296.22        29.67168
296.68        30.12327
297.13        30.53637
297.58        30.90009
298.04        31.24664
298.49        31.59913
298.95         32.0112
299.40        32.48306
299.85        32.98435
300.31        33.50433
300.76        34.02063
301.21        34.51562
301.67        35.00014
302.12        35.41317
302.58        35.72182
303.03        35.90456
303.48        36.00962
303.94        36.10257
304.39        36.24497
304.84         36.4693
305.30        36.76294
305.75        37.08927
306.20        37.44506
306.66        37.82077
307.11        38.19594
307.57        38.53835
308.02        38.74949
308.47        38.82674
308.93         38.7968
309.38        38.71589
309.83        38.72692
310.29        38.85633
310.74        39.06222
311.19        39.25003
311.65        39.25785
312.10        39.05139
312.55        38.69087
313.00        38.30353
313.46        38.07483
313.91        38.03129
314.36        38.12578
314.82        38.24519
315.27        38.21768
315.72        37.99583
316.18        37.64557
316.63        37.25925
317.08        36.99454
317.53        36.88694
317.99        36.87949
318.44        36.89366
318.89         36.7933
319.35        36.54331
319.80        36.18855
320.25        35.80425
320.70        35.50668
321.16        35.32525
321.61        35.23823
322.06        35.17487
322.51        35.02493
322.97        34.75657
323.42         34.4059
323.87        34.05898
324.32        33.85923
324.78        33.82228
325.23        33.92142
325.68        34.01635
326.13         33.8814
326.59        33.46825
327.04        32.86821
327.49        32.23972
327.94        31.83062
328.39         31.7001
328.85        31.76254
329.30        31.93343
329.75        31.99448
330.20        31.87101
330.66        31.61735
331.11        31.31755
331.56         31.0803
332.01        30.93897
332.46        30.84582
332.92        30.74109
333.37        30.58381
333.82        30.34365
334.27        30.05774
334.72        29.76567
335.17        29.52012
335.63        29.34014
336.08        29.22971
336.53        29.17303
336.98        29.15434
337.43        29.16018
337.88        29.18089
338.34        29.21277
338.79         29.2812
339.24        29.36707
339.69         29.4589
340.14        29.49672
340.59        29.39239
341.05        29.14882
341.50        28.80059
341.95        28.45013
342.40        28.25074
342.85        28.23827
343.30        28.36782
343.75        28.56104
344.20        28.68747
344.66        28.70606
345.11        28.64745
345.56        28.54935
346.01        28.47288
346.46        28.44184
346.91        28.44121
347.36        28.44404
347.81        28.41648
348.26        28.35061
348.72        28.25307
349.17        28.17103
349.62        28.18839
350.07        28.31247
350.52        28.52067
350.97        28.69794
351.42        28.66159
351.87        28.38707
352.32        27.94046
352.77        27.48651
353.22        27.26826
353.67        27.33089
354.13        27.59896
354.58        27.92106
355.03        28.04434
355.48         27.8998
355.93        27.56982
356.38        27.18252
356.83        26.92826
357.28        26.85231
357.73        26.88813
358.18          26.951
358.63        26.90923
359.08        26.72891
359.53        26.46349
359.98         26.1746
360.43         25.9458
360.88        25.79587
361.33        25.69007
361.78        25.59453
362.23        25.46108
362.68         25.2788
363.13        25.07366
363.58         24.8599
364.03        24.65364
364.48        24.46336
364.93        24.28127
365.38         24.1235
365.83        24.01877
366.28         23.9683
366.73        23.96226
367.18        23.96345
367.63        23.91232
368.08        23.79489
368.53         23.6262
368.98        23.43889
369.43        23.28712
369.88        23.18531
370.33        23.11723
370.78        23.05857
371.23        22.97023
371.68        22.84116
372.13        22.68459
372.58        22.52126
373.03        22.38162
373.48        22.27232
373.93        22.18217
374.38        22.09138
374.83        21.97024
375.28        21.81427
375.72        21.63199
376.17        21.45686
376.62        21.31058
377.07        21.20048
377.52        21.11845
377.97          21.056
378.42        21.00161
378.87        20.94882
379.32        20.89663
379.77        20.84612
380.22        20.79828
380.67        20.74923
381.11        20.70117
381.56        20.62938
382.01        20.51894
382.46        20.37696
382.91        20.22213
383.36        20.07897
383.81        19.97789
384.26        19.92037
384.71        19.88945
385.15        19.87914
385.60        19.88152
386.05        19.88514
386.50        19.89131
386.95        19.86655
387.40        19.76254
387.85        19.58242
388.29        19.33823
388.74        19.11153
389.19        18.96826
389.64        18.91706
390.09        18.93055
390.54        18.96342
390.98        18.93595
391.43        18.84123
391.88        18.70647
392.33        18.56158
392.78        18.44749
393.23        18.37481
393.67        18.31853
394.12        18.29014
394.57        18.27239
395.02        18.25814
395.47         18.2458
395.91         18.2333
396.36        18.20462
396.81         18.1686
397.26        18.13297
397.71        18.09356
398.15        18.05631
398.60        18.04547
399.05         17.9839
399.50        17.90694
399.95        17.99899
400.39        18.20433
400.84        18.18896
401.29        17.96361
401.74        17.83224
402.18        17.81279
402.63        17.72176
403.08         17.5804
403.53        17.50147
403.97         17.4926
404.42        17.52673
404.87        17.56541
405.32        17.54361
405.76        17.44616
406.21        17.30353
406.66        17.16134
407.11        17.09188
407.55        17.11609
408.00        17.20439
408.45        17.31378
408.90        17.35947
409.34          17.315
409.79        17.20883
410.24        17.08847
410.68        17.01588
411.13        17.00997
411.58        17.05056
412.03         17.0992
412.47        17.09312
412.92        17.01258
413.37        16.88758
413.81        16.76291
414.26        16.71465
414.71        16.74957
415.15        16.84929
415.60        16.96301
416.05        17.01644
416.49        16.98849
416.94        16.90161
417.39        16.79692
417.83        16.73666
418.28        16.73547
418.73        16.76788
419.17         16.8143
419.62        16.84479
420.07        16.84785
420.51          16.833
420.96        16.79914
421.41        16.73842
421.85        16.65121
422.30        16.53829
422.74        16.41772
423.19        16.39149
423.64        16.43968
424.08        16.45017
424.53          16.415
424.98        16.44717
425.42        16.55419
425.87        16.62651
426.31         16.6504
426.76        16.72877
427.21        16.80916
427.65        16.66137
428.10        16.37622
428.54        16.26732
428.99        16.36683
429.44        16.57786
429.88        16.79577
430.33         16.7914
430.77        16.59632
431.22        16.55334
431.66        16.67434
432.11        16.69099
432.56        16.61297
433.00         16.6569
433.45        16.74367
433.89        16.61862
434.34        16.39656
434.78        16.00795
435.23        16.36257
435.67        16.40999
436.12        16.37856
436.57        16.31036
437.01        16.23361
437.46        16.20461
437.90         16.2222
438.35        16.22344
438.79        16.19982
439.24        16.19448
439.68        16.20764
440.13        16.22713
440.57        16.24467
441.02        16.26469
441.46        16.28303
441.91        16.25471
442.35        16.19343
442.80        16.27948
443.24        16.44496
443.69        16.40857
444.13        16.19968
444.58         16.1225
445.02         16.1888
445.47        16.23481
445.91        16.24594
446.36         16.2791
446.80        16.32476
447.24        16.36704
447.69        16.40011
448.13        16.40742
448.58        16.39108
449.02        16.35644
449.47        16.31504
449.91        16.27629
450.36        16.25097
450.80        16.23471
451.25        16.23586
451.69        16.25632
452.13        16.29471
452.58        16.34323
453.02        16.39041
453.47        16.42007
453.91          16.427
454.36        16.42042
454.80        16.39175
455.24        16.32782
455.69        16.23886
456.13        16.12075
456.58        16.02547
457.02        16.00454
457.46        16.06953
457.91        16.19917
458.35        16.32663
458.79        16.34877
459.24        16.26155
459.68        16.09367
460.13        15.92366
460.57        15.82703
461.01        15.83596
461.46        15.90903
461.90        16.02772
462.34        16.14706
462.79        16.23995
463.23        16.32438
463.68        16.37268
464.12         16.3498
464.56        16.25466
465.01        16.12184
465.45        15.97524
465.89        15.89261
466.34        15.88617
466.78        15.93404
467.22        16.01736
467.67          16.085
468.11        16.12678
468.55        16.14567
468.99        16.15306
469.44        16.16551
469.88        16.18849
470.32          16.215
470.77        16.23022
471.21        16.21678
471.65        16.17234
472.10        16.10785
472.54        16.04911
472.98        16.04067
473.42         16.0898
473.87        16.18754
474.31        16.28799
474.75        16.33644
475.20        16.32573
475.64        16.26681
476.08        16.20278
476.52        16.19151
476.97        16.24603
477.41        16.35584
477.85        16.48751
478.29        16.56219
478.74         16.5774
479.18        16.59443
479.62        16.62823
480.06        16.67442
480.50        16.74035
480.95        16.81127
481.39        16.85753
481.83        17.00025
482.27        16.98564
482.72        17.02901
483.16        17.07156
483.60        17.10326
484.04        17.10815
484.48        17.18693
484.93        17.39763
485.37        17.31485
485.81        17.42889
486.25        17.83234
486.69        17.42661
487.14        17.41164
487.58         18.1519
488.02        18.09785
488.46        18.01506
488.90        18.23233
489.34        18.32578
489.79        18.49523
490.23        18.49581
490.67        18.54365
491.11        18.62152
491.55         18.6282
491.99         18.6036
492.43        18.66376
492.88        18.82191
493.32        19.02221
493.76        19.22754
494.20        19.41202
494.64        19.56671
495.08        19.65714
495.52        19.70197
495.96        19.86322
496.41        20.10839
496.85        20.12456
497.29        19.95482
497.73        20.13485
498.17        20.37029
498.61        20.52933
499.05        20.51599
499.49         20.5598
499.93         20.6279
500.37        20.81849
500.82        21.07027
501.26        21.22685
501.70        21.26803
502.14        21.28596
502.58         21.3255
503.02        21.41504
503.46        21.56519
503.90        21.76315
504.34        21.96112
504.78        22.07926
505.22        22.09905
505.66        22.04902
506.10        21.97066
506.54         21.9302
506.98        21.94906
507.42        22.00688
507.86        22.09414
508.30        22.19441
508.74        22.29692
509.18        22.40826
509.62        22.51243
510.06        22.58189
510.50        22.61301
510.94        22.61109
511.38        22.60089
511.82        22.62513
512.26        22.69431
512.70         22.7968
513.14        22.91082
513.58        23.00014
514.02        23.05303
514.46        23.07789
514.90        23.08906
515.34        23.10962
515.78        23.14549
516.22        23.18936
516.66        23.22544
517.10        23.22978
517.54        23.19935
517.98        23.14454
518.42        23.08838
518.86        23.06594
519.30        23.08427
519.74        23.13082
520.18        23.18271
520.62        23.20416
521.06        23.18561
521.50        23.13818
521.93        23.07831
522.37        23.02476
522.81        22.98955
523.25        22.96696
523.69        22.95004
524.13        22.92904
524.57        22.89891
525.01        22.85854
525.45        22.81568
525.89        22.78199
526.32        22.75559
526.76        22.73959
527.20        22.70893
527.64        22.62743
528.08        22.49477
528.52        22.32691
528.96        22.16853
529.40        22.08813
529.83        22.09727
530.27        22.17364
530.71        22.27032
531.15        22.31364
531.59        22.28276
532.03        22.19836
532.46        22.08538
532.90        21.99976
533.34        21.95357
533.78        21.91911
534.22        21.88515
534.66        21.86224
535.09        21.83152
535.53        21.75231
535.97        21.64463
536.41        21.59418
536.85        21.60895
537.28        21.64154
537.72        21.68694
538.16        21.75362
538.60        21.83389
539.04        21.92545
539.47        22.00288
539.91        22.04184
540.35         22.0371
540.79        22.00014
541.22        21.96636
541.66        21.99971
542.10        22.11067
542.54        22.28153
542.97        22.47246
543.41        22.62908
543.85        22.73344
544.29        22.80424
544.72        22.86387
545.16        22.96148
545.60        23.10252
546.04        23.27867
546.47        23.47253
546.91        23.63572
547.35        23.76459
547.79        23.90995
548.22        24.06554
548.66        24.18466
549.10        24.29705
549.53        24.41162
549.97        24.54726
550.41        24.67034
550.84        24.80718
551.28        25.01843
551.72        25.25388
552.15        25.45249
552.59        25.63284
553.03        25.44101
553.46        25.67157
553.90        25.70384
554.34        25.77486
554.77        25.86969
555.21        25.99859
555.65        26.15499
556.08         26.3203
556.52        26.48203
556.96        26.61127
557.39        26.73515
557.83        26.82963
558.27        26.75305
558.70        26.56882
559.14        26.53939
559.57        26.66906
560.01        26.80506
560.45        26.91816
560.88        27.04051
561.32        27.17083
561.75        27.28979
562.19        27.39786
562.63        27.44401
563.06        27.44778
563.50        27.51762
563.93        27.61947
564.37        27.68402
564.80        27.72097
565.24        27.71975
565.68        27.64278
566.11        28.00348
566.55        27.80051
566.98        27.87101
567.42         27.9561
567.85        28.08638
568.29         28.2663
568.72        28.50573
569.16        28.81661
569.60        28.98843
570.03        29.10466
570.47        29.28718
570.90        29.60331
571.34        29.28271
571.77         29.6551
572.21        29.81865
572.64        29.88925
573.08        29.98438
573.51         30.0662
573.95        30.20284
574.38        30.42224
574.82        30.48864
575.25        30.32149
575.69        30.34202
576.12        30.51999
576.56        30.41142
576.99        30.36945
577.42        30.43959
577.86        30.55441
578.29        30.95567
578.73          30.554
579.16        30.49976
579.60        30.45415
580.03        30.50433
580.47        30.19827
580.90        30.50021
581.33        30.31539
581.77        30.30129
582.20         29.9711
582.64        29.90156
583.07        29.85438
583.51        29.78633
583.94        29.73646
584.37        29.70418
584.81        29.66522
585.24        29.54106
585.68        29.41505
586.11        29.03591
586.54        29.12899
586.98        28.95944
587.41        28.73781
587.85        28.82017
588.28        28.66187
588.71        28.70051
589.15        28.60522
589.58        28.68124
590.01        28.63063
590.45        28.69563
590.88        28.84193
591.31        28.81164
591.75        28.69615
592.18        28.73468
592.61        28.49542
593.05        29.24701
593.48        29.01353
593.91        28.80048
594.35        28.99561
594.78        28.92297
595.21         28.9994
595.65        29.19332
596.08        29.59645
596.51        29.82977
596.94        29.77792
597.38        29.90069
597.81        30.17261
598.24        30.36571
598.68        30.46109
599.11        30.68075
599.54        31.19525
599.97        31.15184
600.41        31.60394
600.84        31.65784
601.27        32.07864
601.70        32.34339
602.14        32.65854
602.57        32.98876
603.00        33.42484
603.43        33.46036
603.87        34.35609
604.30        34.68155
604.73        34.89053
605.16        35.05647
605.60          35.489
606.03        35.71673
606.46        35.80587
606.89        36.07614
607.32        36.86532
607.76        36.80281
608.19        37.39903
608.62        37.60293
609.05        37.89828
609.48        38.21354
609.92        39.03866
610.35        39.00953
610.78        38.85309
611.21        39.10886
611.64        39.40047
612.07        39.85323
612.50         40.0397
612.94        40.32353
613.37        40.61935
613.80        40.68121
614.23        40.60976
614.66        40.84694
615.09        41.37253
615.52        41.71592
615.96        41.83233
616.39        42.06599
616.82        42.43844
617.25        42.43198
617.68        42.63714
618.11        42.80741
618.54        43.10456
618.97        43.30968
619.40        43.40857
619.84         43.6763
620.27        43.69476
620.70        43.85843
621.13        44.00023
621.56         43.8404
621.99         43.4896
622.42        43.51919
622.85        43.90473
623.28        44.07014
623.71        43.99368
624.14        44.00779
624.57        44.40697
625.00        44.11626
625.43        44.23308
625.86        44.12531
626.29        44.17412
626.72        43.66618
627.15        43.88754
627.58        43.79216
628.01        43.71043
628.44        43.56522
628.87        43.35253
629.30        43.08168
629.73        42.78179
630.16         42.5309
630.59        42.34107
631.02        42.18594
631.45        42.03803
631.88        41.85439
632.31        41.61749
632.74         41.3379
633.17        41.01805
633.60        40.66291
634.03        40.28151
634.46        39.87386
634.89        39.45314
635.32        39.05068
635.75        38.67815
636.18        38.29002
636.61        37.90701
637.04        37.57996
637.47        37.30771
637.89        37.07108
638.32        36.82328
638.75        36.52423
639.18        36.16463
639.61        35.77366
640.04        35.40137
640.47        35.08431
640.90        34.83033
641.33        34.78028
641.76        34.62431
642.18        34.52148
642.61        34.36456
643.04        34.18214
643.47        34.01199
643.90         33.9191
644.33        33.91864
644.76        33.98742
645.18        34.07871
645.61        34.11008
646.04        34.06898
646.47        33.98568
646.90        33.92273
647.33        33.97005
647.75        34.14201
648.18        34.45284
648.61        34.86036
649.04        35.17112
649.47        35.33035
649.89        35.88888
650.32        35.94212
650.75        36.33666
651.18        36.77362
651.61        37.22258
652.03        37.66526
652.46         37.9713
652.89        38.18726
653.32        38.63559
653.74        39.31865
654.17        39.51253
654.60        39.79003
655.03        40.28709
655.46        40.26449
655.88        40.75566
656.31        41.87045
656.74        42.02374
657.16        43.24955
657.59        44.78989
658.02        43.16661
658.45        43.67575
658.87        43.36308
659.30        43.76017
659.73        44.29745
660.15        44.97058
660.58        44.58297
661.01        44.75991
661.44        45.19492
661.86        45.27606
662.29        45.03934
662.72        45.49859
663.14        45.76416
663.57        46.01035
664.00        46.02171
664.42        46.23706
664.85        46.67201
665.27        47.11386
665.70         47.4591
666.13        47.67278
666.55        47.73751
666.98        47.62058
667.41        47.39973
667.83        47.50781
668.26        47.48872
668.69        47.70766
669.11        47.97418
669.54        48.21029
669.96        48.38796
670.39        48.54019
670.82        48.67964
671.24        48.77496
671.67        48.84393
672.09         48.9352
672.52         49.0526
672.94        49.14148
673.37         49.1775
673.80        49.21957
674.22        49.29236
674.65        49.40303
675.07        49.56569
675.50        49.76689
675.92        49.96356
676.35        50.07118
676.77        50.07034
677.20        50.01353
677.62        49.97361
678.05        49.97377
678.47        50.01638
678.90        50.44693
679.32        50.55981
679.75        50.78421
680.17        50.89631
680.60        50.95277
681.02        50.98233
681.45        51.00145
681.87        51.05378
682.30        51.19936
682.72        51.40947
683.15        51.49018
683.57        51.46059
684.00        51.49427
684.42        51.61087
684.85        51.72129
685.27        51.82018
685.70        51.96598
686.12        52.12474
686.54        52.23123
686.97        52.27298
687.39        52.26992
687.82        52.23732
688.24        52.22995
688.66         52.2684
689.09        52.28855
689.51        52.38993
689.94        52.50304
690.36        52.65606
690.78        52.76387
691.21        52.85844
691.63        53.11986
692.06        53.42297
692.48        53.59225
692.90        53.16864
693.33        53.03846
693.75        53.07203
694.17        53.16661
694.60        53.07969
695.02        53.06691
695.44        53.09884
695.87        53.39994
696.29        53.83834
696.71         53.8541
697.14        53.54139
697.56        53.29454
697.98        53.52064
698.41        53.83193
698.83        53.75693
699.25        54.03789
699.68        54.39905
700.10        54.58178
700.52        54.52013
700.94        54.30922
701.37        54.08079
701.79        54.03981
702.21        54.23001
702.64        54.57274
703.06        54.95278
703.48        55.16912
703.90        55.16888
704.33        55.02072
704.75        54.81622
705.17        54.69152
705.59        54.69345
706.01        54.78046
706.44        54.92338
706.86        55.07108
707.28        55.18802
707.70        55.35092
708.12        55.55743
708.55        55.64262
708.97        55.65833
709.39        55.95592
709.81        56.33574
710.23         56.5202
710.66        56.42788
711.08        56.26974
711.50        56.10292
711.92        55.95571
712.34         55.8647
712.76        55.83759
713.19        55.84042
713.61         55.8447
714.03        55.83291
714.45        55.82491
714.87        55.86776
715.29        56.03461
715.71        56.32521
716.13        56.69054
716.56        57.04093
716.98        57.30524
717.40        57.41515
717.82        57.40157
718.24        57.27563
718.66        57.05959
719.08        56.79594
719.50        56.50795
719.92        56.27412
720.34        56.20959
720.76        56.33271
721.19        56.59013
721.61        56.94751
722.03        57.29472
722.45        57.57292
722.87        57.79675
723.29        57.92793
723.71         57.8625
724.13        57.59962
724.55        57.27483
724.97         57.0207
725.39        56.55016
725.81        56.72879
726.23        56.83898
726.65        57.05886
727.07        57.38285
727.49        57.56708
727.91        57.79466
728.33        57.98355
728.75         58.1309
729.17        58.22723
729.59        58.25443
730.01         58.2411
730.43        58.24189
730.85        58.26883
731.27         58.3142
731.69        58.33978
732.10        58.27955
732.52         58.1279
732.94        57.92703
733.36         57.7583
733.78        57.64079
734.20        57.58825
734.62        57.79355
735.04        58.26872
735.46        57.94812
735.88        58.52062
736.30        58.60489
736.72        58.72623
737.13         58.8484
737.55        58.93224
737.97        59.12072
738.39        59.30391
738.81        59.02589
739.23        58.43254
739.65        58.36405
740.06        58.78012
740.48        58.98963
740.90        58.95225
741.32        59.09506
741.74        59.40228
742.16        59.61283
742.57        59.69934
742.99        59.71584
743.41        59.68728
743.83        59.64137
744.25        59.59494
744.67        59.52595
745.08        59.47745
745.50        59.50026
745.92        59.60628
746.34        59.77936
746.75         59.9484
747.17        59.98349
747.59        59.86916
748.01        59.64655
748.42        59.40207
748.84        59.29427
749.26        59.36127
749.68         59.4958
750.09        59.63937
750.51        59.83069
750.93         59.9665
751.35        59.80731
751.76        59.43547
752.18        59.19007
752.60        59.09821
753.01         59.1921
753.43        59.06807
753.85        59.04778
754.27        59.02559
754.68         59.0252
755.10        59.06988
755.52        59.19232
755.93        59.37229
756.35        59.56992
756.77         59.8206
757.18        59.95853
757.60        60.00533
758.02        60.35165
758.43        60.90337
758.85        59.93965
759.26        59.67468
759.68        59.16149
760.10        59.12307
760.51          59.545
760.93        60.26173
761.34        60.06795
761.76        60.19663
762.18        60.01202
762.59        60.03775
763.01          60.333
763.42        60.84906
763.84         61.0578
764.26        60.91784
764.67        60.70534
765.09        60.53245
765.50         60.4276
765.92        60.40546
766.33        60.23642
766.75        59.92725
767.16        59.87926
767.58        60.07809
768.00        60.28032
768.41        60.47314
768.83        60.73934
769.24         60.9704
769.66        61.06954
770.07        61.00677
770.49        60.54449
770.90        59.94671
771.32        60.22166
771.73        61.19653
772.15        61.59324
772.56        61.33854
772.97        61.03044
773.39        60.81194
773.80        61.01842
774.22        61.16996
774.63        61.35272
775.05        61.34594
775.46         61.3823
775.88        61.42206
776.29        61.33199
776.70        61.17255
777.12        61.14427
777.53        61.28083
777.95        61.47715
778.36        61.67826
778.77        61.75978
779.19        61.70938
779.60        61.60077
780.02        61.43497
780.43        61.28802
780.84        61.20833
781.26        60.90172
781.67         60.5539
782.09        61.06131
782.50         62.1578
782.91        62.37647
783.33        61.72881
783.74        61.50738
784.15        61.74942
784.57        61.67096
784.98        61.35323
785.39        61.28775
785.81        61.51872
786.22        61.94153
786.63        62.40933
787.04        62.65962
787.46        62.64023
787.87        62.42255
788.28        62.16972
788.70        62.05516
789.11        62.09559
789.52        62.39516
789.93        62.79455
790.35         62.6774
790.76        62.15946
791.17         62.1073
791.58        62.50395
792.00        62.55381
792.41        62.24579
792.82        62.15956
793.23        62.29568
793.65        62.13623
794.06        61.83253
794.47        62.11398
794.88        62.80296
795.29        63.15945
795.71        62.82964
796.12        62.62985
796.53        62.55839
796.94        62.24704
797.35        61.87655
797.76        62.20228
798.18        63.04963
798.59         63.4736
799.00        63.35051
799.41        63.18017
799.82        63.06875
800.23        62.98207
800.64        62.96115
801.06        62.97421
801.47        63.02941
801.88        63.06227
802.29        63.05236
802.70        63.02011
803.11        62.96592
803.52        62.88668
803.93         62.8035
804.34        62.72383
804.75        62.67965
805.17        62.77246
805.58         63.0518
805.99        63.28001
806.40        63.44524
806.81        63.97431
807.22        64.62659
807.63        64.39158
808.04        63.44943
808.45        62.99546
808.86        63.14749
809.27        63.28521
809.68        63.30631
810.09        63.32856
810.50        63.31945
810.91        63.24942
811.32        63.20957
811.73         63.3324
812.14        63.62992
812.55        64.08112
812.96        64.52757
813.37        64.60213
813.78        64.26945
814.19        63.81606
814.60        63.36783
815.01        62.94392
815.42        62.59337
815.83        62.36412
816.24        62.26993
816.65        62.28508
817.05         62.4071
817.46        62.62309
817.87         62.8919
818.28        63.10111
818.69        63.22092
819.10        63.25114
819.51        63.24682
819.92        63.32441
820.33         63.5057
820.74        63.74393
821.14        63.95629
821.55        64.01813
821.96        63.90097
822.37        63.63425
822.78        63.31612
823.19        63.12666
823.60        63.12214
824.00        63.27611
824.41        63.47774
824.82        63.63791
825.23        63.70796
825.64        63.70496
826.04         63.6889
826.45        63.72169
826.86        63.83126
827.27        64.00426
827.68        64.14629
828.08        64.12903
828.49        63.88402
828.90        63.47152
829.31        63.07652
829.72        62.99936
830.12        63.32512
830.53        63.92046
830.94        64.54498
831.35        64.73683
831.75        64.39486
832.16        63.64614
832.57        62.79356
832.97        62.29826
833.38        62.28548
833.79        62.59435
834.20        63.06115
834.60        63.42636
835.01        63.60672
835.42        63.72902
835.82        63.80984
836.23        63.79645
836.64        63.72949
837.04        63.56929
837.45        63.47937
837.86        63.80104
838.26        64.59319
838.67         65.7149
839.08         66.7897
839.48        67.10077
839.89        66.47581
840.29        65.18299
840.70        63.79026
841.11        62.94168
841.51        62.81428
841.92        63.20959
842.33         63.9234
842.73        64.58839
843.14        64.94749
843.54        65.13442
843.95        65.22607
844.35        65.39688
844.76        65.66291
845.17        65.94865
845.57        66.10331
845.98        65.87921
846.38        65.27715
846.79        64.40295
847.19        63.53775
847.60        63.09727
848.00        63.19055
848.41          63.673
848.81         64.3321
849.22        64.72434
849.62        64.75004
850.03        64.51599
850.43        64.16844
850.84        63.88689
851.24        63.78526
851.65        63.74327
852.05        63.82616
852.46        64.05207
852.86        64.39584
853.27        64.84563
853.67        65.23267
854.07        65.42258
854.48        65.36901
854.88        65.12688
855.29        64.74284
855.69        64.43789
856.10        64.22807
856.50        64.14085
856.90         64.1023
857.31         64.0009
857.71         63.8599
858.12        63.65964
858.52        63.51015
858.92        63.48061
859.33        63.56713
859.73        63.77699
860.13        63.97463
860.54        63.96013
860.94        63.73398
861.34        63.34834
861.75         62.9437
862.15        62.79454
862.55        62.94391
862.96        63.26458
863.36        63.68396
863.76        63.99746
864.17        64.11247
864.57        64.12613
864.97        63.97051
865.38        63.54504
865.78        62.90228
866.18        62.07473
866.58        61.30923
866.99        61.04786
867.39        61.40784
867.79         62.2327
868.19        63.23918
868.60        63.97057
869.00        64.31929
869.40        64.37437
869.80        64.20571
870.21        63.97096
870.61        63.81248
871.01        63.64019
871.41        63.44498
871.81        63.21642
872.22        62.95049
872.62        62.67624
873.02         62.4615
873.42        62.38969
873.82        62.47122
874.22        62.66618
874.63        62.86414
875.03        62.91545
875.43        62.77157
875.83        62.48241
876.23        62.14628
876.63        61.91949
877.03        61.85402
877.44        61.88729
877.84        61.99182
878.24         62.1412
878.64        62.26471
879.04        62.21758
879.44        62.11121
879.84        62.24007
880.24        62.60421
880.64        63.05401
881.04        63.37493
881.44        63.25455
881.84        62.64584
882.24        61.69679
882.65        60.67581
883.05        59.98505
883.45        59.75374
883.85        59.88563
884.25        60.28708
884.65        60.77601
885.05        61.25061
885.45        61.73569
885.85        62.18432
886.25         62.5344
886.65          62.773
887.05        62.88587
887.45        62.88837
887.85        62.83614
888.25        62.75104
888.65        62.62786
889.04        62.48867
889.44        62.38525
889.84        62.31903
890.24        62.29843
890.64        62.28315
891.04        62.20268
891.44          62.046
891.84        61.83263
892.24        61.63614
892.64        61.55946
893.04        61.63053
893.44        61.84557
893.83        62.12098
894.23        62.26621
894.63        62.25677
895.03        62.10591
895.43        61.99168
895.83        62.21609
896.23        62.80229
896.63        63.62107
897.02        64.33227
897.42        64.42307
897.82          63.808
898.22        62.71925
898.62        61.49786
899.01        60.64012
899.41        60.30813
899.81         60.3456
900.21        60.65935
900.61        61.09171
901.00        61.54143
901.40        62.03154
901.80        62.46024
902.20        62.65639
902.59        62.59386
902.99        62.29419
903.39        61.85183
903.79        61.44474
904.18        61.14569
904.58        60.94512
904.98        60.87508
905.38        60.97652
905.77        61.24092
906.17        61.66539
906.57        62.14111
906.96        62.48027
907.36        62.60703
907.76        62.56046
908.15         62.4552
908.55          62.467
908.95        62.64104
909.34        62.92331
909.74        63.16194
910.14        63.20593
910.53        63.00101
910.93        62.64071
911.33        62.19379
911.72        61.74031
912.12        61.38469
912.52        61.11634
912.91        60.95283
913.31        60.93536
913.70        61.05968
914.10        61.27062
914.49        61.60452
914.89         62.0382
915.29        62.54911
915.68        63.13213
916.08         63.5611
916.47        63.53881
916.87        63.05008
917.26        62.18622
917.66        61.33667
918.05        60.95492
918.45        61.14045
918.84        61.81059
919.24        62.63739
919.64        63.15537
920.03        63.22595
920.42        62.94701
920.82        62.61077
921.21        62.62695
921.61        63.06791
922.00        63.81656
922.40        64.56657
922.79        64.92558
923.19        64.75153
923.58        64.23041
923.98        63.59269
924.37        63.10396
924.77        62.86502
925.16         62.7488
925.55        62.75311
925.95        62.85903
926.34        63.03803
926.74        63.28135
927.13        63.42842
927.52        63.15085
927.92        62.46329
928.31        61.47167
928.70        60.47187
929.10        59.89254
929.49        59.81966
929.89        60.08126
930.28        60.60302
930.67        61.13522
931.07        61.53884
931.46        61.96011
931.85        62.21315
932.24        62.04599
932.64        61.49434
933.03         60.5896
933.42        59.78205
933.82        59.73991
934.21        60.57196
934.60        62.13495
934.99        63.88289
935.39        64.81061
935.78        64.66785
936.17        63.65118
936.56        62.33455
936.96        61.63736
937.35        61.78834
937.74        62.50144
938.13        63.29487
938.53        63.42546
938.92        62.73971
939.31        61.56577
939.70        60.31043
940.09        59.51961
940.49        59.31409
940.88        59.53872
941.27        60.05704
941.66        60.61958
942.05        61.10258
942.44        61.58915
942.84         62.0425
943.23        62.38717
943.62        62.61575
944.01        62.67295
944.40        62.65665
944.79        62.77573
945.18        63.04862
945.57        63.40675
945.97        63.61424
946.36        63.37021
946.75        62.60077
947.14         61.5079
947.53        60.35414
947.92        59.48147
948.31        58.99747
948.70        58.81933
949.09        58.92689
949.48        59.27622
949.87        59.80323
950.26         60.4879
950.65        61.20767
951.04        61.76115
951.43        62.06898
951.82        62.14036
952.21        61.99829
952.60        61.72162
952.99        61.37418
953.38        60.97083
953.77        60.59343
954.16        60.36214
954.55        60.29553
954.94        60.35627
955.33        60.50194
955.72        60.63374
956.11        60.70456
956.50        60.75434
956.89        60.69079
957.28        60.37298
957.66        59.80309
958.05        59.06866
958.44        58.41927
958.83        58.21949
959.22        58.52141
959.61        59.22661
960.00        60.05608
960.39        60.48424
960.78        60.33576
961.16        59.73983
961.55        59.01058
961.94        58.54416
962.33        58.45611
962.72         58.6788
963.11        59.00494
963.49        59.08194
963.88         58.7481
964.27        58.11933
964.66        57.59325
965.04        57.76942
965.43        58.69827
965.82        60.27871
966.21        61.87077
966.60        62.23671
966.98        61.06749
967.37        58.89046
967.76        56.68834
968.15        55.71585
968.53        56.19862
968.92        57.79342
969.31        59.86882
969.69         61.1311
970.08        61.02876
970.47        59.98988
970.86        58.69952
971.24        58.11584
971.63        58.46789
972.02        59.46809
972.40        60.69004
972.79        61.10244
973.17        60.47685
973.56        59.21895
973.95        57.91736
974.33        57.29538
974.72        57.50386
975.11        58.27793
975.49        59.33294
975.88         60.0704
976.26        60.29075
976.65         60.1326
977.04        59.73297
977.42        59.27435
977.81        58.81118
978.19        58.25837
978.58        57.81619
978.96        57.77157
979.35        58.15035
979.74        58.93763
980.12        59.86776
980.51        60.22044
980.89        59.94228
981.28        59.19542
981.66         58.4338
982.05        58.29465
982.43        58.92039
982.82        60.09932
983.20        61.59005
983.59        62.82696
983.97        63.63551
984.35        64.12981
984.74        64.25902
985.12        64.20861
985.51        64.00157
985.89        63.59597
986.28        63.21756
986.66        63.14566
987.04        63.48777
987.43        64.17044
987.81        64.95905
988.20        65.25343
988.58        64.91331
988.96        64.05238
989.35        63.01983
989.73        62.31926
990.12        62.05267
990.50        62.12258
990.88        62.24332
991.27        61.94153
991.65        61.13864
992.03        60.04268
992.42        59.08541
992.80        58.80922
993.18        59.33936
993.56        60.53872
993.95        61.94252
994.33        62.84384
994.71        62.88334
995.10        62.34174
995.48        61.66415
995.86        61.63447
996.24        62.42183
996.63        63.63166
997.01        65.05873
997.39        65.93695
997.77         65.9314
998.15        65.41853
998.54        64.40956
998.92        62.77012
999.30        60.74678
999.68        58.45237
1000.06        56.69123
1000.45        56.58361
1000.83        58.39812
1001.21        61.96321
1001.59        66.35502
1001.97        69.21942
1002.35        69.56469
1002.73        68.00852
1003.12        65.81802
1003.50        64.63046
1003.88        64.95078
1004.26        66.18089
1004.64         67.9579
1005.02        69.48199
1005.40        70.30486
1005.78        70.86694
1006.16        70.83364
1006.54        69.61585
1006.92        67.37286
1007.30        64.33121
1007.69         61.6861
1008.07        61.01638
1008.45         62.7474
1008.83        66.54603
1009.21        71.24567
1009.59        73.89555
1009.97        73.13988
1010.35        69.89444
1010.73        65.46084
1011.11        61.72388
1011.49        59.34014
1011.86        57.79736
1012.24        57.11356
1012.62        57.32592
1013.00        58.33281
1013.38        60.28395
1013.76        62.75732
1014.14        64.45319
1014.52        64.73286
1014.90        63.77437
1015.28        62.25069
1015.66        61.28172
1016.04        61.12646
1016.41        61.43738
1016.79        61.97036
1017.17        62.33051
1017.55         62.3499
1017.93        62.26857
1018.31        62.04429
1018.69         61.5122
1019.06        60.70613
1019.44        59.62271
1019.82        58.58471
1020.20        58.41404
1020.58        59.26823
1020.95        60.58659
1021.33        62.04774
1021.71        63.23946
1022.09        64.14575
1022.46        65.20901
1022.84        65.74364
1023.22        64.39697
1023.60        61.10558
1023.97        56.33614
1024.35        52.58517
1024.73        52.63973
