SpectraSmart Spectrum 2.9.0.0
--------- Device Information -----------
Spectrum Name :  反射率_0
Saving Time :  2024/04/26 23:00:15
Spectro-Module Model Name : SE2030-DUVN
Spectro-Module Serial Number : OS361AC55029948
Wavelength Start : 200
Wavelength End : 1025
Wavelength Unit : Wavelength(nm)
Spectrum Unit : Reflectance(%)
-----------Spectrum Setting ------------
Integration Time : 20ms
Average : 10
Boxcar : 0
Background removal :  enabled
linearity correction :  enabled
SC :  disabled
Intensity correction :  disabled
DWT denoise :  enabled
savitzky-golay :  disabled
FFT :  disabled
Running average :  disabled
Kalman :  disabled
High pass :  disabled
---------------BEGIN--------------------
Wavelength(nm)             Reflectance(%)
200.29               0
200.75        20.54854
201.21        19.89655
201.67        19.31601
202.13        18.59847
202.58        17.52642
203.04        16.18048
203.50        14.84459
203.96        14.46527
204.42         15.6552
204.88        18.35058
205.34        21.23926
205.80        21.91878
206.26        20.03159
206.72        16.69448
207.18        13.53676
207.64        11.81669
208.10        11.47111
208.55         12.1476
209.01        13.54205
209.47        14.44293
209.93        14.22296
210.39        13.93887
210.85        13.85135
211.31        14.15028
211.77        15.12382
212.23        17.13002
212.69        24.27707
213.14        48.82701
213.60        68.88277
214.06        67.99267
214.52        60.66624
214.98        53.23037
215.44        45.29566
215.90            35.5
216.36        25.60371
216.81        18.79535
217.27        16.37877
217.73        18.08803
218.19         23.4377
218.65        27.28353
219.11        26.58381
219.57        24.10951
220.02        22.80791
220.48        24.76916
220.94        30.27798
221.40        39.88819
221.86         53.3899
222.32        62.41788
222.77        59.31829
223.23        49.85709
223.69        40.29514
224.15        34.09169
224.61         30.8238
225.06        29.02859
225.52        28.37873
225.98        28.55854
226.44        29.37978
226.90        30.94235
227.36        32.88087
227.81        34.39252
228.27        35.26584
228.73        35.48632
229.19        35.56238
229.65        36.21053
230.10        37.46284
230.56        39.10823
231.02        40.43035
231.48        40.31602
231.93        38.69268
232.39        36.35379
232.85          34.166
233.31        33.25742
233.77        33.70552
234.22        35.10118
234.68        36.81894
235.14        38.00648
235.60        38.36443
236.05        38.14867
236.51        37.45171
236.97          36.495
237.43        35.48349
237.88        34.39397
238.34        33.42462
238.80        33.08564
239.26         33.5364
239.71        35.02026
240.17        37.31728
240.63        39.70218
241.08        41.69081
241.54        43.12009
242.00        44.26929
242.46        46.09962
242.91        49.54411
243.37         54.2112
243.83        61.22868
244.28        70.81173
244.74         79.1268
245.20         83.5031
245.66        81.86916
246.11        73.32126
246.57        59.96745
247.03        42.86048
247.48        26.60601
247.94        20.69502
248.40        25.20457
248.85         33.5379
249.31         41.7029
249.77        47.49905
250.22        51.25756
250.68        54.32145
251.14         56.1299
251.59        54.74638
252.05        50.33234
252.51        44.60717
252.96        39.29813
253.42        36.03345
253.88        34.60398
254.33        34.08299
254.79        35.07537
255.25        37.80352
255.70        41.87885
256.16        47.12718
256.62        51.27175
257.07        50.93328
257.53        47.38834
257.99        42.88984
258.44         39.4284
258.90        38.85539
259.35        40.26196
259.81        42.77767
260.27        45.15223
260.72        45.84806
261.18        44.98718
261.63        43.19297
262.09        41.38145
262.55        40.10995
263.00         39.3637
263.46        38.96072
263.91        38.58171
264.37        38.05555
264.83         37.3374
265.28        36.52495
265.74        35.84053
266.19        35.31065
266.65        34.98287
267.11        34.72655
267.56         34.5003
268.02        34.24654
268.47        33.93945
268.93        33.62912
269.38         33.2166
269.84          32.596
270.30        31.76441
270.75        30.75709
271.21        29.81336
271.66        29.24815
272.12        29.11098
272.57        29.28526
273.03        29.49237
273.48        29.27988
273.94        28.59769
274.39        27.58045
274.85        26.54895
275.31        25.83611
275.76        25.48474
276.22        25.39033
276.67        25.35626
277.13        25.16981
277.58        24.74973
278.04        24.20638
278.49        23.60657
278.95        23.13403
279.40        22.78543
279.86        22.54831
280.31        22.31002
280.77        21.99607
281.22        21.56846
281.68        21.10922
282.13        20.67407
282.59        20.39333
283.04        20.25811
283.50        20.23315
283.95        20.23483
284.41        20.14016
284.86        19.92361
285.32        19.64954
285.77        19.37367
286.22        19.21646
286.68        19.19719
287.13        19.24704
287.59        19.32958
288.04        19.35593
288.50        19.32038
288.95        19.23611
289.41        19.12691
289.86        18.97855
290.32        18.82454
290.77        18.65525
291.22         18.5255
291.68        18.50803
292.13        18.60844
292.59        18.82563
293.04        19.10252
293.50        19.35963
293.95        19.57383
294.40        19.77383
294.86        20.01778
295.31        20.39247
295.77        20.91456
296.22        21.53662
296.68        22.19855
297.13        22.80109
297.58        23.31958
298.04        23.78183
298.49        24.21583
298.95        24.67999
299.40        25.18341
299.85        25.70744
300.31        26.22861
300.76        26.70988
301.21        27.14067
301.67        27.53995
302.12        27.91172
302.58        28.30728
303.03        28.71282
303.48        29.13588
303.94        29.54177
304.39        29.85407
304.84        30.07519
305.30        30.23326
305.75        30.38329
306.20        30.65694
306.66        31.07402
307.11        31.57774
307.57        32.06337
308.02        32.32977
308.47        32.35844
308.93        32.22597
309.38        32.05583
309.83        32.08166
310.29        32.34675
310.74        32.76319
311.19        33.20213
311.65        33.44816
312.10        33.43705
312.55        33.24312
313.00        32.95778
313.46        32.71507
313.91        32.54683
314.36         32.4192
314.82        32.30541
315.27        32.17716
315.72        32.02032
316.18        31.86188
316.63        31.69814
317.08        31.52974
317.53        31.35469
317.99        31.16105
318.44        30.95171
318.89        30.72636
319.35        30.48642
319.80        30.23364
320.25        29.97012
320.70         29.6976
321.16        29.41903
321.61        29.15169
322.06        28.89461
322.51         28.6479
322.97        28.40918
323.42          28.176
323.87        27.97212
324.32        27.84133
324.78         27.7724
325.23        27.76416
325.68        27.72238
326.13        27.50061
326.59        27.07416
327.04        26.50274
327.49        25.91123
327.94        25.49533
328.39        25.29757
328.85         25.2546
329.30        25.28955
329.75        25.21137
330.20        24.96455
330.66        24.60563
331.11        24.22199
331.56        23.93067
332.01        23.76563
332.46        23.67774
332.92        23.61436
333.37        23.53259
333.82        23.39484
334.27        23.22457
334.72        23.02786
335.17        22.80764
335.63        22.57337
336.08        22.34283
336.53        22.12823
336.98        21.96045
337.43        21.84765
337.88        21.77365
338.34        21.74816
338.79        21.80549
339.24        21.92682
339.69        22.09772
340.14        22.22655
340.59        22.17118
341.05        21.91766
341.50        21.51006
341.95        21.07351
342.40        20.80208
342.85        20.74078
343.30        20.83143
343.75        20.98221
344.20        21.03986
344.66        20.96234
345.11        20.79991
345.56        20.60143
346.01        20.44207
346.46        20.35098
346.91        20.30232
347.36        20.28483
347.81        20.28852
348.26         20.3028
348.72        20.32853
349.17        20.35899
349.62        20.39088
350.07        20.41843
350.52        20.44217
350.97        20.43196
351.42        20.34413
351.87        20.18113
352.32        19.96312
352.77        19.75508
353.22        19.65207
353.67        19.66674
354.13        19.76686
354.58        19.88413
355.03        19.90804
355.48        19.80829
355.93        19.62423
356.38        19.40017
356.83        19.20131
357.28          19.049
357.73        18.92112
358.18        18.81623
358.63        18.73598
359.08        18.67432
359.53        18.63128
359.98        18.58615
360.43        18.50237
360.88        18.37123
361.33        18.20175
361.78        18.00889
362.23        17.82088
362.68        17.65307
363.13        17.50509
363.58         17.3786
364.03        17.27343
364.48        17.18708
364.93        17.11716
365.38        17.06738
365.83        17.04207
366.28        17.03602
366.73        17.04265
367.18        17.03337
367.63        16.96736
368.08         16.8373
368.53        16.65318
368.98        16.45367
369.43        16.30026
369.88        16.20998
370.33          16.173
370.78        16.14908
371.23         16.0701
371.68        15.92113
372.13        15.72075
372.58        15.52781
373.03        15.43439
373.48        15.45528
373.93        15.55825
374.38        15.66309
374.83        15.64369
375.28        15.47533
375.72        15.19948
376.17        14.91037
376.62        14.72816
377.07        14.68358
377.52        14.74028
377.97        14.84032
378.42        14.89145
378.87        14.86436
379.32        14.78172
379.77        14.68837
380.22        14.64925
380.67         14.6741
381.11        14.74377
381.56        14.78916
382.01        14.71376
382.46        14.50685
382.91        14.21701
383.36        13.93284
383.81        13.77189
384.26        13.75273
384.71        13.83606
385.15        13.95868
385.60        14.01827
386.05        13.98195
386.50        13.88451
386.95        13.75988
387.40        13.66125
387.85        13.60521
388.29        13.56117
388.74        13.53834
389.19        13.52245
389.64        13.50662
390.09         13.4943
390.54        13.47377
390.98        13.42016
391.43        13.34081
391.88        13.24342
392.33         13.1457
392.78        13.07288
393.23        13.03038
393.67        13.00476
394.12        13.00024
394.57        12.99641
395.02          12.987
395.47        12.97095
395.91        12.95425
396.36        12.93788
396.81        12.92984
397.26        12.92996
397.71        12.92263
398.15        12.89418
398.60        12.85978
399.05        12.77115
399.50        12.66612
399.95        12.69172
400.39        12.81201
400.84        12.78815
401.29        12.61933
401.74        12.50413
402.18        12.45221
402.63        12.34229
403.08        12.20378
403.53        12.13662
403.97        12.15017
404.42        12.21741
404.87        12.29582
405.32        12.31457
405.76        12.25621
406.21        12.14967
406.66        12.03802
407.11        11.99076
407.55        12.02599
408.00        12.11287
408.45        12.21418
408.90        12.25788
409.34        12.22121
409.79         12.1328
410.24        12.02178
410.68         11.9227
411.13         11.8513
411.58        11.79456
412.03        11.75286
412.47        11.73139
412.92        11.72466
413.37        11.73558
413.81        11.75203
414.26        11.76393
414.71        11.76399
415.15        11.75651
415.60        11.73915
416.05        11.71918
416.49        11.70207
416.94         11.6864
417.39        11.67706
417.83        11.68082
418.28        11.69685
418.73        11.72012
419.17        11.74924
419.62        11.78138
420.07        11.81205
420.51        11.83708
420.96        11.84544
421.41        11.81881
421.85        11.75377
422.30        11.65754
422.74        11.54646
423.19        11.49729
423.64        11.49802
424.08        11.46943
424.53        11.40925
424.98         11.4038
425.42        11.46004
425.87        11.50126
426.31        11.51275
426.76        11.55628
427.21        11.59322
427.65        11.46916
428.10        11.25115
428.54        11.16166
428.99         11.2242
429.44        11.36699
429.88        11.51964
430.33         11.5287
430.77        11.41361
431.22        11.40827
431.66        11.51049
432.11        11.51415
432.56        11.42385
433.00        11.39414
433.45        11.39049
433.89        11.27674
434.34        11.14304
434.78        10.92634
435.23        11.22838
435.67        11.30397
436.12        11.30075
436.57        11.25607
437.01        11.19299
437.46        11.15685
437.90        11.15082
438.35        11.12811
438.79         11.0891
439.24        11.07215
439.68        11.07898
440.13        11.10109
440.57        11.12469
441.02        11.13724
441.46        11.13437
441.91        11.09162
442.35        11.03016
442.80          11.088
443.24        11.22096
443.69        11.23056
444.13        11.12746
444.58        11.10775
445.02        11.17499
445.47        11.22153
445.91        11.23619
446.36        11.25735
446.80        11.27979
447.24        11.29056
447.69        11.29673
448.13        11.30418
448.58        11.31676
449.02        11.33495
449.47        11.34638
449.91        11.32551
450.36        11.27432
450.80         11.2001
451.25        11.13588
451.69         11.1263
452.13        11.17796
452.58        11.27164
453.02        11.36887
453.47        11.41005
453.91        11.37967
454.36        11.29834
454.80        11.18913
455.24        11.08839
455.69        11.01493
456.13        10.95204
456.58        10.91068
457.02        10.88852
457.46        10.88744
457.91        10.90724
458.35        10.92651
458.79        10.91046
459.24        10.86357
459.68        10.78921
460.13        10.72184
460.57        10.68489
461.01        10.69412
461.46        10.73047
461.90        10.78889
462.34        10.84982
462.79        10.89999
463.23        10.94704
463.68        10.97564
464.12        10.96865
464.56        10.92381
465.01        10.86192
465.45        10.78818
465.89         10.7403
466.34        10.72495
466.78        10.73189
467.22        10.75741
467.67        10.78374
468.11        10.80946
468.55        10.83196
468.99        10.85306
469.44        10.87395
469.88        10.89473
470.32        10.91462
470.77        10.92562
471.21        10.91924
471.65        10.89492
472.10        10.85838
472.54        10.82647
472.98        10.83006
473.42        10.87331
473.87        10.94938
474.31        11.02618
474.75        11.06504
475.20        11.06139
475.64        11.02457
476.08        10.98274
476.52        10.97353
476.97         11.0064
477.41        11.07379
477.85        11.16069
478.29        11.22561
478.74        11.26791
479.18        11.32555
479.62        11.39353
480.06        11.44583
480.50        11.48305
480.95        11.49995
481.39        11.49649
481.83         11.5891
482.27        11.61093
482.72        11.69581
483.16        11.78351
483.60        11.84664
484.04        11.86997
484.48        11.91765
484.93         12.0461
485.37        12.05629
485.81         12.2153
486.25        12.55421
486.69        11.84525
487.14         11.9571
487.58        12.96556
488.02        12.92597
488.46        12.69335
488.90        12.73285
489.34        12.66813
489.79        12.91996
490.23         13.1704
490.67        13.39816
491.11        13.52587
491.55          13.493
491.99        13.37407
492.43        13.38182
492.88        13.54553
493.32        13.73204
493.76        13.90397
494.20        14.07569
494.64        14.23823
495.08        14.35692
495.52        14.44275
495.96        14.61217
496.41        14.83875
496.85        14.88787
497.29        14.79553
497.73        14.96847
498.17        15.19112
498.61        15.36559
499.05        15.40427
499.49        15.45329
499.93        15.48595
500.37        15.58538
500.82        15.73459
501.26        15.86281
501.70         15.9632
502.14        16.08825
502.58        16.23897
503.02         16.3838
503.46        16.51702
503.90        16.64559
504.34        16.75489
504.78        16.82141
505.22        16.84282
505.66        16.82674
506.10        16.79819
506.54        16.79789
506.98        16.83757
507.42        16.90905
507.86        16.99647
508.30        17.07103
508.74        17.12414
509.18        17.16459
509.62        17.20261
510.06        17.25461
510.50        17.32418
510.94        17.40302
511.38        17.48232
511.82        17.54951
512.26        17.60086
512.70        17.64115
513.14        17.67451
513.58        17.70747
514.02        17.74206
514.46        17.77439
514.90        17.80486
515.34        17.83484
515.78        17.86284
516.22        17.88828
516.66        17.90427
517.10        17.89954
517.54        17.87315
517.98        17.83015
518.42        17.78108
518.86        17.74237
519.30        17.71994
519.74        17.71156
520.18        17.71234
520.62         17.7129
521.06        17.71118
521.50        17.71059
521.93        17.71602
522.37        17.72872
522.81        17.74908
523.25        17.76891
523.69        17.78277
524.13        17.78491
524.57        17.77055
525.01        17.73923
525.45        17.68449
525.89        17.59685
526.32        17.47814
526.76        17.34248
527.20        17.20406
527.64        17.08492
528.08        16.99299
528.52         16.9234
528.96         16.8771
529.40        16.85347
529.83        16.84713
530.27        16.85671
530.71        16.86381
531.15        16.84131
531.59        16.78388
532.03        16.69733
532.46        16.59922
532.90        16.53074
533.34        16.49896
533.78        16.48598
534.22        16.47596
534.66        16.46408
535.09         16.4331
535.53        16.35288
535.97        16.24937
536.41         16.2044
536.85        16.22818
537.28        16.28321
537.72        16.34869
538.16        16.40366
538.60         16.4379
539.04        16.45652
539.47        16.47095
539.91        16.50929
540.35        16.57419
540.79        16.65989
541.22        16.74888
541.66        16.82005
542.10        16.86781
542.54        16.90087
542.97        16.94046
543.41        17.02595
543.85        17.16109
544.29        17.33319
544.72        17.51089
545.16        17.65977
545.60        17.76802
546.04        17.84974
546.47        17.92997
546.91        18.04508
547.35        18.20199
547.79        18.38903
548.22        18.58246
548.66        18.74322
549.10        18.88639
549.53        19.01565
549.97        19.14992
550.41        19.27442
550.84        19.41297
551.28        19.60728
551.72        19.82368
552.15        20.02441
552.59        20.22094
553.03        20.13439
553.46        20.38385
553.90        20.44106
554.34        20.48633
554.77        20.60593
555.21        20.65775
555.65        20.76498
556.08        20.87323
556.52        20.97582
556.96         21.0633
557.39        21.18095
557.83         21.3113
558.27        21.33003
558.70        21.26214
559.14        21.27718
559.57        21.37088
560.01        21.43533
560.45        21.46441
560.88        21.51584
561.32         21.5999
561.75        21.67778
562.19        21.75413
562.63        21.83144
563.06        21.90481
563.50        21.97701
563.93        22.02952
564.37        22.08998
564.80        22.16858
565.24        22.20758
565.68        22.16955
566.11        22.47814
566.55        22.32902
566.98        22.39092
567.42        22.46428
567.85        22.58802
568.29        22.76869
568.72         23.0039
569.16        23.27975
569.60        23.45392
570.03        23.60677
570.47        23.71787
570.90        23.82158
571.34        23.86446
571.77         24.0239
572.21        24.14062
572.64        24.25379
573.08        24.41054
573.51        24.61421
573.95          24.739
574.38        24.80711
574.82        24.93025
575.25        24.74008
575.69        24.78048
576.12        24.89596
576.56        25.00945
576.99        25.17951
577.42        24.73208
577.86        25.06902
578.29        25.09129
578.73        25.07369
579.16        25.04811
579.60        24.94654
580.03        25.01089
580.47        24.87995
580.90        24.98761
581.33        24.79141
581.77        24.86523
582.20         24.3202
582.64        24.25292
583.07        24.07287
583.51        24.01413
583.94        24.01188
584.37        24.06359
584.81        24.00438
585.24        23.82148
585.68        23.58263
586.11        23.37394
586.54        23.32747
586.98        23.26578
587.41        23.24525
587.85        23.13475
588.28        22.94186
588.71        23.10822
589.15         23.0564
589.58        22.92916
590.01        23.07412
590.45        23.06926
590.88        23.06552
591.31         22.9907
591.75        22.93352
592.18        22.94092
592.61        22.94179
593.05        23.40792
593.48        23.38849
593.91        23.10107
594.35        23.27193
594.78        23.25313
595.21        23.34266
595.65        23.47229
596.08        23.70957
596.51        23.89538
596.94        23.92638
597.38        24.09538
597.81        24.37809
598.24        24.56768
598.68        24.67626
599.11        25.11512
599.54        25.23897
599.97        25.41845
600.41        25.87499
600.84        26.03032
601.27        26.39262
601.70        26.68147
602.14        26.99627
602.57         27.3617
603.00        27.81368
603.43        27.88272
603.87         28.6388
604.30        28.93385
604.73         29.1271
605.16        29.42563
605.60        29.84713
606.03        29.99541
606.46        29.90003
606.89        30.47626
607.32        31.19898
607.76        31.49008
608.19        31.85998
608.62        32.03955
609.05        32.33399
609.48         32.6125
609.92        33.28774
610.35        33.40472
610.78        33.51954
611.21         33.3947
611.64        33.97693
612.07        34.32924
612.50        34.47983
612.94        34.72672
613.37        35.01095
613.80        35.11245
614.23         35.0836
614.66        35.28007
615.09        35.70483
615.52        35.96351
615.96        36.01969
616.39        36.32603
616.82        36.78914
617.25         36.5952
617.68        37.10416
618.11        37.22239
618.54        37.38353
618.97        37.54187
619.40        37.69884
619.84         37.9666
620.27        37.97258
620.70        38.12704
621.13        38.27851
621.56        38.18195
621.99        37.89251
622.42        37.83538
622.85        38.04061
623.28        38.08542
623.71        38.00141
624.14        38.37954
624.57         38.4312
625.00        38.55928
625.43        38.49346
625.86        38.42951
626.29        38.43039
626.72        37.93956
627.15        38.09079
627.58        37.95827
628.01        37.83384
628.44        37.69283
628.87         37.4357
629.30        37.15126
629.73        36.85321
630.16        36.63624
630.59        36.50792
631.02        36.43999
631.45        36.37778
631.88        36.18055
632.31        35.81047
632.74        35.39784
633.17        35.02249
633.60        34.30975
634.03        34.09443
634.46         33.7057
634.89        33.35879
635.32        33.00064
635.75        32.62811
636.18         32.2174
636.61        31.78893
637.04        31.40982
637.47        31.08635
637.89        30.79305
638.32        30.50459
638.75        30.21452
639.18        29.92095
639.61        29.63195
640.04        29.35918
640.47         29.1158
640.90        28.90386
641.33        28.71972
641.76        28.55522
642.18        28.40246
642.61         28.2525
643.04        28.11264
643.47        27.99618
643.90        27.92286
644.33        27.89647
644.76        27.91311
645.18        27.95387
645.61        27.98231
646.04        27.99383
646.47        27.99825
646.90        28.03062
647.33        28.13947
647.75        28.33026
648.18        28.62529
648.61        28.98792
649.04        29.26924
649.47        29.42791
649.89        29.87786
650.32         29.8971
650.75        30.32339
651.18        30.86857
651.61         31.3388
652.03        31.71744
652.46        31.98021
652.89        32.17654
653.32        32.76635
653.74        33.29935
654.17        33.69558
654.60        34.30854
655.03        34.85518
655.46        34.84339
655.88        35.01584
656.31        35.97745
656.74        36.04789
657.16        37.37547
657.59        39.14016
658.02        37.77163
658.45        38.14245
658.87        38.02994
659.30        38.20661
659.73        38.55141
660.15         39.1796
660.58        38.93308
661.01        39.09632
661.44        39.37875
661.86         39.4771
662.29        39.40371
662.72        39.90765
663.14        40.17354
663.57        40.31662
664.00        40.19937
664.42        40.36457
664.85        40.84312
665.27        41.36109
665.70        41.78492
666.13        42.05127
666.55        42.12625
666.98        41.99076
667.41        41.73763
667.83        41.78678
668.26        41.75068
668.69        41.94115
669.11        42.18248
669.54        42.39614
669.96        42.55506
670.39        42.68534
670.82        42.80666
671.24         42.9257
671.67        43.04588
672.09         43.1494
672.52        43.24432
672.94        43.32655
673.37        43.40236
673.80        43.45853
674.22        43.51532
674.65        43.60419
675.07        43.72454
675.50        43.80774
675.92        43.84461
676.35        43.85858
676.77        43.84243
677.20         43.8017
677.62        43.77813
678.05        43.75541
678.47        43.72533
678.90        44.06244
679.32        44.06113
679.75        44.20725
680.17        44.28532
680.60        44.32663
681.02         44.3584
681.45        44.43895
681.87        44.59354
682.30        44.77464
682.72        44.95346
683.15        45.09369
683.57        45.17189
684.00        45.11433
684.42        44.99421
684.85        45.01281
685.27        45.18751
685.70         45.4254
686.12         45.6455
686.54        45.79647
686.97        45.78798
687.39        45.70724
687.82        45.57928
688.24        45.49485
688.66        45.48278
689.09         45.4998
689.51        45.54956
689.94        45.65989
690.36        45.80311
690.78        45.86778
691.21        45.87773
691.63        45.95328
692.06        46.09939
692.48         46.2616
692.90        46.39376
693.33        46.42259
693.75        46.35088
694.17        46.26136
694.60        46.22021
695.02        46.22824
695.44        46.33295
695.87        46.62563
696.29        47.00166
696.71        47.09118
697.14        46.89209
697.56        46.67347
697.98        46.55355
698.41        46.54428
698.83        46.66446
699.25         46.9708
699.68        47.32288
700.10        47.48542
700.52        47.39062
700.94        47.12476
701.37        46.81863
701.79        46.68809
702.21        46.78469
702.64        47.02934
703.06        47.34038
703.48         47.5733
703.90        47.67804
704.33         47.6999
704.75        47.66812
705.17        47.62114
705.59        47.58429
706.01        47.54223
706.44        47.50916
706.86        47.53837
707.28        47.63045
707.70        47.74528
708.12        47.87038
708.55        48.04579
708.97        48.22347
709.39        48.23049
709.81        48.09899
710.23        48.06041
710.66        48.13608
711.08        48.21233
711.50        48.24145
711.92        48.21593
712.34        48.13234
712.76        48.00809
713.19        47.88147
713.61        47.84124
714.03        47.89956
714.45        48.03613
714.87        48.22781
715.29        48.43994
715.71        48.65067
716.13        48.85352
716.56        49.02148
716.98        49.17673
717.40        49.28743
717.82        49.35095
718.24        49.34368
718.66        49.23278
719.08        49.03542
719.50        48.78812
719.92        48.56472
720.34        48.47224
720.76        48.53228
721.19        48.69446
721.61        48.93631
722.03        49.17963
722.45        49.38031
722.87        49.54684
723.29        49.63277
723.71        49.56803
724.13        49.35777
724.55        49.03588
724.97        48.69515
725.39        48.49446
725.81        48.47839
726.23        48.58825
726.65         48.7761
727.07        49.06589
727.49        49.24477
727.91        49.47227
728.33        49.67002
728.75        49.80168
729.17        49.85506
729.59        49.82459
730.01        49.75237
730.43          49.714
730.85        49.72853
731.27        49.78083
731.69        49.82715
732.10        49.79413
732.52        49.66803
732.94        49.48579
733.36        49.32065
733.78        49.18987
734.20        49.10747
734.62        49.25891
735.04        49.64284
735.46        49.29618
735.88        49.69084
736.30        49.72936
736.72        49.88422
737.13        50.09403
737.55        50.28614
737.97        50.36164
738.39        50.29987
738.81        50.14211
739.23        49.96781
739.65        49.99865
740.06        50.19054
740.48        50.30802
740.90        50.31755
741.32        50.37972
741.74        50.50238
742.16        50.59583
742.57        50.65193
742.99        50.70862
743.41         50.7359
743.83        50.62002
744.25        50.38918
744.67        50.17852
745.08        50.06639
745.50         50.0552
745.92        50.16649
746.34         50.4236
746.75         50.7308
747.17        50.88769
747.59        50.85655
748.01        50.69802
748.42        50.48128
748.84        50.33079
749.26        50.28608
749.68        50.27352
750.09        50.28159
750.51        50.36694
750.93        50.47918
751.35        50.48201
751.76        50.36641
752.18        50.25271
752.60        50.14502
753.01        49.97997
753.43        49.78671
753.85        49.68003
754.27        49.68904
754.68        49.79532
755.10        49.96287
755.52        50.13107
755.93        50.26272
756.35        50.34634
756.77        50.42411
757.18        50.51578
757.60        50.63133
758.02        50.89074
758.43        51.13811
758.85        50.87858
759.26        50.44408
759.68        49.98431
760.10        50.12753
760.51        50.47614
760.93         51.0802
761.34        50.53577
761.76        50.68516
762.18        50.59256
762.59        50.83207
763.01        51.00108
763.42        51.10549
763.84        51.16496
764.26        51.16171
764.67         51.1352
765.09        51.09821
765.50        50.89223
765.92        50.61864
766.33        50.50787
766.75        50.51433
767.16        50.60447
767.58        50.51031
768.00        50.49937
768.41        50.55114
768.83        50.73031
769.24        50.95647
769.66        51.06568
770.07        51.02739
770.49        50.77282
770.90        50.46035
771.32        50.66445
771.73        51.27735
772.15         51.4986
772.56        51.28355
772.97        51.05251
773.39        50.91988
773.80        50.90908
774.22        51.02384
774.63        51.23907
775.05        51.43186
775.46        51.51541
775.88        51.43435
776.29        51.21681
776.70        50.96943
777.12        50.90298
777.53        51.06548
777.95         51.3555
778.36        51.67682
778.77        51.84286
779.19        51.81879
779.60        51.68851
780.02        51.48397
780.43        51.33129
780.84         51.2863
781.26        51.05254
781.67        50.76797
782.09        51.22969
782.50        52.17459
782.91        52.22733
783.33        51.45945
783.74        51.15341
784.15        51.37151
784.57        51.36407
784.98        51.17099
785.39        51.15962
785.81        51.36983
786.22        51.80344
786.63        52.32007
787.04        52.58761
787.46         52.5579
787.87        52.35124
788.28        52.10131
788.70        51.96466
789.11         51.9745
789.52        52.10782
789.93        52.26925
790.35        52.30867
790.76        52.19965
791.17        51.94556
791.58        51.66702
792.00        51.60247
792.41        51.74813
792.82        51.93419
793.23        52.07208
793.65        51.94718
794.06        51.67889
794.47        51.82881
794.88        52.30101
795.29        52.47098
795.71        52.28994
796.12        52.14077
796.53        52.09806
796.94        52.11638
797.35        52.21745
797.76        52.42043
798.18        52.63731
798.59         52.7577
799.00        52.73409
799.41        52.59475
799.82        52.41741
800.23         52.3361
800.64        52.38341
801.06        52.49824
801.47           52.64
801.88        52.67118
802.29        52.55394
802.70        52.32246
803.11        52.06206
803.52        51.91056
803.93         51.9219
804.34         52.0691
804.75        52.25966
805.17        52.41523
805.58        52.54321
805.99        52.38875
806.40        52.09129
806.81        52.52988
807.22        53.43888
807.63         53.2845
808.04        52.21833
808.45         51.7883
808.86        52.09994
809.27        52.30323
809.68        52.28217
810.09        52.26091
810.50        52.21514
810.91        52.07644
811.32        51.95709
811.73        52.03913
812.14        52.34747
812.55        52.83554
812.96         53.3233
813.37        53.46845
813.78        53.18839
814.19        52.61883
814.60        51.97005
815.01        51.52185
815.42         51.3445
815.83        51.36386
816.24        51.51964
816.65        51.69068
817.05        51.82442
817.46        51.93737
817.87        52.05069
818.28        52.15768
818.69        52.26044
819.10         52.3334
819.51        52.39194
819.92         52.4872
820.33        52.62301
820.74        52.76332
821.14        52.86918
821.55         52.9229
821.96        52.88976
822.37        52.68238
822.78        52.37261
823.19        52.18493
823.60        52.16473
824.00        52.23883
824.41        52.32223
824.82        52.37753
825.23        52.37376
825.64        52.32192
826.04        52.27083
826.45        52.26864
826.86        52.33997
827.27        52.47933
827.68        52.62201
828.08        52.68189
828.49        52.59982
828.90        52.41202
829.31        52.24567
829.72         52.3117
830.12        52.66444
830.53        53.19353
830.94         53.7043
831.35        53.82639
831.75        53.48511
832.16        52.78979
832.57         51.9919
832.97        51.47327
833.38        51.34391
833.79        51.47556
834.20        51.76019
834.60        52.02109
835.01         52.1922
835.42        52.36725
835.82        52.51034
836.23        52.49451
836.64        52.33313
837.04        52.01837
837.45        51.74712
837.86        51.89922
838.26          52.554
838.67        53.57781
839.08        54.61268
839.48        54.97854
839.89        54.50158
840.29        53.41666
840.70         52.2459
841.11        51.60146
841.51         51.6352
841.92        52.14959
842.33         52.8942
842.73        53.42001
843.14        53.48675
843.54        53.27891
843.95        52.95776
844.35        52.81599
844.76        52.91714
845.17         53.1501
845.57        53.39797
845.98        53.46096
846.38        53.30605
846.79        53.01209
847.19        52.68076
847.60        52.44733
848.00        52.36669
848.41        52.37463
848.81        52.46069
849.22        52.54807
849.62        52.63511
850.03        52.72849
850.43        52.81964
850.84        52.84135
851.24        52.81334
851.65        52.69867
852.05        52.59874
852.46        52.61981
852.86        52.78486
853.27        53.05664
853.67        53.28852
854.07        53.35495
854.48        53.21652
854.88        52.93374
855.29        52.56772
855.69        52.32543
856.10        52.22661
856.50        52.27612
856.90        52.38324
857.31        52.40979
857.71        52.35462
858.12        52.20275
858.52        52.05094
858.92        51.97091
859.33        51.97189
859.73        52.06768
860.13        52.14676
860.54        52.04598
860.94        51.77146
861.34        51.36525
861.75        50.98523
862.15        50.91805
862.55        51.20488
862.96        51.72856
863.36        52.32854
863.76        52.67065
864.17        52.63953
864.57        52.35876
864.97        51.91153
865.38        51.43928
865.78        51.03456
866.18        50.66003
866.58        50.37556
866.99        50.28795
867.39        50.42593
867.79        50.75981
868.19        51.20082
868.60        51.58326
869.00        51.87843
869.40        52.09554
869.80        52.22942
870.21        52.28363
870.61        52.30906
871.01        52.25891
871.41        52.13425
871.81        51.94487
872.22        51.69202
872.62        51.37154
873.02         51.0419
873.42        50.78823
873.82        50.64029
874.22        50.60067
874.63        50.56577
875.03        50.38507
875.43        50.02806
875.83        49.54414
876.23         49.1159
876.63        49.02941
877.03        49.33458
877.44         49.9096
877.84        50.53481
878.24        50.88745
878.64        50.81888
879.04        50.25403
879.44        49.51554
879.84        49.25474
880.24        49.55827
880.64        50.16598
881.04        50.76588
881.44        50.88746
881.84        50.42015
882.24        49.55829
882.65        48.60796
883.05         48.0288
883.45        47.95662
883.85        48.25103
884.25        48.76989
884.65        49.26721
885.05        49.62966
885.45         49.9188
885.85        50.13243
886.25        50.26713
886.65        50.33386
887.05        50.30877
887.45         50.2116
887.85        50.10376
888.25        50.00037
888.65        49.88771
889.04        49.76633
889.44        49.64955
889.84        49.52549
890.24         49.4099
890.64        49.26251
891.04        49.01324
891.44        48.67737
891.84        48.30696
892.24        48.00271
892.64        47.90693
893.04        48.05128
893.44        48.39241
893.83        48.87607
894.23        49.36563
894.63        49.80885
895.03        50.19259
895.43        50.51148
895.83        50.77348
896.23        50.96459
896.63        51.06413
897.02        51.00418
897.42        50.71687
897.82        50.22252
898.22        49.60249
898.62        48.99929
899.01        48.60616
899.41         48.4781
899.81        48.55019
900.21        48.75787
900.61        48.98553
901.00        49.17648
901.40        49.35279
901.80        49.46903
902.20        49.45664
902.59        49.32113
902.99        49.06913
903.39        48.79405
903.79        48.65701
904.18         48.6868
904.58        48.83772
904.98         49.0489
905.38        49.22527
905.77        49.33981
906.17        49.44563
906.57        49.50332
906.96        49.45086
907.36        49.28568
907.76        49.02953
908.15        48.85202
908.55        49.00665
908.95        49.53303
909.34        50.35046
909.74        51.17779
910.14        51.62185
910.53        51.54877
910.93        51.08853
911.33        50.41626
911.72        49.80453
912.12        49.40257
912.52        49.14976
912.91        48.99379
913.31         48.8538
913.70        48.71347
914.10         48.5874
914.49        48.58433
914.89         48.8124
915.29        49.28475
915.68        49.94167
916.08        50.54063
916.47        50.73694
916.87        50.46999
917.26        49.83529
917.66        49.13158
918.05        48.70755
918.45        48.64998
918.84        48.89413
919.24        49.24107
919.64         49.4485
920.03         49.4455
920.42        49.29015
920.82        49.13779
921.21        49.17206
921.61        49.42418
922.00        49.84501
922.40        50.27396
922.79        50.54426
923.19         50.5745
923.58        50.44453
923.98        50.25609
924.37        50.12394
924.77        50.09056
925.16        50.07203
925.55        50.07024
925.95        50.07719
926.34        50.08397
926.74        50.09726
927.13        50.01062
927.52        49.58245
927.92        48.86077
928.31        47.95744
928.70        47.14924
929.10        46.83465
929.49        47.07413
929.89         47.6766
930.28        48.55347
930.67        49.44941
931.07        50.19213
931.46        50.89685
931.85        51.27573
932.24        50.92379
932.64        49.88146
933.03        48.27513
933.42        46.74044
933.82        46.21392
934.21        46.87184
934.60        48.50288
934.99        50.48228
935.39        51.64595
935.78        51.65564
936.17        50.75468
936.56        49.50172
936.96        48.79794
937.35        48.87933
937.74        49.45295
938.13        50.08405
938.53        50.12152
938.92         49.4347
939.31        48.31798
939.70        47.15026
940.09        46.43058
940.49        46.26532
940.88        46.51425
941.27        47.00329
941.66        47.41871
942.05        47.63919
942.44        47.77062
942.84         47.8816
943.23        48.06297
943.62        48.33944
944.01        48.61157
944.40        48.86941
944.79        49.13326
945.18        49.37581
945.57        49.59579
945.97         49.6354
946.36        49.31844
946.75        48.61465
947.14        47.64966
947.53         46.6805
947.92         46.0541
948.31        45.85381
948.70        46.00523
949.09        46.36064
949.48        46.65299
949.87        46.78314
950.26        46.79742
950.65        46.80145
951.04        46.97998
951.43        47.35943
951.82        47.85309
952.21        48.27469
952.60        48.34648
952.99        48.03461
953.38        47.46518
953.77        46.86629
954.16        46.58776
954.55        46.71347
954.94        47.12229
955.33        47.68107
955.72        48.14503
956.11        48.40245
956.50        48.52776
956.89        48.46777
957.28        48.14518
957.66        47.58888
958.05        46.86171
958.44        46.17603
958.83        45.84567
959.22        45.91843
959.61        46.31708
960.00        46.84906
960.39        47.13744
960.78        47.05662
961.16         46.7131
961.55        46.27928
961.94        45.96985
962.33        45.85468
962.72        45.87983
963.11        45.99283
963.49        46.12383
963.88        46.19143
964.27        46.21926
964.66        46.28979
965.04         46.5475
965.43        46.96338
965.82        47.52319
966.21        47.99555
966.60        47.95617
966.98        47.31518
967.37        46.29469
967.76         45.2841
968.15         44.7675
968.53        44.84138
968.92        45.38902
969.31        46.18005
969.69        46.73183
970.08         46.8148
970.47        46.58675
970.86         46.3221
971.24        46.43229
971.63        46.99897
972.02        47.86519
972.40        48.79519
972.79         49.1637
973.17        48.82918
973.56        48.02109
973.95        47.02769
974.33        46.17205
974.72        45.55941
975.11        45.08873
975.49        44.78799
975.88        44.71819
976.26        44.90022
976.65        45.26327
977.04        45.70632
977.42         46.0267
977.81        46.12918
978.19        46.06644
978.58        45.90963
978.96        45.73256
979.35        45.56564
979.74        45.37024
980.12        45.30222
980.51         45.4614
980.89        45.93292
981.28        46.61727
981.66        47.29356
982.05        47.58899
982.43        47.45551
982.82         46.9725
983.20        46.43717
983.59        46.37128
983.97        46.98747
984.35         48.1348
984.74         49.3646
985.12         50.1344
985.51        50.19532
985.89        49.71129
986.28         49.0731
986.66        48.79719
987.04        49.05968
987.43         49.6902
987.81        50.33511
988.20        50.30042
988.58        49.43206
988.96        47.95868
989.35        46.39219
989.73        45.44312
990.12        45.24374
990.50        45.64583
990.88        46.21622
991.27        46.20265
991.65        45.43501
992.03        44.20738
992.42         43.0897
992.80        42.86964
993.18        43.70108
993.56        45.35049
993.95        47.25779
994.33        48.46608
994.71        48.52761
995.10        47.79011
995.48        46.74034
995.86        46.18623
996.24        46.32566
996.63        46.79537
997.01        47.46909
997.39        47.85933
997.77        47.75768
998.15        47.47053
998.54        46.92781
998.92        45.87996
999.30        44.47281
999.68        42.80836
1000.06        41.54093
1000.45        41.60481
1000.83         43.2235
1001.21        46.21968
1001.59        49.84263
1001.97        52.17566
1002.35        52.43515
1002.73        51.20058
1003.12        49.44804
1003.50        48.40143
1003.88        48.47863
1004.26        49.16997
1004.64        50.47096
1005.02        52.28486
1005.40        54.30474
1005.78         56.6517
1006.16        58.34297
1006.54         57.8251
1006.92        55.08139
1007.30        50.71289
1007.69        46.41789
1008.07        44.47525
1008.45        45.52871
1008.83        49.09613
1009.21        54.00193
1009.59        57.22551
1009.97        57.26706
1010.35        54.96911
1010.73        51.48773
1011.11        48.51933
1011.49        46.65323
1011.86        45.41867
1012.24        44.66621
1012.62        44.26025
1013.00        44.08857
1013.38        44.26619
1013.76        44.80048
1014.14        45.50532
1014.52        46.21069
1014.90        46.82915
1015.28        47.15121
1015.66        47.00168
1016.04        46.40002
1016.41        45.38329
1016.79        44.26739
1017.17        43.69483
1017.55        43.82592
1017.93        44.44652
1018.31        45.22492
1018.69        45.65785
1019.06        45.62949
1019.44        45.37654
1019.82        44.91047
1020.20        44.34432
1020.58        43.82391
1020.95        43.21963
1021.33        43.00759
1021.71        43.75727
1022.09        45.56221
1022.46        48.57399
1022.84        51.94027
1023.22         53.2939
1023.60         51.7742
1023.97        48.00354
1024.35        44.34782
1024.73         43.5213
