SpectraSmart Spectrum 2.9.0.0
--------- Device Information -----------
Spectrum Name :  反射率_0
Saving Time :  2024/04/26 22:57:58
Spectro-Module Model Name : SE2030-DUVN
Spectro-Module Serial Number : OS361AC55029948
Wavelength Start : 200
Wavelength End : 1025
Wavelength Unit : Wavelength(nm)
Spectrum Unit : Reflectance(%)
-----------Spectrum Setting ------------
Integration Time : 20ms
Average : 10
Boxcar : 0
Background removal :  enabled
linearity correction :  enabled
SC :  disabled
Intensity correction :  disabled
DWT denoise :  enabled
savitzky-golay :  disabled
FFT :  disabled
Running average :  disabled
Kalman :  disabled
High pass :  disabled
---------------BEGIN--------------------
Wavelength(nm)             Reflectance(%)
200.29               0
200.75        29.39164
201.21        33.01229
201.67        36.38121
202.13        38.47688
202.58        39.38583
203.04        39.82681
203.50        40.34428
203.96        42.05687
204.42        45.32221
204.88        49.19656
205.34        52.66154
205.80        54.39841
206.26        53.91343
206.72        51.91325
207.18        48.64712
207.64        43.53033
208.10        36.01905
208.55        24.96344
209.01        10.80083
209.47         3.81182
209.93         9.53571
210.39         21.0295
210.85        31.38472
211.31        38.76838
211.77        45.44407
212.23        55.29731
212.69        77.11339
213.14         118.668
213.60        126.4078
214.06        104.1526
214.52        85.58762
214.98        74.68999
215.44        66.89928
215.90        58.88785
216.36        52.28571
216.81        50.22589
217.27        54.15784
217.73        66.11558
218.19        83.04053
218.65        86.75453
219.11        72.59724
219.57        53.51432
220.02        41.69621
220.48         42.9046
220.94          56.306
221.40        83.39705
221.86        123.2857
222.32        149.7821
222.77        140.2428
223.23        112.0017
223.69        84.46507
224.15        68.63543
224.61        62.56294
225.06        60.85106
225.52        61.82193
225.98        63.90713
226.44        66.57439
226.90        70.51149
227.36        74.78145
227.81        77.31667
228.27        77.78248
228.73        76.41091
229.19        74.82822
229.65         75.1712
230.10        77.46103
230.56        81.03128
231.02        84.08052
231.48        83.79821
231.93        79.99886
232.39        74.55829
232.85        69.36366
233.31        66.78847
233.77         67.0587
234.22        69.21207
234.68         72.3456
235.14        75.16693
235.60        77.15599
236.05        78.84599
236.51        79.81282
236.97        79.36497
237.43        77.40079
237.88        73.94268
238.34        70.19193
238.80        68.56002
239.26        69.90145
239.71        74.79496
240.17        82.03128
240.63        87.75147
241.08        89.37575
241.54        86.18741
242.00        81.25261
242.46        81.46239
242.91        91.17746
243.37        112.3725
243.83        144.9157
244.28        170.2866
244.74        164.4379
245.20        130.7959
245.66        93.29628
246.11        71.54479
246.57        65.45779
247.03        68.19098
247.48        74.74509
247.94        76.93325
248.40        73.64175
248.85        68.96707
249.31        64.87785
249.77        61.46467
250.22        58.11658
250.68        53.74058
251.14        48.44385
251.59        44.64438
252.05        44.56326
252.51        47.88245
252.96        51.93887
253.42        54.30279
253.88        54.92738
254.33        54.30276
254.79        54.67516
255.25         57.8331
255.70        63.50254
256.16        70.94695
256.62        77.13312
257.07        77.49979
257.53        73.51723
257.99        68.14652
258.44        63.84381
258.90        62.94963
259.35        64.37677
259.81        67.24582
260.27        70.04403
260.72        70.94591
261.18        70.14877
261.63        68.22552
262.09         66.4587
262.55        65.61903
263.00         65.5808
263.46        66.09675
263.91        66.39999
264.37        65.91782
264.83        64.60073
265.28        62.77234
265.74        61.12688
266.19        60.14705
266.65        59.96715
267.11        60.24684
267.56          60.653
268.02        60.67709
268.47        60.16845
268.93        59.35659
269.38         58.3334
269.84        57.30811
270.30        56.34945
270.75        55.36735
271.21        54.51077
271.66        53.94294
272.12        53.66573
272.57        53.58961
273.03        53.46791
273.48        52.87186
273.94        51.79628
274.39         50.3616
274.85        48.89703
275.31        47.68111
275.76        46.76167
276.22        46.10104
276.67        45.56724
277.13        45.10135
277.58        44.59656
278.04         44.1083
278.49        43.57844
278.95        43.06343
279.40        42.50105
279.86         41.9619
280.31        41.33284
280.77        40.60482
281.22        39.74603
281.68        38.86589
282.13        38.04688
282.59        37.51538
283.04        37.24051
283.50        37.17261
283.95        37.14862
284.41        36.93902
284.86        36.48514
285.32        35.89774
285.77        35.27434
286.22         34.8247
286.68        34.58533
287.13        34.44851
287.59        34.34784
288.04        34.12922
288.50        33.79171
288.95        33.36262
289.41        32.92326
289.86        32.50624
290.32        32.16994
290.77        31.87801
291.22          31.646
291.68        31.48253
292.13         31.3709
292.59        31.32661
293.04          31.346
293.50        31.44504
293.95        31.61089
294.40        31.84304
294.86        32.11193
295.31         32.3619
295.77        32.59407
296.22        32.81514
296.68        33.07833
297.13        33.44765
297.58        33.94075
298.04        34.53297
298.49        35.16592
298.95        35.76992
299.40        36.30335
299.85         36.7714
300.31        37.19929
300.76        37.61533
301.21        38.02819
301.67        38.44318
302.12        38.78995
302.58        39.03041
303.03         39.1402
303.48        39.16776
303.94        39.21316
304.39        39.38044
304.84        39.69831
305.30         40.1362
305.75        40.57178
306.20        40.87737
306.66        41.03286
307.11         41.0645
307.57        41.05558
308.02        41.07849
308.47        41.16635
308.93        41.29163
309.38        41.41273
309.83        41.52457
310.29        41.61761
310.74        41.69646
311.19        41.73241
311.65        41.66931
312.10        41.49826
312.55        41.23511
313.00        40.95764
313.46        40.78231
313.91        40.71655
314.36        40.74091
314.82        40.76622
315.27        40.65753
315.72        40.38334
316.18        39.99971
316.63        39.59467
317.08         39.3221
317.53        39.21301
317.99        39.21058
318.44        39.23613
318.89        39.14944
319.35        38.91307
319.80        38.57368
320.25        38.19246
320.70        37.86656
321.16        37.62304
321.61        37.44205
322.06        37.28698
322.51        37.10407
322.97        36.87196
323.42        36.61493
323.87        36.36319
324.32        36.16811
324.78          36.026
325.23        35.93823
325.68        35.83572
326.13        35.61911
326.59        35.27308
327.04        34.84718
327.49        34.42445
327.94        34.13813
328.39        34.01315
328.85        33.99128
329.30        34.03181
329.75        33.99207
330.20        33.82802
330.66        33.57482
331.11        33.28582
331.56        33.02006
332.01        32.79922
332.46        32.59312
332.92        32.38638
333.37        32.21072
333.82        32.05199
334.27        31.92649
334.72        31.80676
335.17        31.63711
335.63        31.40922
336.08        31.15486
336.53        30.93394
336.98        30.85946
337.43        30.94967
337.88        31.15625
338.34        31.39413
338.79        31.55193
339.24        31.57208
339.69        31.49004
340.14        31.31826
340.59        31.08526
341.05        30.82903
341.50        30.54424
341.95        30.29292
342.40        30.16891
342.85        30.18608
343.30        30.31819
343.75        30.49499
344.20        30.59502
344.66         30.5854
345.11        30.49654
345.56        30.36443
346.01        30.25167
346.46        30.18512
346.91        30.14831
347.36        30.13789
347.81        30.15446
348.26        30.18843
348.72        30.23223
349.17         30.2784
349.62         30.3253
350.07        30.36571
350.52        30.40558
350.97        30.39218
351.42        30.24665
351.87        29.97091
352.32        29.59655
352.77        29.24472
353.22        29.09137
353.67        29.16291
354.13        29.40919
354.58        29.68988
355.03        29.76815
355.48        29.58619
355.93        29.21858
356.38        28.80871
356.83         28.5734
357.28        28.55828
357.73        28.68761
358.18         28.8482
358.63         28.8594
359.08        28.67298
359.53        28.35498
359.98        27.98848
360.43         27.6902
360.88        27.49104
361.33        27.35143
361.78        27.22901
362.23        27.06208
362.68        26.83772
363.13         26.5866
363.58        26.34016
364.03        26.13902
364.48        25.99212
364.93        25.88057
365.38        25.78559
365.83        25.68174
366.28        25.55826
366.73        25.42068
367.18        25.27263
367.63        25.11851
368.08        24.96172
368.53         24.8042
368.98        24.64247
369.43        24.47147
369.88        24.29313
370.33        24.10951
370.78        23.94265
371.23        23.82844
371.68        23.77197
372.13          23.761
372.58        23.75598
373.03        23.69388
373.48        23.55738
373.93        23.35963
374.38        23.13777
374.83        22.95511
375.28        22.82825
375.72        22.73536
376.17         22.6555
376.62        22.52588
377.07        22.34181
377.52        22.13354
377.97        21.94182
378.42        21.83385
378.87        21.81994
379.32        21.85778
379.77        21.92451
380.22        21.99101
380.67        22.03487
381.11         22.0693
381.56        22.02812
382.01        21.82729
382.46        21.47925
382.91        21.04306
383.36        20.62996
383.81        20.38916
384.26        20.34392
384.71        20.44165
385.15        20.62786
385.60        20.80685
386.05        20.92872
386.50        21.01241
386.95        21.02486
387.40        20.92151
387.85        20.71448
388.29        20.41446
388.74        20.12106
389.19        19.92634
389.64        19.84582
390.09        19.84825
390.54         19.8901
390.98        19.88948
391.43        19.83493
391.88        19.75287
392.33        19.65631
392.78        19.56208
393.23         19.4791
393.67        19.38929
394.12          19.326
394.57        19.30322
395.02        19.32059
395.47        19.36782
395.91        19.42403
396.36        19.44023
396.81        19.41456
397.26        19.36168
397.71        19.29437
398.15        19.24523
398.60        19.24346
399.05        19.19765
399.50        19.12568
399.95        19.19489
400.39        19.34291
400.84        19.23005
401.29        18.89631
401.74        18.70596
402.18        18.69166
402.63        18.64711
403.08        18.58147
403.53        18.59286
403.97        18.67463
404.42        18.79581
404.87        18.90286
405.32        18.90727
405.76        18.79157
406.21        18.59868
406.66        18.38416
407.11        18.23711
407.55        18.18816
408.00        18.20255
408.45        18.26321
408.90         18.3276
409.34         18.3713
409.79        18.40667
410.24        18.42383
410.68        18.40214
411.13        18.34645
411.58        18.25795
412.03        18.15028
412.47        18.05763
412.92        17.99128
413.37        17.95398
413.81        17.94334
414.26        17.96931
414.71        18.02192
415.15        18.10088
415.60         18.1868
416.05        18.25984
416.49        18.30978
416.94         18.3361
417.39        18.33412
417.83        18.29871
418.28        18.23409
418.73        18.14254
419.17        18.05446
419.62        18.01875
420.07        18.04563
420.51        18.11802
420.96        18.20329
421.41        18.24421
421.85        18.22161
422.30        18.14736
422.74        18.04453
423.19        18.02971
423.64        18.08455
424.08        18.08216
424.53         18.0147
424.98        18.01126
425.42        18.08432
425.87        18.11727
426.31        18.10567
426.76        18.17355
427.21        18.26602
427.65        18.13113
428.10        17.85398
428.54        17.75319
428.99        17.86034
429.44        18.07806
429.88        18.30389
430.33        18.30689
430.77         18.1236
431.22          18.117
431.66        18.29743
432.11        18.36722
432.56        18.33163
433.00        18.43292
433.45          18.567
433.89        18.42034
434.34         18.1186
434.78          17.602
435.23        17.90551
435.67         17.9241
436.12         17.9185
436.57        17.91942
437.01        17.93101
437.46        17.96797
437.90        18.01228
438.35        18.00674
438.79        17.95642
439.24        17.93184
439.68        17.94093
440.13        17.96409
440.57        17.98604
441.02         18.0037
441.46        18.01123
441.91        17.96299
442.35        17.88529
442.80        17.99138
443.24        18.20703
443.69        18.21612
444.13        18.03087
444.58        17.95799
445.02        18.00605
445.47        18.00354
445.91        17.95969
446.36         17.9767
446.80        18.05334
447.24        18.16024
447.69        18.26937
448.13        18.32907
448.58        18.33058
449.02        18.28573
449.47        18.22141
449.91        18.17076
450.36        18.14943
450.80        18.14409
451.25         18.1451
451.69        18.12518
452.13        18.08212
452.58        18.02448
453.02        17.96667
453.47         17.9325
453.91        17.92732
454.36        17.94608
454.80        17.96756
455.24        17.95724
455.69        17.91448
456.13        17.83915
456.58         17.7733
457.02        17.75169
457.46        17.78779
457.91         17.8655
458.35        17.93919
458.79        17.94237
459.24        17.87846
459.68        17.76154
460.13        17.65195
460.57        17.59525
461.01         17.6162
461.46        17.68002
461.90        17.77502
462.34        17.86646
462.79        17.93306
463.23        17.99372
463.68        18.01835
464.12        17.96992
464.56          17.849
465.01        17.69296
465.45        17.53607
465.89        17.47427
466.34        17.51758
466.78        17.63521
467.22        17.78325
467.67        17.86469
468.11        17.86071
468.55        17.79177
468.99        17.69617
469.44        17.63422
469.88        17.62628
470.32        17.65159
470.77        17.69441
471.21        17.73379
471.65        17.75914
472.10         17.7823
472.54        17.80087
472.98        17.81544
473.42        17.82642
473.87        17.83574
474.31        17.83592
474.75        17.83487
475.20         17.8389
475.64        17.84178
476.08        17.84766
476.52        17.85254
476.97        17.85598
477.41        17.86644
477.85         17.8921
478.29        17.91928
478.74        17.96157
479.18        18.06223
479.62        18.18847
480.06        18.25837
480.50        18.26646
480.95        18.22679
481.39        18.15563
481.83        18.25548
482.27        18.26553
482.72        18.38499
483.16        18.52054
483.60        18.61115
484.04        18.62956
484.48        18.71298
484.93        18.90125
485.37        18.74528
485.81        18.82493
486.25        19.08234
486.69        18.61446
487.14        18.79539
487.58        19.69034
488.02        19.56643
488.46        19.25849
488.90        19.36133
489.34        19.53231
489.79        19.83427
490.23        19.95242
490.67        20.03087
491.11        20.04793
491.55        19.99098
491.99        19.92333
492.43        19.93757
492.88        20.05846
493.32        20.25385
493.76        20.47954
494.20        20.68223
494.64        20.84936
495.08        20.95737
495.52        21.02157
495.96        21.20511
496.41        21.47165
496.85         21.4827
497.29         21.3006
497.73         21.5254
498.17        21.84513
498.61        22.10985
499.05        22.17883
499.49        22.23957
499.93        22.24677
500.37        22.32718
500.82        22.45994
501.26        22.55207
501.70        22.60132
502.14          22.683
502.58        22.81106
503.02        22.95988
503.46        23.12494
503.90        23.31283
504.34        23.48721
504.78        23.58684
505.22        23.60068
505.66        23.54571
506.10        23.47036
506.54        23.45457
506.98        23.51871
507.42        23.64072
507.86        23.78587
508.30        23.89464
508.74        23.94972
509.18        23.97197
509.62        23.98088
510.06        24.00677
510.50        24.05971
510.94        24.12629
511.38         24.2017
511.82        24.28087
512.26         24.3586
512.70         24.4366
513.14        24.50741
513.58        24.55727
514.02         24.5845
514.46        24.59366
514.90        24.59302
515.34        24.59748
515.78        24.61193
516.22        24.63144
516.66        24.65692
517.10        24.68907
517.54        24.72499
517.98        24.76434
518.42        24.79516
518.86        24.79779
519.30        24.77045
519.74        24.72104
520.18        24.66655
520.62        24.63348
521.06        24.62977
521.50        24.64892
521.93        24.68318
522.37        24.71054
522.81        24.72533
523.25        24.72761
523.69        24.72009
524.13        24.70797
524.57        24.69019
525.01        24.66296
525.45        24.61493
525.89        24.52964
526.32        24.40679
526.76        24.26453
527.20        24.12368
527.64        24.01704
528.08        23.95293
528.52        23.92083
528.96        23.91124
529.40        23.90767
529.83        23.90119
530.27        23.89722
530.71         23.8833
531.15        23.84336
531.59         23.7759
532.03         23.6815
532.46        23.57791
532.90        23.51178
533.34        23.48675
533.78        23.47911
534.22        23.46323
534.66        23.42671
535.09        23.34725
535.53        23.18828
535.97        22.99179
536.41        22.88237
536.85        22.87823
537.28        22.92252
537.72        22.99809
538.16        23.09297
538.60        23.19214
539.04          23.298
539.47        23.39148
539.91        23.45929
540.35        23.49577
540.79        23.50422
541.22        23.50777
541.66        23.55404
542.10        23.64962
542.54        23.78306
542.97        23.92486
543.41        24.03739
543.85         24.1094
544.29        24.15804
544.72         24.2022
545.16        24.28707
545.60        24.41762
546.04        24.58217
546.47        24.76884
546.91        24.95341
547.35        25.12353
547.79        25.28735
548.22        25.44097
548.66        25.57288
549.10        25.71433
549.53         25.8547
549.97        26.00396
550.41        26.11994
550.84        26.23206
551.28        26.41065
551.72         26.6231
552.15        26.83748
552.59        27.07792
553.03        26.95454
553.46        27.29084
553.90        27.40195
554.34        27.52942
554.77        27.66702
555.21        27.81947
555.65        27.97031
556.08        28.10457
556.52        28.21338
556.96        28.29486
557.39        28.42323
557.83        28.57882
558.27        28.59439
558.70        28.50458
559.14        28.53741
559.57        28.68587
560.01        28.80488
560.45        28.87839
560.88         28.9725
561.32        29.09663
561.75        29.19718
562.19        29.28724
562.63        29.38215
563.06        29.47734
563.50        29.57482
563.93          29.635
564.37          29.673
564.80        29.70098
565.24        29.65066
565.68        29.50088
566.11        29.85628
566.55        29.65577
566.98        29.77757
567.42        29.92271
567.85         30.0897
568.29        30.27817
568.72        30.49988
569.16        30.76967
569.60        30.96852
570.03        31.21075
570.47         31.4136
570.90          31.577
571.34         31.7218
571.77        31.79565
572.21        31.90901
572.64        32.02861
573.08         32.1756
573.51        32.23594
573.95        32.36206
574.38        32.58101
574.82        32.61569
575.25        32.63005
575.69         32.6287
576.12        32.66758
576.56        32.68193
576.99        32.85186
577.42        32.71812
577.86        32.78057
578.29         32.9433
578.73        32.84032
579.16        32.72631
579.60         32.4481
580.03        32.47538
580.47        32.38205
580.90         32.7331
581.33        32.66014
581.77        32.78643
582.20        32.30902
582.64        32.06919
583.07        31.93583
583.51        31.81837
583.94        31.81078
584.37        31.76007
584.81        31.65356
585.24        31.53697
585.68        31.44891
586.11        31.21189
586.54        31.15215
586.98        30.96091
587.41        30.73672
587.85        30.89143
588.28        30.58336
588.71        30.71172
589.15        30.59205
589.58        30.52975
590.01           30.65
590.45        30.55778
590.88        30.85702
591.31         30.7731
591.75        30.60323
592.18        30.52545
592.61        30.48783
593.05        31.21557
593.48        31.31684
593.91        30.84919
594.35        31.05201
594.78        30.93822
595.21        31.01506
595.65        31.25366
596.08        31.68948
596.51        31.90165
596.94        31.78038
597.38        31.89338
597.81        32.23589
598.24        32.48387
598.68        32.67882
599.11        32.76524
599.54         33.6014
599.97        33.05823
600.41        33.81276
600.84        33.79329
601.27        34.21163
601.70        34.59317
602.14        35.00933
602.57        35.32808
603.00        35.61827
603.43        35.60938
603.87        36.57182
604.30        36.97445
604.73        37.22994
605.16        37.51098
605.60        37.87606
606.03        38.17315
606.46        38.35237
606.89        38.85769
607.32        39.60484
607.76        39.57291
608.19        40.25109
608.62        40.50545
609.05        40.87729
609.48        41.15054
609.92         41.8356
610.35        42.19593
610.78        41.89444
611.21         42.1466
611.64        42.36859
612.07        42.80631
612.50        43.21592
612.94        43.58852
613.37        43.88727
613.80        43.97056
614.23        43.93655
614.66        44.17791
615.09        44.67426
615.52        44.96957
615.96        45.02591
616.39        45.31783
616.82        45.56934
617.25        45.75623
617.68        45.83992
618.11        46.20979
618.54        46.79289
618.97        47.06963
619.40        47.02649
619.84        47.26388
620.27        47.35804
620.70         47.4735
621.13        47.46229
621.56         47.3432
621.99         47.1619
622.42        47.07925
622.85        47.12119
623.28         47.1483
623.71        47.16533
624.14        47.28076
624.57        47.53908
625.00        47.55362
625.43        47.52118
625.86        47.41644
626.29        47.36545
626.72        47.01462
627.15        47.11481
627.58        47.05397
628.01        47.00747
628.44        46.89611
628.87        46.70861
629.30        46.45997
629.73        46.18084
630.16        45.93575
630.59        45.73461
631.02        45.55346
631.45        45.35892
631.88        45.09976
632.31        44.76268
632.74        44.36657
633.17        43.93501
633.60        43.50621
634.03        43.09667
634.46        42.69475
634.89        42.29902
635.32          41.916
635.75        41.54657
636.18        41.14855
636.61        40.73655
637.04        40.35464
637.47        40.00417
637.89        39.66728
638.32        39.31886
638.75        38.96163
639.18        38.59982
639.61        38.24043
640.04        37.90591
640.47        37.62563
640.90        37.40379
641.33        37.23418
641.76         37.0932
642.18        36.94672
642.61        36.77682
643.04        36.59938
643.47         36.4442
643.90        36.35867
644.33        36.35257
644.76        36.41232
645.18        36.50557
645.61        36.57033
646.04        36.59789
646.47        36.61076
646.90        36.64956
647.33        36.76913
647.75        36.97111
648.18        37.27942
648.61        37.67611
649.04        37.98597
649.47        38.15923
649.89        38.81778
650.32         38.9518
650.75        39.34386
651.18         39.7093
651.61        40.20696
652.03        40.80362
652.46        41.25854
652.89        41.61901
653.32        42.06857
653.74        42.60315
654.17         43.0764
654.60        43.77587
655.03        43.80272
655.46        43.59312
655.88        44.26889
656.31        45.63179
656.74        45.79076
657.16        47.06409
657.59        48.87302
658.02        47.72089
658.45        48.07912
658.87        47.63664
659.30        48.14301
659.73        48.08807
660.15        49.20883
660.58        48.86975
661.01        49.19844
661.44        49.55201
661.86        49.63517
662.29        49.49282
662.72        49.95604
663.14        50.10933
663.57        50.45929
664.00        50.72298
664.42        51.05835
664.85         51.4627
665.27        51.87146
665.70        52.19886
666.13        52.37699
666.55        52.40268
666.98        52.25472
667.41        52.01112
667.83        52.13543
668.26        52.11898
668.69        52.35674
669.11        52.66044
669.54        52.95623
669.96        53.21264
670.39          53.528
670.82        53.84942
671.24        53.89357
671.67        53.74584
672.09        53.78868
672.52        54.04455
672.94        54.28686
673.37        54.45707
673.80        54.48182
674.22        54.41637
674.65        54.46618
675.07        54.66145
675.50        54.84346
675.92        54.97173
676.35         55.0532
676.77        55.08019
677.20        55.04528
677.62        55.00714
678.05         55.0584
678.47        55.21302
678.90        55.46548
679.32        55.74581
679.75        55.90953
680.17         55.9165
680.60        55.96769
681.02         55.8524
681.45        55.91809
681.87        56.11203
682.30        56.43725
682.72          56.799
683.15        56.91936
683.57        56.82122
684.00        56.75697
684.42        56.80055
684.85        56.90836
685.27        57.04997
685.70        57.33522
686.12        57.65715
686.54        57.83044
686.97        57.81889
687.39        57.69109
687.82        57.51376
688.24        57.40963
688.66        57.42097
689.09        57.51098
689.51        57.66081
689.94        57.83754
690.36        58.02858
690.78        58.15662
691.21        58.24665
691.63        58.49176
692.06        58.81897
692.48        58.86399
692.90         58.6405
693.33        58.51003
693.75        58.49406
694.17        58.34967
694.60        58.18592
695.02        58.25394
695.44        58.54489
695.87        59.09327
696.29         59.6883
696.71        59.56414
697.14        58.88084
697.56        58.72076
697.98        59.12766
698.41        59.31647
698.83        59.28155
699.25        59.55614
699.68        60.01814
700.10        60.24227
700.52        60.15305
700.94        59.88546
701.37        59.58582
701.79        59.49462
702.21        59.66457
702.64        60.00111
703.06         60.3802
703.48        60.59052
703.90        60.57354
704.33        60.39998
704.75         60.1681
705.17        60.02409
705.59        60.02331
706.01        60.12353
706.44        60.28367
706.86        60.46875
707.28        60.64642
707.70        60.78667
708.12         60.9175
708.55        61.16037
708.97        61.46806
709.39        61.59601
709.81         61.5346
710.23        61.48797
710.66         61.4646
711.08        61.38447
711.50        61.25043
711.92        61.07631
712.34         60.9148
712.76        60.91817
713.19        61.05096
713.61        61.14022
714.03        61.15627
714.45        61.20269
714.87        61.31546
715.29        61.50893
715.71        61.77958
716.13        62.09887
716.56        62.38518
716.98        62.58808
717.40        62.64791
717.82        62.59322
718.24        62.44508
718.66        62.23449
719.08        62.01141
719.50        61.78551
719.92        61.61553
720.34        61.58054
720.76        61.69087
721.19        61.90144
721.61        62.19718
722.03        62.49971
722.45        62.76319
722.87        62.99025
723.29        63.12661
723.71        63.09075
724.13         62.8807
724.55        62.55076
724.97        62.21193
725.39        61.99544
725.81        61.93981
726.23        62.21515
726.65        62.34622
727.07        62.68857
727.49        62.85237
727.91        63.05282
728.33        63.21511
728.75        63.34486
729.17        63.44619
729.59        63.48672
730.01        63.47513
730.43        63.47639
730.85        63.50739
731.27        63.38901
731.69        63.41927
732.10        63.34608
732.52        63.25793
732.94        63.16902
733.36          63.112
733.78        63.00761
734.20        62.85332
734.62        62.90536
735.04         63.2295
735.46        62.77445
735.88        63.40103
736.30        63.51161
736.72         63.6777
737.13        64.02803
737.55         64.4254
737.97        64.64808
738.39        64.60618
738.81        64.17953
739.23        63.56343
739.65          63.487
740.06        63.90019
740.48        64.10972
740.90        64.06977
741.32        64.24491
741.74        64.61095
742.16        64.85381
742.57        64.93516
742.99        64.92674
743.41        64.85309
743.83        64.73676
744.25        64.60191
744.67         64.4324
745.08        64.29626
745.50        64.28421
745.92        64.41641
746.34        64.66125
746.75        64.92789
747.17        65.05109
747.59        65.00339
748.01        64.83789
748.42        64.62969
748.84        64.52677
749.26        64.56927
749.68        64.63259
750.09        64.70246
750.51        64.92342
750.93        65.19257
751.35         65.1705
751.76        64.87473
752.18         64.6524
752.60        64.52368
753.01         64.3032
753.43        64.03355
753.85        63.89896
754.27        63.92855
754.68        64.13598
755.10         64.4449
755.52        64.58407
755.93        64.54944
756.35        64.66628
756.77         64.9801
757.18        64.98029
757.60        65.08521
758.02         65.3164
758.43        65.65268
758.85        65.24772
759.26        64.88803
759.68         64.4448
760.10        64.25697
760.51        64.89991
760.93        65.56097
761.34        65.73817
761.76        65.64581
762.18        65.45817
762.59        65.45019
763.01        65.44458
763.42        65.53316
763.84        65.78434
764.26        66.07755
764.67        66.02213
765.09        65.70026
765.50        65.41608
765.92        65.27872
766.33        65.21377
766.75        65.16473
767.16        65.17785
767.58         65.1993
768.00        65.20759
768.41        65.28033
768.83        65.55246
769.24        65.90029
769.66        66.15764
770.07        66.21955
770.49        65.69032
770.90        64.89395
771.32        65.16463
771.73        66.29839
772.15        66.72278
772.56        66.36926
772.97        65.89829
773.39        65.49704
773.80        65.96962
774.22        66.28157
774.63        66.44586
775.05        66.14233
775.46        66.10797
775.88        66.32689
776.29         66.3887
776.70         66.2987
777.12        66.28947
777.53        66.38439
777.95        66.46915
778.36        66.54778
778.77        66.59285
779.19        66.61343
779.60        66.64989
780.02        66.65197
780.43        66.61583
780.84        66.56805
781.26        66.22936
781.67        65.80211
782.09        66.23992
782.50        67.28036
782.91        67.37332
783.33        66.57227
783.74        66.31747
784.15        66.65891
784.57        66.74125
784.98        66.59216
785.39        66.64242
785.81        66.90775
786.22        67.28404
786.63        67.65601
787.04        67.83971
787.46        67.80097
787.87        67.56907
788.28        67.32172
788.70        67.24802
789.11        67.36102
789.52         67.8073
789.93        68.35491
790.35        68.19373
790.76        67.43287
791.17        67.12931
791.58        67.38956
792.00        67.34185
792.41        66.97496
792.82        67.45105
793.23        67.92859
793.65        67.59828
794.06        66.54649
794.47        66.53794
794.88        67.46668
795.29        67.82141
795.71         67.5058
796.12        67.61409
796.53        68.09945
796.94        67.93979
797.35        67.29908
797.76        67.47082
798.18        68.33488
798.59        68.67205
799.00        68.38254
799.41        68.15396
799.82        68.08998
800.23        68.04447
800.64         68.0449
801.06        68.10102
801.47         68.1991
801.88         68.2233
802.29        68.14607
802.70        67.99088
803.11        67.80875
803.52        67.68812
803.93        67.66836
804.34        67.73174
804.75        67.84904
805.17        68.00879
805.58         68.2332
805.99        68.34455
806.40        68.38583
806.81        68.80072
807.22        69.40904
807.63        69.33969
808.04        68.68202
808.45        68.33228
808.86        68.36707
809.27        68.30902
809.68        68.12193
810.09        67.98772
810.50        67.91599
810.91        67.86091
811.32        67.88564
811.73        68.08611
812.14        68.46124
812.55        68.97678
812.96        69.48065
813.37        69.68661
813.78        69.51894
814.19        69.07934
814.60        68.53646
815.01        68.12252
815.42        67.89806
815.83        67.80168
816.24        67.80724
816.65        67.85931
817.05        67.93617
817.46        68.04191
817.87        68.16426
818.28        68.22689
818.69        68.21748
819.10        68.12859
819.51        68.04298
819.92        68.12252
820.33        68.39079
820.74        68.78759
821.14        69.17293
821.55        69.31577
821.96        69.17218
822.37        68.82645
822.78        68.40456
823.19        68.12162
823.60        68.05389
824.00        68.15786
824.41        68.35266
824.82         68.6023
825.23        68.85267
825.64        69.11198
826.04        69.31523
826.45        69.31442
826.86        69.10719
827.27        68.74573
827.68        68.31838
828.08        68.01276
828.49        67.84623
828.90        67.79032
829.31        67.87245
829.72        68.12878
830.12        68.55459
830.53        69.07628
830.94        69.52863
831.35        69.58053
831.75        69.18346
832.16        68.42487
832.57        67.56287
832.97        66.99503
833.38        66.84048
833.79        66.97249
834.20        67.30664
834.60        67.69691
835.01        68.07314
835.42        68.51812
835.82        68.93874
836.23        69.08836
836.64        68.95588
837.04        68.55946
837.45        68.16187
837.86        68.27164
838.26         69.0038
838.67        70.17024
839.08        71.36394
839.48        71.80171
839.89        71.28076
840.29        70.09904
840.70        68.81622
841.11        68.05684
841.51        67.99624
841.92        68.41128
842.33        69.13989
842.73         69.8988
843.14        70.43173
843.54        70.85789
843.95           71.13
844.35        71.22919
844.76        71.14661
845.17        70.87564
845.57        70.45887
845.98        69.96298
846.38        69.46715
846.79        68.98279
847.19        68.61009
847.60        68.46439
848.00        68.57202
848.41        68.87854
848.81        69.28742
849.22        69.54541
849.62        69.61643
850.03        69.53162
850.43        69.38464
850.84        69.27695
851.24           69.29
851.65        69.32436
852.05        69.43913
852.46        69.62509
852.86        69.86072
853.27        70.14486
853.67         70.3354
854.07        70.34146
854.48        70.13037
854.88        69.76764
855.29        69.29502
855.69        68.93172
856.10        68.69283
856.50        68.60462
856.90        68.62417
857.31        68.69502
857.71        68.83014
858.12        68.96145
858.52        69.09506
858.92        69.12599
859.33        69.01266
859.73        68.83633
860.13        68.54366
860.54         68.0799
860.94        67.51997
861.34        66.88493
861.75         66.3744
862.15        66.34872
862.55        66.84079
862.96        67.69852
863.36        68.68144
863.76        69.28252
864.17        69.33066
864.57        68.99697
864.97        68.38866
865.38        67.69888
865.78        67.06023
866.18        66.41998
866.58        65.92484
866.99        65.83413
867.39        66.20459
867.79        66.95206
868.19        67.83804
868.60        68.45737
869.00        68.73102
869.40        68.72641
869.80        68.53459
870.21        68.36229
870.61        68.35376
871.01        68.38716
871.41        68.40971
871.81        68.35336
872.22        68.19347
872.62        67.96986
873.02        67.73625
873.42        67.55466
873.82        67.44981
874.22        67.40776
874.63        67.36865
875.03        67.26325
875.43        67.06167
875.83        66.78078
876.23        66.51262
876.63        66.39704
877.03        66.46245
877.44        66.65218
877.84        66.84937
878.24        66.87044
878.64        66.63716
879.04        66.07835
879.44        65.46792
879.84        65.32674
880.24        65.71003
880.64        66.42755
881.04        67.11839
881.44        67.21359
881.84        66.59536
882.24        65.46849
882.65        64.27222
883.05         63.6818
883.45        63.87153
883.85        64.64788
884.25        65.67203
884.65        66.36285
885.05        66.53172
885.45        66.34455
885.85        66.03513
886.25        65.96115
886.65        66.21043
887.05         66.6468
887.45        67.08542
887.85        67.24252
888.25        67.04404
888.65        66.60208
889.04        66.08679
889.44        65.77587
889.84        65.72387
890.24        65.84274
890.64        66.00668
891.04        66.01354
891.44        65.81736
891.84        65.51428
892.24        65.19095
892.64        64.95957
893.04         64.8689
893.44        64.89346
893.83        65.05412
894.23        65.33608
894.63        65.73115
895.03        66.20252
895.43        66.71204
895.83        67.20016
896.23        67.61646
896.63        67.94463
897.02        68.08939
897.42        67.94522
897.82        67.52055
898.22         66.8934
898.62        66.22929
899.01        65.76082
899.41        65.57003
899.81        65.59443
900.21        65.76123
900.61        65.93903
901.00        66.06841
901.40         66.1663
901.80        66.23313
902.20        66.26565
902.59         66.2787
902.99        66.26896
903.39        66.21497
903.79        66.08953
904.18        65.89358
904.58        65.64077
904.98        65.46729
905.38        65.58494
905.77        66.01463
906.17        66.70856
906.57          67.391
906.96        67.60266
907.36        67.23374
907.76        66.43719
908.15        65.60164
908.55        65.32722
908.95        65.75503
909.34        66.69964
909.74        67.75252
910.14        68.32273
910.53        68.20927
910.93        67.62984
911.33        66.79904
911.72        66.03055
912.12        65.51615
912.52        65.17393
912.91        64.98753
913.31         64.9589
913.70        65.07044
914.10          65.299
914.49        65.70442
914.89        66.27718
915.29        66.99077
915.68        67.81684
916.08        68.47786
916.47        68.60577
916.87        68.16641
917.26        67.27168
917.66        66.35319
918.05         65.9207
918.45        66.09439
918.84        66.77547
919.24        67.63373
919.64        68.20749
920.03        68.34397
920.42        68.12717
920.82        67.82492
921.21        67.80181
921.61         68.1254
922.00        68.71751
922.40        69.26743
922.79         69.3949
923.19        68.98895
923.58        68.23599
923.98        67.47549
924.37        67.12606
924.77        67.28992
925.16        67.78265
925.55         68.4015
925.95        68.77496
926.34        68.78809
926.74        68.54253
927.13        68.08417
927.52        67.41833
927.92        66.66578
928.31        65.84188
928.70        65.14599
929.10        64.85582
929.49        65.00175
929.89        65.44688
930.28        66.14713
930.67        66.88644
931.07        67.51651
931.46        68.14812
931.85        68.51352
932.24        68.25218
932.64        67.40323
933.03        66.06584
933.42        64.81429
933.82        64.48984
934.21        65.24392
934.60        66.88201
934.99        68.81187
935.39        69.93448
935.78        69.94994
936.17        69.07153
936.56        67.82715
936.96         67.0631
937.35        67.01418
937.74        67.42455
938.13        67.90234
938.53        67.86343
938.92        67.19028
939.31        66.14901
939.70        65.10381
940.09        64.53812
940.49        64.52917
940.88        64.93336
941.27        65.53944
941.66        65.96513
942.05        66.08243
942.44        66.04626
942.84        65.94601
943.23        65.90541
943.62         65.9805
944.01        66.05976
944.40         66.2429
944.79        66.72723
945.18        67.48895
945.57        68.45687
945.97        69.22451
946.36        69.20299
946.75        68.26051
947.14        66.68529
947.53        64.97598
947.92        63.83558
948.31        63.44993
948.70        63.63396
949.09        64.21551
949.48        64.87748
949.87        65.46284
950.26        66.03874
950.65        66.56172
951.04        66.95989
951.43        67.20605
951.82        67.26392
952.21        67.14944
952.60        66.93351
952.99        66.68272
953.38        66.44587
953.77        66.28559
954.16        66.28658
954.55        66.45179
954.94        66.70776
955.33        67.07464
955.72        67.56917
956.11        68.13726
956.50        68.77908
956.89        69.15784
957.28        68.73569
957.66         67.4723
958.05        65.63095
958.44        63.84641
958.83        63.02134
959.22        63.31244
959.61        64.47021
960.00        65.96427
960.39        66.78145
960.78        66.58555
961.16        65.68171
961.55        64.54962
961.94         63.8058
962.33        63.63879
962.72        63.88646
963.11        64.36771
963.49         64.7903
963.88        64.94717
964.27        64.91994
964.66        64.94956
965.04        65.41726
965.43         66.3229
965.82        67.59243
966.21        68.67395
966.60         68.5588
966.98        67.04093
967.37        64.60718
967.76        62.18243
968.15        60.90356
968.53        60.96617
968.92        62.09168
969.31        63.67811
969.69        64.50631
970.08        64.09695
970.47        62.86681
970.86        61.55677
971.24        61.20948
971.63        62.04612
972.02        63.74948
972.40        65.74509
972.79        66.65459
973.17        66.10856
973.56        64.59618
973.95        62.86747
974.33        61.87337
974.72        61.83541
975.11         62.4461
975.49        63.39904
975.88        64.05109
976.26         64.1934
976.65        63.97621
977.04        63.59832
977.42        63.31267
977.81        63.17434
978.19        63.08566
978.58        63.05679
978.96        63.08827
979.35        63.14216
979.74        63.24396
980.12        63.46344
980.51        63.67421
980.89        63.95545
981.28        64.29504
981.66        64.63203
982.05        64.86281
982.43         64.9989
982.82        65.01927
983.20        65.21236
983.59        65.99766
983.97        67.50587
984.35         69.5453
984.74        71.44105
985.12        72.31176
985.51        71.86317
985.89        70.40734
986.28        68.64377
986.66        67.54266
987.04        67.42983
987.43        68.01942
987.81        68.95387
988.20        69.41111
988.58         69.1319
988.96        68.29814
989.35        67.27951
989.73        66.56349
990.12        66.25337
990.50        66.25753
990.88        66.18363
991.27        65.42179
991.65        63.92979
992.03        61.98993
992.42         60.3471
992.80        59.96983
993.18        61.02831
993.56        63.27053
993.95        65.83493
994.33        67.22494
994.71        66.80803
995.10        65.10612
995.48         63.0078
995.86        61.91815
996.24        62.17682
996.63        63.27042
997.01        64.82449
997.39        65.72829
997.77        65.54399
998.15        64.78119
998.54         63.7034
998.92        62.52406
999.30        61.47544
999.68        60.44118
1000.06        59.86275
1000.45        60.38176
1000.83        62.14937
1001.21        65.10234
1001.59        68.49352
1001.97        70.43005
1002.35        70.19984
1002.73        68.37368
1003.12        66.10564
1003.50        64.81297
1003.88        64.93585
1004.26        65.95842
1004.64        67.63437
1005.02        69.35697
1005.40        70.69425
1005.78        71.94421
1006.16        72.54357
1006.54        71.58848
1006.92        69.18703
1007.30        65.70943
1007.69        62.50431
1008.07        61.35494
1008.45        62.77488
1008.83        66.38926
1009.21        71.13735
1009.59         74.2644
1009.97          74.367
1010.35        72.16679
1010.73        68.68026
1011.11        65.42928
1011.49        63.02401
1011.86        61.13025
1012.24        59.78183
1012.62        58.98136
1013.00        58.64139
1013.38        58.81969
1013.76         59.5148
1014.14        60.49067
1014.52        61.53867
1014.90        62.60435
1015.28        63.37055
1015.66        63.55404
1016.04         63.1509
1016.41        62.13182
1016.79        61.00807
1017.17        60.80039
1017.55          61.705
1017.93        63.43539
1018.31        65.12106
1018.69        65.47278
1019.06        64.25893
1019.44        61.74598
1019.82        58.75891
1020.20        57.34093
1020.58        58.20126
1020.95        60.36971
1021.33        62.87333
1021.71        64.52742
1022.09        65.16221
1022.46        65.43595
1022.84        64.93851
1023.22        63.00048
1023.60        59.89778
1023.97        55.85662
1024.35        52.93876
1024.73        53.46098
