SpectraSmart Spectrum 2.9.0.0
--------- Device Information -----------
Spectrum Name :  反射率_0
Saving Time :  2024/04/26 23:01:51
Spectro-Module Model Name : SE2030-DUVN
Spectro-Module Serial Number : OS361AC55029948
Wavelength Start : 200
Wavelength End : 1025
Wavelength Unit : Wavelength(nm)
Spectrum Unit : Reflectance(%)
-----------Spectrum Setting ------------
Integration Time : 20ms
Average : 10
Boxcar : 0
Background removal :  enabled
linearity correction :  enabled
SC :  disabled
Intensity correction :  disabled
DWT denoise :  enabled
savitzky-golay :  disabled
FFT :  disabled
Running average :  disabled
Kalman :  disabled
High pass :  disabled
---------------BEGIN--------------------
Wavelength(nm)             Reflectance(%)
200.29               0
200.75        36.19502
201.21        37.88261
201.67        39.01299
202.13        38.95386
202.58        37.70921
203.04        35.54547
203.50        33.12361
203.96        32.69389
204.42         35.6675
204.88         41.4538
205.34        48.40235
205.80        53.30663
206.26        54.71139
206.72        53.32228
207.18        50.25649
207.64        46.11493
208.10        40.70234
208.55        33.28909
209.01        23.25207
209.47         15.9492
209.93        16.13503
210.39        20.97338
210.85        26.82714
211.31        32.88817
211.77        41.23741
212.23        57.41121
212.69        96.43225
213.14        165.3326
213.60        169.4071
214.06        125.2663
214.52        92.83015
214.98        76.44948
215.44         67.2336
215.90        59.61519
216.36        53.67764
216.81        50.53144
217.27        50.75473
217.73        55.72321
218.19        64.03191
218.65        66.28543
219.11        59.94545
219.57         51.2489
220.02        46.23328
220.48        48.48301
220.94        57.88126
221.40        75.50514
221.86        101.4674
222.32        120.6449
222.77        117.9389
223.23        102.8576
223.69        86.19544
224.15        74.26401
224.61        66.86982
225.06        61.64149
225.52        58.76346
225.98        58.26984
226.44        59.71958
226.90        62.92847
227.36        66.81091
227.81        69.25037
228.27        69.78629
228.73        68.83435
229.19          67.558
229.65        67.41832
230.10        68.51447
230.56        70.44006
231.02        72.11461
231.48        71.91853
231.93        69.71062
232.39          66.608
232.85        63.81993
233.31        62.93291
233.77        64.01556
234.22        66.40852
234.68         69.1654
235.14        70.89837
235.60        71.13255
236.05        70.30762
236.51        68.52049
236.97        66.25027
237.43        63.90337
237.88        61.45341
238.34        59.31337
238.80        58.33817
239.26        58.79857
239.71        61.22598
240.17        65.09215
240.63        68.80901
241.08        71.36275
241.54        72.26221
242.00        72.81295
242.46        76.30276
242.91        85.36956
243.37        101.0617
243.83        124.6977
244.28        148.2729
244.74        156.3113
245.20        146.1569
245.66        127.6946
246.11        111.1168
246.57        98.15208
247.03        86.22165
247.48        74.94875
247.94        66.04012
248.40        61.13264
248.85        59.48278
249.31        59.61761
249.77        59.74054
250.22        59.34452
250.68         58.4027
251.14         57.4108
251.59        57.94639
252.05        60.62762
252.51        64.58773
252.96        67.00318
253.42        65.95786
253.88        62.14076
254.33        56.67828
254.79        52.91354
255.25        53.36865
255.70        57.60598
256.16        64.50282
256.62         70.6114
257.07        70.84364
257.53        66.56779
257.99        60.91075
258.44        56.49337
258.90        55.71082
259.35        57.42648
259.81        60.59554
260.27        63.54163
260.72        64.23827
261.18        62.91624
261.63        60.36285
262.09         57.9826
262.55         56.7075
263.00        56.43309
263.46        56.81719
263.91        57.10188
264.37        56.66711
264.83        55.45498
265.28        53.80115
265.74        52.33091
266.19        51.48654
266.65        51.38404
267.11        51.69403
267.56        52.13354
268.02         52.2745
268.47        51.97032
268.93        51.40372
269.38        50.58853
269.84          49.609
270.30        48.51968
270.75        47.28931
271.21        46.13736
271.66        45.33822
272.12         44.9327
272.57        44.81818
273.03        44.74266
273.48        44.26894
273.94        43.37032
274.39        42.17122
274.85        40.96928
275.31        40.02373
275.76        39.37038
276.22        38.94792
276.67        38.62519
277.13        38.32806
277.58         37.9604
278.04        37.58301
278.49        37.14226
278.95        36.68256
279.40        36.15992
279.86        35.64492
280.31        35.07162
280.77        34.47647
281.22        33.83038
281.68          33.199
282.13        32.62257
282.59         32.2519
283.04        32.05223
283.50         31.9993
283.95        31.95188
284.41        31.70867
284.86        31.23394
285.32        30.63203
285.77        30.02794
286.22        29.66072
286.68        29.56532
287.13        29.62517
287.59        29.73917
288.04        29.70245
288.50        29.49556
288.95        29.16478
289.41         28.7976
289.86        28.44948
290.32        28.18087
290.77        27.94562
291.22        27.77126
291.68        27.68772
292.13        27.68115
292.59        27.76546
293.04        27.89646
293.50         28.0218
293.95        28.11968
294.40        28.20621
294.86        28.32069
295.31        28.51865
295.77        28.81769
296.22          29.189
296.68        29.59727
297.13        29.97134
297.58        30.30245
298.04         30.6154
298.49        30.94174
298.95         31.3482
299.40        31.83582
299.85        32.37581
300.31         32.9294
300.76        33.42992
301.21        33.85863
301.67        34.24345
302.12        34.57524
302.58        34.89972
303.03        35.20305
303.48         35.4962
303.94        35.78613
304.39        36.04929
304.84        36.29665
305.30        36.54296
305.75        36.77858
306.20        37.04294
306.66        37.34278
307.11        37.64518
307.57        37.92184
308.02        38.08129
308.47        38.12215
308.93        38.07846
309.38        37.99417
309.83        37.98725
310.29        38.08273
310.74        38.24651
311.19        38.40942
311.65        38.45115
312.10          38.342
312.55        38.12201
313.00        37.88525
313.46        37.77036
313.91        37.79053
314.36        37.90904
314.82        38.02687
315.27        37.99701
315.72        37.77995
316.18        37.43319
316.63        37.04205
317.08        36.75448
317.53        36.60432
317.99        36.54129
318.44        36.49647
318.89        36.34587
319.35          36.061
319.80        35.68906
320.25        35.29637
320.70        34.98434
321.16        34.77952
321.61        34.66007
322.06        34.57758
322.51        34.45881
322.97         34.2739
323.42        34.04418
323.87        33.80905
324.32         33.6371
324.78        33.52982
325.23        33.48543
325.68        33.41521
326.13        33.18621
326.59        32.77889
327.04        32.25354
327.49        31.73693
327.94        31.42728
328.39        31.36284
328.85        31.47279
329.30        31.66022
329.75        31.68418
330.20        31.47296
330.66        31.09074
331.11        30.65619
331.56        30.33675
332.01         30.1826
332.46        30.13198
332.92        30.11505
333.37        30.06511
333.82        29.93517
334.27        29.76763
334.72        29.57478
335.17        29.36582
335.63        29.15509
336.08        28.95646
336.53        28.80003
336.98         28.7514
337.43        28.81741
337.88        28.96445
338.34        29.14976
338.79        29.32802
339.24        29.45353
339.69        29.53465
340.14        29.52104
340.59        29.34189
341.05        29.01409
341.50        28.56999
341.95         28.1294
342.40        27.87328
342.85        27.84233
343.30         27.9865
343.75        28.21413
344.20        28.36776
344.66         28.3974
345.11        28.34084
345.56        28.23341
346.01        28.13659
346.46        28.07263
346.91        28.01656
347.36        27.95965
347.81        27.89584
348.26         27.8245
348.72        27.75975
349.17        27.70249
349.62        27.66159
350.07        27.63744
350.52         27.6241
350.97        27.61174
351.42        27.58685
351.87        27.54428
352.32        27.48689
352.77        27.41815
353.22         27.3412
353.67        27.25855
354.13        27.17267
354.58        27.08403
355.03        26.99753
355.48        26.91634
355.93        26.83825
356.38        26.77251
356.83        26.73273
357.28         26.7124
357.73        26.69784
358.18        26.66051
358.63         26.5564
359.08        26.37989
359.53        26.15425
359.98        25.90014
360.43        25.64522
360.88        25.40297
361.33        25.16791
361.78        24.96316
362.23        24.82487
362.68        24.75612
363.13        24.74707
363.58        24.74872
364.03        24.68254
364.48        24.52831
364.93        24.30054
365.38        24.04884
365.83        23.85976
366.28        23.75499
366.73        23.71025
367.18        23.66966
367.63        23.54553
368.08        23.32059
368.53        23.02596
368.98        22.72411
369.43         22.5106
369.88        22.40927
370.33        22.39349
370.78        22.40477
371.23        22.34649
371.68        22.19489
372.13        21.98141
372.58        21.76684
373.03        21.64643
373.48        21.63979
373.93        21.70912
374.38        21.79535
374.83        21.80841
375.28        21.72148
375.72        21.55646
376.17        21.36569
376.62        21.19921
377.07        21.07712
377.52        20.99032
377.97        20.91756
378.42        20.82913
378.87         20.7187
379.32        20.59079
379.77        20.48667
380.22        20.46376
380.67        20.52349
381.11        20.65389
381.56        20.75577
382.01        20.68517
382.46        20.42319
382.91        20.03195
383.36        19.64221
383.81        19.43373
384.26         19.4353
384.71        19.58925
385.15        19.79649
385.60        19.89172
386.05        19.82574
386.50         19.6527
386.95        19.43772
387.40        19.28229
387.85        19.21265
388.29        19.17481
388.74        19.16122
389.19        19.12079
389.64        19.03979
390.09        18.93559
390.54         18.8121
390.98        18.66853
391.43        18.52712
391.88        18.39059
392.33        18.27157
392.78        18.18778
393.23        18.13997
393.67        18.11071
394.12        18.11166
394.57        18.12383
395.02        18.13778
395.47        18.14761
395.91        18.14367
396.36        18.10042
396.81        18.02807
397.26        17.94294
397.71        17.85304
398.15        17.78107
398.60        17.75508
399.05        17.69256
399.50        17.62771
399.95        17.74128
400.39        17.97523
400.84        17.99974
401.29        17.80913
401.74        17.67829
402.18        17.62102
402.63        17.46418
403.08         17.2521
403.53         17.1331
403.97        17.12374
404.42         17.1861
404.87        17.26861
405.32        17.28352
405.76        17.20778
406.21        17.07985
406.66        16.94432
407.11        16.87211
407.55        16.88495
408.00        16.94904
408.45        17.03381
408.90        17.07816
409.34        17.06006
409.79        17.00341
410.24         16.9295
410.68        16.86119
411.13        16.81206
411.58         16.7724
412.03        16.73905
412.47        16.71212
412.92        16.68631
413.37        16.66905
413.81        16.66028
414.26        16.67291
414.71        16.70091
415.15        16.74375
415.60         16.7835
416.05        16.80443
416.49        16.80312
416.94        16.78301
417.39        16.75438
417.83        16.73278
418.28        16.72145
418.73        16.71125
419.17        16.70666
419.62        16.71485
420.07        16.73405
420.51         16.7601
420.96        16.77281
421.41        16.73652
421.85        16.64447
422.30        16.50711
422.74        16.35633
423.19         16.3126
423.64        16.36067
424.08        16.38368
424.53        16.36187
424.98        16.38902
425.42        16.46788
425.87        16.49475
426.31        16.47299
426.76        16.53001
427.21        16.61874
427.65        16.50351
428.10        16.25125
428.54        16.13909
428.99        16.19253
429.44        16.32597
429.88        16.46194
430.33        16.41494
430.77        16.22721
431.22        16.22447
431.66        16.39379
432.11        16.44695
432.56        16.38855
433.00        16.39166
433.45        16.41331
433.89        16.39397
434.34         16.3925
434.78        16.03158
435.23        16.25276
435.67        16.27609
436.12        16.33668
436.57        16.32514
437.01        16.24701
437.46        16.19232
437.90        16.15802
438.35        16.07686
438.79        15.96968
439.24         15.9205
439.68        15.93805
440.13        16.00274
440.57          16.083
441.02        16.14013
441.46         16.1577
441.91        16.10327
442.35         16.0121
442.80        16.09214
443.24        16.28108
443.69        16.29036
444.13        16.12674
444.58        16.05921
445.02        16.09441
445.47        16.08363
445.91        16.03834
446.36        16.05314
446.80        16.12804
447.24        16.23455
447.69          16.347
448.13        16.41889
448.58        16.44014
449.02         16.4193
449.47        16.37691
449.91        16.33711
450.36        16.31392
450.80        16.30031
451.25        16.28869
451.69        16.25655
452.13        16.20452
452.58        16.13954
453.02        16.08533
453.47        16.07993
453.91        16.12824
454.36        16.21864
454.80        16.30916
455.24        16.33251
455.69         16.2801
456.13        16.16196
456.58        16.03919
457.02        15.97816
457.46        15.99988
457.91         16.0808
458.35        16.16369
458.79        16.16249
459.24         16.0761
459.68        15.92831
460.13        15.79107
460.57         15.7287
461.01        15.76831
461.46        15.87077
461.90        16.00915
462.34        16.12537
462.79        16.19077
463.23        16.22622
463.68        16.22131
464.12        16.17082
464.56        16.08053
465.01        15.97571
465.45        15.86238
465.89        15.79342
466.34        15.77545
466.78        15.79234
467.22        15.83742
467.67        15.88055
468.11        15.91901
468.55         15.9534
468.99         15.9788
469.44        15.98569
469.88        15.97589
470.32        15.94998
470.77        15.92381
471.21        15.92819
471.65        15.96663
472.10        16.03067
472.54        16.10038
472.98        16.14968
473.42        16.17054
473.87         16.1771
474.31        16.16481
474.75        16.14238
475.20        16.12001
475.64        16.09141
476.08        16.07312
476.52        16.08221
476.97        16.12123
477.41        16.19248
477.85        16.28566
478.29        16.35769
478.74        16.41236
479.18        16.49651
479.62        16.59562
480.06        16.65998
480.50         16.6888
480.95        16.68815
481.39        16.66078
481.83         16.7644
482.27        16.75537
482.72        16.86644
483.16        16.95567
483.60        17.02472
484.04        17.03316
484.48        17.10592
484.93        17.29291
485.37        17.16908
485.81        17.26656
486.25        17.56479
486.69        17.26364
487.14        17.30522
487.58        18.08674
488.02        17.92957
488.46         17.8049
488.90        18.05105
489.34        17.88212
489.79        18.08465
490.23        18.26197
490.67         18.4742
491.11        18.64783
491.55        18.65238
491.99        18.54998
492.43        18.57059
492.88        18.73804
493.32        18.90458
493.76        19.04655
494.20        19.20071
494.64        19.36184
495.08        19.50852
495.52        19.62641
495.96        19.75378
496.41        19.88045
496.85        19.87047
497.29        19.76971
497.73        19.97692
498.17        20.20008
498.61         20.3906
499.05        20.44113
499.49        20.51702
499.93         20.5787
500.37        20.74082
500.82         20.9591
501.26        21.10556
501.70         21.1658
502.14        21.21989
502.58        21.29427
503.02        21.38908
503.46        21.50963
503.90        21.65587
504.34        21.79514
504.78        21.87273
505.22         21.8782
505.66        21.82936
506.10        21.76771
506.54        21.75916
506.98        21.82083
507.42        21.93448
507.86        22.06829
508.30         22.1692
508.74        22.22135
509.18        22.24032
509.62        22.24932
510.06        22.28513
510.50        22.35744
510.94         22.4532
511.38        22.55165
511.82        22.62163
512.26         22.6552
512.70        22.66203
513.14        22.66316
513.58         22.6914
514.02        22.75378
514.46        22.83911
514.90          22.923
515.34        22.96724
515.78        22.96334
516.22        22.92406
516.66        22.87386
517.10        22.85165
517.54        22.86701
517.98        22.90704
518.42        22.95228
518.86         22.9716
519.30         22.9574
519.74        22.92218
520.18        22.87881
520.62        22.84596
521.06        22.83043
521.50        22.82615
521.93        22.83255
522.37        22.84125
522.81        22.85132
523.25        22.86236
523.69        22.87058
524.13        22.87008
524.57        22.85788
525.01        22.83252
525.45        22.79363
525.89        22.74225
526.32         22.6784
526.76        22.61048
527.20        22.53924
527.64        22.46712
528.08        22.39729
528.52        22.33098
528.96        22.27594
529.40        22.24301
529.83        22.23121
530.27        22.23608
530.71        22.24123
531.15        22.22389
531.59        22.17732
532.03        22.10518
532.46        22.01582
532.90        21.93856
533.34        21.87824
533.78        21.82093
534.22        21.75816
534.66        21.70239
535.09        21.63835
535.53        21.52244
535.97        21.38836
536.41        21.34346
536.85        21.39746
537.28        21.49743
537.72         21.6121
538.16        21.70668
538.60        21.76472
539.04         21.7966
539.47         21.8075
539.91         21.8212
540.35        21.84223
540.79        21.86572
541.22        21.89927
541.66        21.96308
542.10        22.05662
542.54        22.17721
542.97        22.30612
543.41         22.4214
543.85        22.51472
544.29        22.59453
544.72        22.67079
545.16        22.77571
545.60        22.91138
546.04        23.07118
546.47        23.24658
546.91        23.41915
547.35         23.5787
547.79        23.72979
548.22        23.87218
548.66        24.00014
549.10        24.14361
549.53        24.29359
549.97        24.44813
550.41        24.54928
550.84        24.62166
551.28        24.73441
551.72        24.87963
552.15        25.06295
552.59        25.31357
553.03        25.25859
553.46        25.63375
553.90        25.74286
554.34        25.80331
554.77        25.82398
555.21        25.85699
555.65        25.96381
556.08        26.14347
556.52        26.36065
556.96        26.55361
557.39        26.70087
557.83        26.76689
558.27        26.62812
558.70        26.37471
559.14        26.30713
559.57        26.44066
560.01        26.61068
560.45        26.76614
560.88        26.91335
561.32        27.04582
561.75        27.13512
562.19        27.20304
562.63        27.27727
563.06        27.35972
563.50        27.44235
563.93        27.49865
564.37        27.56121
564.80        27.64134
565.24        27.67101
565.68        27.60212
566.11        27.95736
566.55        27.73551
566.98        27.76909
567.42        27.81441
567.85        27.92588
568.29        28.11152
568.72        28.37306
569.16        28.70242
569.60        28.86886
570.03        28.95275
570.47          29.071
570.90        29.30635
571.34        29.00103
571.77        29.33502
572.21        29.55324
572.64        29.61559
573.08        29.77712
573.51        29.94345
573.95        30.01712
574.38        30.08308
574.82        30.17913
575.25        30.18015
575.69        30.26577
576.12        30.33194
576.56        30.28876
576.99        30.58141
577.42        30.37018
577.86        30.20432
578.29        30.72685
578.73        30.29179
579.16        30.29486
579.60        30.16411
580.03        30.28646
580.47        30.25438
580.90         30.2109
581.33        30.22016
581.77        30.29915
582.20        29.99538
582.64        29.65399
583.07         29.5375
583.51        29.41528
583.94        29.47786
584.37         29.5294
584.81        29.50685
585.24        29.33103
585.68        29.12422
586.11        28.85343
586.54          29.046
586.98         28.8752
587.41        28.70169
587.85        28.48705
588.28        28.34479
588.71        28.40833
589.15        28.32436
589.58        28.38906
590.01         28.5246
590.45        28.63373
590.88        28.68266
591.31        28.57143
591.75        28.43352
592.18        28.35141
592.61        28.26428
593.05        29.01901
593.48        29.04093
593.91        28.64887
594.35        28.67402
594.78         28.6003
595.21        28.80021
595.65        29.04494
596.08        29.36703
596.51        29.56558
596.94        29.55445
597.38        29.71078
597.81        29.99587
598.24        30.43523
598.68        30.58899
599.11        30.76696
599.54        31.19308
599.97        30.98475
600.41        31.53855
600.84         31.5537
601.27        31.89461
601.70        32.08141
602.14        32.44058
602.57        32.77019
603.00        33.19186
603.43        33.33978
603.87        34.16523
604.30        34.67263
604.73         34.8162
605.16        34.93399
605.60        35.18075
606.03        35.38975
606.46        35.63051
606.89        35.93154
607.32        36.62572
607.76        36.91008
608.19        37.25899
608.62        37.42101
609.05        37.64205
609.48        37.94261
609.92        38.74837
610.35        38.98919
610.78        38.79018
611.21        38.73047
611.64        39.15321
612.07        39.61554
612.50        39.92987
612.94        40.25592
613.37        40.50277
613.80        40.58361
614.23        40.57979
614.66        40.68233
615.09        41.06528
615.52         41.3608
615.96        41.56699
616.39        41.85195
616.82        42.23467
617.25        42.20279
617.68        42.54986
618.11        42.70465
618.54        42.90972
618.97        43.08766
619.40        43.22649
619.84         43.4679
620.27        43.38824
620.70        43.49933
621.13        43.67445
621.56        43.38264
621.99        43.12756
622.42        43.19367
622.85        43.69416
623.28        43.65116
623.71        43.91229
624.14        43.79592
624.57        44.31984
625.00        44.02884
625.43        44.12502
625.86        43.96154
626.29        43.91755
626.72        43.36392
627.15        43.58916
627.58        43.49158
628.01        43.37123
628.44        43.36505
628.87        43.05682
629.30        42.78758
629.73        42.47991
630.16        42.24359
630.59        42.08869
631.02        41.98615
631.45        41.89431
631.88        41.72053
632.31        41.43724
632.74        41.13482
633.17        40.71589
633.60        40.30106
634.03        39.87572
634.46         39.4367
634.89        39.00258
635.32        38.61388
635.75        38.28181
636.18        37.95932
636.61        37.64516
637.04        37.35434
637.47        37.07801
637.89        36.80307
638.32        36.50987
638.75        36.20776
639.18        35.90141
639.61        35.59323
640.04        35.29587
640.47        35.02608
640.90        34.78809
641.33        34.58172
641.76        34.40204
642.18        34.24432
642.61        34.09796
643.04        33.96917
643.47         33.8671
643.90        33.80523
644.33        33.78387
644.76        33.79926
645.18          33.833
645.61        33.84636
646.04        33.83896
646.47          33.828
646.90        33.84647
647.33        33.93766
647.75        34.09916
648.18        34.35492
648.61        34.69662
649.04        34.96324
649.47        35.10843
649.89        35.73699
650.32        35.89791
650.75        36.19971
651.18        36.41074
651.61        36.85702
652.03        37.51173
652.46        37.95091
652.89        38.16078
653.32        38.54822
653.74        39.17208
654.17        39.16895
654.60        39.64293
655.03        40.08121
655.46        39.93954
655.88        40.44574
656.31         41.4455
656.74        41.87172
657.16        43.16751
657.59        44.63057
658.02        43.28454
658.45        43.41338
658.87        43.19436
659.30        43.89082
659.73        43.91051
660.15        44.55775
660.58        44.46171
661.01        44.64333
661.44        44.87195
661.86         44.9103
662.29        44.79721
662.72        45.25473
663.14        45.40796
663.57        45.63287
664.00         45.7108
664.42        45.94844
664.85        46.35669
665.27        46.78303
665.70        47.12661
666.13        47.33271
666.55        47.38576
666.98        47.25905
667.41        47.03131
667.83        47.13575
668.26        47.11996
668.69        47.34319
669.11        47.62157
669.54        47.87834
669.96        48.08339
670.39        48.29179
670.82        48.49852
671.24        48.58503
671.67        48.59018
672.09        48.69947
672.52        48.90717
672.94         49.0155
673.37        49.02726
673.80        49.05428
674.22        49.12743
674.65         49.2134
675.07         49.3288
675.50        49.47192
675.92        49.62354
676.35        49.74337
676.77        49.82401
677.20         49.8702
677.62        49.90919
678.05        49.98679
678.47        50.10943
678.90        50.26448
679.32        50.41715
679.75        50.52296
680.17        50.57059
680.60        50.58109
681.02        50.58669
681.45        50.64079
681.87        50.76828
682.30        50.92156
682.72        51.09182
683.15        51.29202
683.57        51.48927
684.00        51.54379
684.42        51.50557
684.85        51.58091
685.27        51.77842
685.70        52.00079
686.12        52.17134
686.54        52.24051
686.97        52.19495
687.39          52.033
687.82        51.81693
688.24         51.8419
688.66        51.85232
689.09        52.04006
689.51        52.27533
689.94         52.4654
690.36        52.58099
690.78        52.63691
691.21        52.66875
691.63        52.71787
692.06        52.80176
692.48        52.91755
692.90        53.01529
693.33        53.02247
693.75        52.92952
694.17        52.74001
694.60        52.57279
695.02        52.61257
695.44        52.86664
695.87        53.31444
696.29        53.79899
696.71        53.82515
697.14        53.47196
697.56        53.38133
697.98        53.60525
698.41        53.72249
698.83        53.73511
699.25        53.95569
699.68        54.27896
700.10        54.41712
700.52        54.31445
700.94        54.07127
701.37        53.81754
701.79        53.76518
702.21         53.9565
702.64        54.30811
703.06        54.70679
703.48        54.95512
703.90        54.99771
704.33        54.90089
704.75        54.73822
705.17        54.62036
705.59        54.59057
706.01        54.61012
706.44        54.67917
706.86        54.80795
707.28        54.97485
707.70        55.20343
708.12        55.44994
708.55         55.5815
708.97        55.60583
709.39        55.64219
709.81        55.71048
710.23        55.76233
710.66        55.80261
711.08        55.88575
711.50        55.97029
711.92        55.98165
712.34        55.91382
712.76        55.79906
713.19        55.66792
713.61        55.60105
714.03        55.61148
714.45        55.68843
714.87        55.81485
715.29        55.96534
715.71        56.12355
716.13        56.27869
716.56        56.42268
716.98         56.6196
717.40        56.83504
717.82        57.05055
718.24        57.19157
718.66        57.14385
719.08        56.90928
719.50        56.55376
719.92        56.19986
720.34        56.03111
720.76        56.09397
721.19         56.3165
721.61        56.66427
722.03        57.03171
722.45        57.35646
722.87         57.6466
723.29        57.84542
723.71        57.86576
724.13        57.70545
724.55        57.39983
724.97        57.03302
725.39        56.75713
725.81        56.62708
726.23        56.59286
726.65        56.64724
727.07        56.89491
727.49         57.1076
727.91         57.4482
728.33        57.79147
728.75        58.03143
729.17        58.13288
729.59        58.11256
730.01        58.02061
730.43        57.94984
730.85        57.92908
731.27        57.92859
731.69        57.93624
732.10        57.93121
732.52        57.90444
732.94        57.88615
733.36        57.88296
733.78        57.78301
734.20        57.58146
734.62        57.52399
735.04        57.71208
735.46        57.23846
735.88         57.8088
736.30        57.99208
736.72        58.27454
737.13        58.58654
737.55        58.82616
737.97         59.1094
738.39        59.31145
738.81        58.90772
739.23        58.12595
739.65        58.08561
740.06        58.70575
740.48         59.0273
740.90        58.89089
741.32        59.01053
741.74        59.34615
742.16        59.54449
742.57        59.57468
742.99        59.51728
743.41        59.41856
743.83        59.33236
744.25        59.28474
744.67        59.25319
745.08         59.2471
745.50        59.26429
745.92        59.30305
746.34          59.353
746.75        59.41211
747.17        59.44517
747.59        59.45024
748.01        59.49117
748.42        59.53181
748.84        59.42081
749.26        59.22593
749.68        59.14444
750.09        59.19433
750.51        59.38818
750.93        59.60301
751.35        59.46948
751.76        59.05297
752.18        58.84423
752.60        58.85677
753.01        58.84232
753.43        58.80145
753.85         58.7559
754.27        58.67907
754.68        59.12606
755.10        59.15562
755.52        59.21582
755.93        59.09192
756.35         59.2032
756.77        59.56631
757.18        59.71348
757.60        59.61193
758.02        59.84065
758.43        60.36326
758.85        59.54857
759.26        59.52723
759.68        59.27467
760.10         59.4181
760.51        59.62521
760.93        59.87793
761.34        59.84826
761.76         60.2314
762.18        60.32833
762.59        60.40197
763.01        60.29376
763.42        60.18767
763.84        60.33128
764.26        60.65891
764.67        60.50039
765.09        59.98999
765.50         59.8817
765.92        60.21126
766.33        60.28459
766.75        59.95406
767.16        60.34846
767.58        60.11391
768.00        59.94884
768.41        59.64628
768.83        59.96001
769.24        60.66853
769.66        60.93834
770.07        60.70922
770.49        60.07572
770.90        59.40055
771.32        59.84314
771.73        61.16284
772.15        61.67223
772.56        61.26213
772.97        60.86313
773.39        60.64623
773.80        60.70213
774.22        60.63084
774.63        60.86538
775.05        61.13543
775.46        61.28445
775.88        61.23592
776.29        61.06687
776.70        60.86002
777.12        60.76212
777.53        60.82085
777.95        60.94566
778.36        61.10134
778.77         61.2002
779.19        61.23293
779.60        61.25249
780.02        61.22941
780.43        61.20502
780.84        61.22722
781.26        60.95884
781.67        60.56618
782.09         61.0948
782.50         62.3001
782.91        62.05567
783.33        61.45573
783.74        61.12299
784.15        61.41785
784.57        61.51645
784.98        61.41933
785.39        61.36283
785.81        61.40375
786.22        61.75363
786.63        62.28148
787.04        62.50937
787.46        62.40104
787.87        62.17609
788.28        61.96479
788.70        61.86731
789.11        61.90457
789.52        62.06576
789.93        62.26729
790.35        62.36248
790.76        62.32112
791.17         62.1802
791.58        62.01668
792.00        61.89577
792.41        61.86417
792.82        62.00855
793.23        62.21627
793.65        62.14313
794.06         61.9166
794.47        61.97557
794.88        62.20973
795.29        62.99811
795.71        62.43709
796.12        62.56429
796.53        62.79566
796.94        62.51469
797.35        61.86967
797.76        61.90462
798.18        62.55051
798.59        62.79546
799.00        62.56049
799.41        62.42004
799.82        62.45544
800.23        62.53317
800.64        62.66333
801.06        62.84112
801.47        63.04047
801.88        63.13628
802.29        63.09492
802.70        62.94069
803.11         62.7202
803.52        62.51911
803.93        62.38596
804.34        62.31089
804.75        62.29418
805.17        62.38233
805.58         62.6088
805.99        62.74718
806.40        62.81257
806.81        63.29273
807.22        63.94962
807.63        63.71613
808.04        62.75532
808.45         62.2737
808.86        62.38695
809.27        62.46627
809.68        62.42936
810.09         62.4411
810.50         62.4793
810.91        62.48997
811.32        62.55637
811.73         62.8114
812.14         63.2591
812.55        63.85254
812.96        64.38911
813.37        64.49863
813.78        64.10264
814.19        63.35471
814.60        62.51604
815.01        61.93444
815.42        61.69452
815.83        61.70899
816.24        61.90213
816.65        62.11588
817.05        62.28172
817.46        62.42282
817.87        62.55785
818.28        62.66905
818.69        62.75786
819.10        62.79459
819.51        62.81474
819.92        62.90466
820.33        63.07307
820.74         63.2898
821.14        63.48655
821.55        63.54411
821.96        63.44138
822.37        63.22678
822.78        62.96111
823.19        62.74514
823.60        62.62356
824.00        62.59575
824.41        62.62207
824.82         62.7273
825.23        62.89122
825.64        63.10146
826.04         63.3218
826.45        63.45669
826.86        63.49492
827.27        63.46467
827.68        63.36919
828.08        63.24751
828.49        63.07775
828.90         62.8702
829.31        62.71504
829.72         62.7579
830.12         63.0416
830.53         63.4807
830.94        63.91545
831.35        64.02283
831.75        63.74058
832.16        63.14333
832.57        62.46739
832.97        62.07176
833.38        62.05283
833.79        62.29147
834.20        62.65105
834.60        62.90996
835.01        63.00437
835.42        63.04639
835.82        63.07435
836.23        63.07627
836.64        63.09641
837.04         63.0868
837.45        63.16203
837.86        63.58064
838.26        64.38061
838.67        65.43867
839.08        66.41992
839.48        66.68813
839.89        66.09376
840.29         64.8734
840.70        63.55874
841.11        62.74812
841.51        62.60034
841.92        62.92438
842.33        63.52864
842.73        64.06504
843.14        64.29977
843.54        64.39169
843.95        64.39389
844.35        64.43859
844.76        64.54509
845.17        64.64043
845.57        64.69827
845.98        64.67016
846.38        64.56837
846.79        64.42289
847.19         64.2639
847.60        64.10857
848.00        63.98254
848.41        63.85718
848.81        63.78508
849.22        63.77707
849.62        63.86418
850.03        64.02242
850.43        64.19511
850.84        64.22711
851.24        64.12514
851.65        63.87015
852.05        63.63095
852.46        63.60804
852.86        63.84648
853.27        64.26629
853.67        64.64783
854.07        64.79063
854.48        64.63387
854.88        64.27355
855.29        63.78297
855.69        63.41841
856.10        63.21164
856.50        63.16372
856.90        63.20441
857.31        63.23414
857.71        63.26173
858.12        63.25818
858.52        63.26866
858.92        63.25597
859.33        63.20091
859.73        63.15092
860.13        63.05617
860.54        62.86424
860.94        62.62154
861.34        62.33754
861.75         62.1197
862.15        62.18004
862.55        62.52834
862.96         63.0576
863.36        63.64585
863.76        64.00477
864.17        64.03103
864.57        63.83587
864.97        63.44552
865.38        62.91958
865.78        62.33844
866.18        61.68295
866.58        61.11231
866.99        60.90336
867.39        61.13604
867.79        61.74202
868.19          62.482
868.60        62.95446
869.00         63.0849
869.40        62.92889
869.80        62.67075
870.21         62.6735
870.61        63.07656
871.01        63.68639
871.41        64.21869
871.81        64.28922
872.22         63.8299
872.62        62.96889
873.02        61.99033
873.42         61.3705
873.82        61.26484
874.22        61.55309
874.63        61.97437
875.03         62.1259
875.43        61.89158
875.83        61.40154
876.23        60.90147
876.63        60.76278
877.03        61.06902
877.44        61.67001
877.84        62.32427
878.24        62.65841
878.64        62.52162
879.04        61.88749
879.44        61.11826
879.84        60.87894
880.24        61.25746
880.64        62.00941
881.04         62.7208
881.44        62.74213
881.84        61.94404
882.24        60.58495
882.65        59.15236
883.05        58.38614
883.45        58.48213
883.85        59.21823
884.25        60.26639
884.65        61.06311
885.05        61.40041
885.45        61.42758
885.85        61.29468
886.25        61.23429
886.65         61.3159
887.05        61.44079
887.45        61.51997
887.85        61.43781
888.25         61.1744
888.65        60.80272
889.04        60.43133
889.44        60.23066
889.84         60.2286
890.24        60.37891
890.64        60.58596
891.04        60.69157
891.44        60.65668
891.84        60.53949
892.24        60.41523
892.64        60.39307
893.04         60.5075
893.44        60.72642
893.83        61.02981
894.23        61.33828
894.63        61.63088
895.03        61.89191
895.43        62.13237
895.83        62.37696
896.23        62.60693
896.63        62.79443
897.02        62.83404
897.42        62.59245
897.82        62.07544
898.22        61.38676
898.62        60.68722
899.01        60.19922
899.41        59.99831
899.81        60.00612
900.21        60.18357
900.61        60.45887
901.00        60.77097
901.40        61.11683
901.80        61.39625
902.20        61.44841
902.59        61.26202
902.99        60.88303
903.39        60.43262
903.79        60.11987
904.18        60.00432
904.58        60.03002
904.98        60.19607
905.38        60.49912
905.77        60.91269
906.17         61.4628
906.57        61.98112
906.96        62.18221
907.36        62.00817
907.76         61.5481
908.15        61.11019
908.55         61.1787
908.95        61.85041
909.34        62.95959
909.74        64.13104
910.14        64.82613
910.53        64.84902
910.93        64.38799
911.33        63.60261
911.72        62.73033
912.12        61.96482
912.52        61.27722
912.91        60.73094
913.31        60.43712
913.70        60.40361
914.10        60.56929
914.49        60.96379
914.89        61.52658
915.29        62.20782
915.68        63.00884
916.08        63.61408
916.47        63.59088
916.87        62.90532
917.26        61.67835
917.66        60.46129
918.05        59.94761
918.45        60.27615
918.84        61.30849
919.24        62.53491
919.64         63.1642
920.03         62.9775
920.42        62.17408
920.82        61.27856
921.21        61.05527
921.61        61.66106
922.00        62.88187
922.40        64.19704
922.79        64.82824
923.19        64.52504
923.58        63.60275
923.98        62.51333
924.37         61.8434
924.77        61.76026
925.16        62.02486
925.55          62.471
925.95         62.8065
926.34        62.91653
926.74        62.88668
927.13        62.68049
927.52        62.15587
927.92        61.39394
928.31        60.45653
928.70        59.57412
929.10        59.08018
929.49        59.03656
929.89        59.29736
930.28        59.86757
930.67        60.62365
931.07        61.43663
931.46        62.39168
931.85        63.13742
932.24        63.16535
932.64        62.45891
933.03        61.13456
933.42        59.82238
933.82        59.46038
934.21        60.22688
934.60        61.90913
934.99         63.8485
935.39        64.83676
935.78        64.55289
936.17        63.25355
936.56        61.60968
936.96        60.68325
937.35        60.74717
937.74        61.48568
938.13        62.32171
938.53        62.36528
938.92        61.44457
939.31         59.9387
939.70        58.40814
940.09        57.62596
940.49        57.74105
940.88        58.51713
941.27        59.61633
941.66         60.4285
942.05        60.72726
942.44          60.715
942.84        60.55495
943.23        60.48722
943.62         60.6111
944.01        60.79623
944.40        61.06185
944.79         61.4843
945.18        62.02512
945.57        62.64453
945.97        63.12676
946.36        63.19234
946.75        62.74203
947.14        61.92601
947.53        60.92946
947.92        60.00126
948.31        59.25383
948.70         58.6649
949.09        58.31058
949.48        58.31111
949.87        58.66959
950.26        59.32743
950.65        60.16158
951.04         60.9534
951.43         61.5837
951.82        62.05558
952.21        62.27822
952.60          62.144
952.99         61.6941
953.38        61.01085
953.77        60.30399
954.16        59.91039
954.55        59.90548
954.94        60.17036
955.33        60.64021
955.72        61.16409
956.11        61.64104
956.50         62.1363
956.89        62.39257
957.28        61.99534
957.66        60.92901
958.05        59.38216
958.44        57.91562
958.83         57.3466
959.22        57.80499
959.61        59.06462
960.00        60.59444
960.39        61.38013
960.78        61.09362
961.16        60.04007
961.55        58.72433
961.94        57.80778
962.33        57.47575
962.72        57.54773
963.11        57.82704
963.49        57.98843
963.88        57.85519
964.27        57.57492
964.66        57.37148
965.04        57.57365
965.43        58.18691
965.82        59.12612
966.21        60.03702
966.60        60.26582
966.98        59.62027
967.37        58.38999
967.76        57.08422
968.15        56.33717
968.53        56.28629
968.92        56.78745
969.31        57.53106
969.69        57.90722
970.08        57.65779
970.47        56.99419
970.86        56.37574
971.24        56.45523
971.63        57.35144
972.02         58.8778
972.40        60.54139
972.79        61.13564
973.17        60.40268
973.56        58.80367
973.95        57.06989
974.33        56.14338
974.72        56.22202
975.11        56.96493
975.49         58.1382
975.88        59.20926
976.26        59.93861
976.65        60.45256
977.04        60.59919
977.42         60.1102
977.81        58.98863
978.19        57.28341
978.58        55.61588
978.96        54.97763
979.35        55.56481
979.74        57.15037
980.12        59.11551
980.51        60.06919
980.89        59.74696
981.28        58.58082
981.66         57.1956
982.05        56.45893
982.43         56.6098
982.82         57.3047
983.20        58.49847
983.59        60.02599
983.97        61.74482
984.35        63.66754
984.74        65.20277
985.12        65.58543
985.51        64.63876
985.89        62.65264
986.28        60.43376
986.66        59.14054
987.04        59.12702
987.43        60.07119
987.81        61.58821
988.20        62.76196
988.58        63.21417
988.96        63.11794
989.35        62.62909
989.73        61.97704
990.12         61.2466
990.50        60.37858
990.88        59.32188
991.27        58.11289
991.65        56.87238
992.03        55.70929
992.42        54.90796
992.80        54.77173
993.18        55.33404
993.56        56.52229
993.95        57.88441
994.33        58.70948
994.71        58.65366
995.10        57.98585
995.48        57.13193
995.86        56.85083
996.24        57.32384
996.63        58.19316
997.01        59.37539
997.39        60.35684
997.77        60.85605
998.15        61.12113
998.54        60.96931
998.92         60.0084
999.30        58.39163
999.68        56.27468
1000.06        54.47943
1000.45        54.16199
1000.83        55.61213
1001.21        58.64088
1001.59        62.37913
1001.97        64.64426
1002.35        64.59209
1002.73        62.90526
1003.12        60.80789
1003.50        59.83718
1003.88        60.46601
1004.26        62.09158
1004.64        64.43436
1005.02         66.8177
1005.40        68.70318
1005.78        70.37526
1006.16        71.14781
1006.54        69.94551
1006.92        66.90409
1007.30         62.4968
1007.69         58.2925
1008.07        56.37006
1008.45        57.30268
1008.83        60.65192
1009.21        65.29443
1009.59        68.32269
1009.97        68.28335
1010.35        65.98087
1010.73        62.44464
1011.11        59.19511
1011.49         56.8442
1011.86        55.03749
1012.24        53.82299
1012.62        53.27346
1013.00        53.33493
1013.38        54.09097
1013.76        55.50336
1014.14        57.17952
1014.52        58.74152
1014.90        60.02411
1015.28        60.83255
1015.66        61.11111
1016.04        60.92152
1016.41        60.28356
1016.79        59.32033
1017.17        58.39962
1017.55        57.68671
1017.93        57.12295
1018.31        56.78915
1018.69        56.71677
1019.06        56.90005
1019.44        57.47989
1019.82        58.09098
1020.20        57.91969
1020.58        56.79465
1020.95        54.92277
1021.33        53.38738
1021.71        53.41262
1022.09        55.16687
1022.46        58.59844
1022.84        62.60581
1023.22        64.29893
1023.60        62.56885
1023.97         58.2816
1024.35        53.98031
1024.73        52.49194
