SpectraSmart Spectrum 2.9.0.0
--------- Device Information -----------
Spectrum Name :  反射率_0
Saving Time :  2024/04/26 23:03:51
Spectro-Module Model Name : SE2030-DUVN
Spectro-Module Serial Number : OS361AC55029948
Wavelength Start : 200
Wavelength End : 1025
Wavelength Unit : Wavelength(nm)
Spectrum Unit : Reflectance(%)
-----------Spectrum Setting ------------
Integration Time : 20ms
Average : 10
Boxcar : 0
Background removal :  enabled
linearity correction :  enabled
SC :  disabled
Intensity correction :  disabled
DWT denoise :  enabled
savitzky-golay :  disabled
FFT :  disabled
Running average :  disabled
Kalman :  disabled
High pass :  disabled
---------------BEGIN--------------------
Wavelength(nm)             Reflectance(%)
200.29               0
200.75        16.11736
201.21        16.82043
201.67        17.46242
202.13        17.00132
202.58        15.17403
203.04        12.35516
203.50        8.989232
203.96        6.894396
204.42        7.594616
204.88        10.97243
205.34        16.23478
205.80        21.33526
206.26        24.93515
206.72         26.8914
207.18        27.81749
207.64        28.73235
208.10        30.05822
208.55        32.23859
209.01        34.15826
209.47        32.72321
209.93        28.13282
210.39        23.39989
210.85        20.69843
211.31        20.82499
211.77        24.12924
212.23        33.43464
212.69        58.17645
213.14        102.0788
213.60        103.1184
214.06        73.82368
214.52        53.65337
214.98        45.39959
215.44        42.87175
215.90        42.24115
216.36         41.9059
216.81         39.5996
217.27         34.8433
217.73        28.29962
218.19        20.58545
218.65        17.07137
219.11        20.61321
219.57        26.42338
220.02        32.77821
220.48        41.30085
220.94        53.67043
221.40        72.85492
221.86         97.6761
222.32         109.977
222.77         97.0605
223.23        72.61376
223.69        51.26724
224.15         40.7542
224.61        38.54792
225.06        40.11798
225.52         43.3868
225.98        46.36728
226.44        48.66965
226.90         51.2402
227.36        53.31091
227.81         53.3374
228.27        51.47197
228.73        48.15549
229.19        45.33987
229.65        45.40532
230.10        48.34084
230.56        53.33842
231.02        58.34459
231.48        60.01921
231.93        57.84367
232.39        53.55363
232.85        49.16116
233.31         47.2303
233.77        48.06826
234.22        50.76589
234.68        54.10635
235.14        56.32445
235.60        56.81772
236.05        56.06906
236.51         54.5843
236.97        53.48699
237.43        53.26806
237.88        53.64741
238.34        54.02557
238.80        53.63377
239.26         52.2163
239.71        50.18684
240.17         47.8812
240.63        47.10466
241.08        49.19304
241.54        53.68653
242.00        60.38161
242.46         68.9446
242.91        80.23738
243.37        95.87823
243.83        115.2181
244.28        127.4078
244.74        118.8824
245.20        91.68506
245.66        63.17683
246.11        46.59934
246.57        41.43981
247.03        43.70689
247.48        49.22581
247.94        50.55171
248.40        47.14174
248.85        42.53485
249.31        38.95429
249.77        37.39231
250.22        37.50223
250.68        38.69468
251.14        40.64671
251.59        42.28689
252.05         43.1085
252.51         43.7935
252.96        44.10224
253.42        44.08261
253.88         43.9594
254.33        43.51542
254.79        44.21447
255.25         47.1887
255.70        52.15854
256.16        58.60907
256.62        64.19602
257.07        65.21397
257.53        62.65755
257.99        58.80638
258.44        55.48776
258.90        54.56058
259.35        55.21362
259.81        56.86016
260.27        58.48834
260.72        58.91987
261.18        58.30764
261.63        56.94979
262.09        55.70437
262.55        54.98915
263.00        54.71146
263.46        54.78025
263.91        54.67635
264.37        54.06437
264.83        52.92327
265.28        51.44941
265.74        50.16992
266.19        49.42475
266.65        49.31174
267.11        49.57741
267.56        49.94275
268.02        49.97099
268.47        49.54095
268.93        48.83273
269.38        47.95677
269.84        47.14754
270.30        46.45769
270.75        45.77994
271.21        45.17161
271.66        44.66721
272.12        44.25245
272.57        43.90037
273.03        43.45982
273.48        42.66528
273.94        41.55711
274.39        40.22339
274.85        38.94767
275.31        37.96861
275.76         37.3117
276.22         36.9295
276.67         36.6758
277.13        36.43996
277.58        36.11939
278.04        35.77043
278.49        35.35431
278.95        34.94024
279.40        34.48341
279.86        34.03392
280.31        33.50712
280.77         32.9089
281.22        32.21345
281.68         31.5066
282.13        30.84524
282.59        30.39303
283.04        30.12804
283.50        30.02518
283.95        29.96585
284.41        29.77936
284.86        29.43114
285.32        29.00879
285.77        28.60113
286.22        28.39616
286.68         28.4151
287.13        28.54625
287.59        28.70871
288.04        28.73445
288.50        28.60546
288.95         28.3535
289.41        28.03436
289.86        27.65913
290.32        27.29001
290.77        26.91295
291.22        26.59727
291.68        26.43097
292.13        26.41871
292.59        26.55899
293.04        26.79805
293.50        27.06364
293.95        27.32299
294.40         27.5967
294.86        27.90721
295.31        28.28505
295.77        28.73891
296.22        29.23367
296.68        29.75323
297.13        30.26318
297.58        30.75752
298.04        31.24785
298.49        31.72581
298.95        32.19629
299.40        32.65119
299.85        33.08594
300.31        33.51334
300.76        33.94413
301.21         34.3782
301.67         34.8219
302.12        35.22681
302.58        35.57676
303.03        35.84637
303.48         36.0734
303.94        36.29345
304.39        36.52448
304.84        36.78386
305.30        37.06096
305.75        37.33479
306.20        37.63057
306.66        37.94602
307.11        38.25695
307.57         38.5117
308.02        38.58096
308.47        38.46748
308.93        38.22152
309.38        37.94272
309.83        37.83468
310.29        37.93421
310.74        38.17574
311.19        38.43213
311.65        38.48794
312.10        38.28805
312.55        37.90494
313.00        37.46626
313.46        37.16038
313.91        37.01775
314.36        36.98603
314.82        36.97184
315.27        36.83776
315.72        36.54953
316.18        36.17588
316.63        35.78299
317.08        35.48286
317.53        35.30178
317.99        35.18933
318.44        35.11522
318.89        35.02229
319.35        34.88531
319.80          34.722
320.25         34.5193
320.70        34.25578
321.16        33.93244
321.61        33.56485
322.06        33.18701
322.51        32.86411
322.97        32.60875
323.42        32.40706
323.87        32.24015
324.32        32.07743
324.78        31.89204
325.23        31.71407
325.68        31.49747
326.13        31.17972
326.59         30.7634
327.04        30.28132
327.49        29.82374
327.94        29.53646
328.39        29.44036
328.85        29.47702
329.30        29.57099
329.75        29.52563
330.20         29.2816
330.66        28.88881
331.11        28.43528
331.56        28.03929
332.01        27.74436
332.46        27.51635
332.92        27.32095
333.37        27.14707
333.82        26.96986
334.27        26.80776
334.72        26.67319
335.17          26.575
335.63        26.50998
336.08        26.48434
336.53        26.46434
336.98        26.41103
337.43        26.31295
337.88        26.16653
338.34        26.01645
338.79        25.96997
339.24        26.03262
339.69        26.17574
340.14        26.29674
340.59        26.22891
341.05        25.95569
341.50        25.54303
341.95        25.11512
342.40        24.85991
342.85        24.82213
343.30        24.93156
343.75        25.12276
344.20        25.28993
344.66        25.38647
345.11        25.43952
345.56        25.42146
346.01        25.28866
346.46        25.05623
346.91        24.74874
347.36        24.44379
347.81         24.2698
348.26        24.25314
348.72         24.3501
349.17        24.51456
349.62        24.67885
350.07        24.80761
350.52        24.92146
350.97        24.96716
351.42        24.86282
351.87        24.61203
352.32         24.2447
352.77        23.88111
353.22        23.70263
353.67        23.74154
354.13         23.9483
354.58        24.20828
355.03        24.32586
355.48        24.24608
355.93        24.02941
356.38        23.76736
356.83        23.59847
357.28        23.55556
357.73        23.58718
358.18        23.63402
358.63        23.60619
359.08        23.47823
359.53        23.28571
359.98        23.06806
360.43        22.87652
360.88        22.72549
361.33        22.59934
361.78        22.47802
362.23        22.33237
362.68        22.16187
363.13        21.98636
363.58        21.82951
364.03        21.72432
364.48         21.6733
364.93        21.65383
365.38        21.65261
365.83        21.64981
366.28        21.63275
366.73        21.60872
367.18        21.54815
367.63        21.40664
368.08        21.18475
368.53        20.89647
368.98        20.61074
369.43        20.43781
369.88        20.39977
370.33        20.46765
370.78        20.56125
371.23        20.54337
371.68        20.37892
372.13        20.10953
372.58        19.81227
373.03        19.61074
373.48          19.537
373.93        19.54997
374.38        19.59174
374.83        19.57224
375.28        19.46551
375.72        19.29722
376.17        19.11795
376.62        18.97583
377.07        18.88635
377.52        18.83418
377.97        18.79411
378.42        18.73072
378.87        18.63639
379.32        18.52161
379.77        18.42024
380.22        18.37925
380.67        18.40232
381.11        18.47829
381.56        18.54196
382.01        18.50412
382.46        18.35036
382.91        18.11909
383.36        17.88393
383.81        17.74517
384.26        17.71992
384.71        17.77639
385.15        17.86286
385.60        17.89562
386.05        17.84884
386.50        17.75014
386.95        17.63249
387.40        17.54713
387.85        17.50545
388.29        17.47278
388.74        17.45065
389.19        17.40351
389.64        17.32199
390.09        17.21473
390.54        17.08597
390.98        16.93886
391.43        16.79408
391.88        16.65535
392.33        16.52844
392.78        16.41947
393.23        16.32947
393.67        16.24807
394.12        16.19573
394.57        16.16875
395.02        16.16206
395.47        16.16774
395.91        16.16973
396.36        16.13268
396.81        16.06118
397.26         15.9698
397.71        15.87492
398.15         15.8107
398.60        15.80175
399.05        15.76894
399.50        15.72338
399.95        15.79821
400.39        15.93775
400.84        15.85854
401.29        15.58583
401.74        15.40903
402.18        15.35274
402.63        15.25403
403.08        15.12639
403.53        15.05773
403.97        15.05141
404.42        15.08703
404.87        15.13312
405.32         15.1354
405.76        15.07812
406.21        14.98141
406.66        14.87873
407.11        14.82617
407.55         14.8387
408.00         14.8911
408.45        14.94506
408.90         14.9275
409.34         14.8215
409.79        14.65899
410.24        14.48857
410.68         14.3702
411.13         14.3223
411.58        14.32648
412.03        14.35497
412.47        14.36171
412.92        14.32737
413.37        14.27048
413.81        14.21378
414.26        14.20106
414.71        14.23412
415.15        14.30186
415.60        14.36871
416.05        14.38708
416.49        14.34438
416.94        14.25329
417.39        14.14974
417.83        14.08755
418.28        14.07775
418.73        14.10277
419.17        14.13324
419.62        14.12192
420.07        14.05861
420.51        13.95899
420.96        13.85047
421.41        13.77067
421.85        13.72482
422.30        13.69639
422.74        13.66642
423.19        13.67062
423.64        13.68194
424.08        13.62289
424.53        13.50918
424.98        13.47448
425.42        13.53778
425.87        13.59487
426.31        13.62484
426.76        13.69699
427.21        13.76081
427.65        13.63463
428.10        13.38479
428.54        13.25458
428.99        13.27064
429.44        13.35649
429.88        13.44768
430.33        13.39272
430.77        13.22372
431.22        13.20711
431.66        13.32896
432.11        13.33677
432.56        13.23009
433.00        13.18125
433.45        13.16088
433.89        13.05181
434.34        12.94851
434.78        12.72515
435.23        13.06793
435.67        13.12337
436.12        13.06285
436.57        12.91781
437.01        12.74173
437.46        12.64294
437.90         12.6389
438.35        12.66092
438.79         12.6839
439.24        12.71353
439.68         12.7405
440.13        12.76375
440.57        12.78001
441.02        12.79628
441.46         12.8105
441.91        12.78328
442.35        12.72336
442.80        12.77063
443.24        12.87116
443.69        12.80593
444.13        12.60425
444.58        12.51274
445.02        12.54224
445.47        12.56525
445.91        12.56318
446.36        12.56718
446.80        12.56871
447.24        12.56081
447.69        12.55062
448.13        12.54313
448.58        12.54233
449.02        12.54351
449.47        12.54363
449.91        12.53261
450.36        12.51186
450.80         12.4826
451.25         12.4532
451.69        12.42901
452.13        12.41261
452.58        12.39981
453.02        12.38597
453.47        12.36566
453.91        12.33769
454.36        12.30757
454.80        12.27285
455.24        12.22735
455.69         12.1774
456.13        12.11841
456.58        12.07529
457.02        12.06546
457.46        12.09528
457.91        12.15372
458.35        12.21082
458.79        12.22073
459.24        12.18554
459.68        12.11413
460.13        12.04308
460.57        11.99558
461.01        11.98931
461.46        12.00191
461.90        12.03793
462.34        12.09322
462.79        12.15703
463.23        12.23623
463.68        12.29322
464.12        12.27463
464.56        12.17471
465.01        12.02981
465.45        11.87805
465.89        11.80439
466.34        11.81941
466.78        11.89562
467.22        11.99712
467.67        12.04836
468.11        12.03353
468.55        11.97107
468.99        11.89066
469.44        11.83779
469.88        11.82768
470.32        11.84485
470.77        11.87732
471.21        11.90984
471.65        11.93393
472.10        11.95729
472.54        11.97794
472.98        11.99659
473.42        12.01276
473.87        12.02711
474.31        12.03163
474.75        12.02779
475.20        12.02029
475.64        12.00726
476.08        11.99648
476.52        11.99257
476.97        11.99741
477.41          12.015
477.85        12.04885
478.29        12.08542
478.74        12.13242
479.18        12.22107
479.62        12.32847
480.06        12.39812
480.50        12.42505
480.95        12.41672
481.39        12.38832
481.83        12.48199
482.27        12.52227
482.72        12.65375
483.16        12.79741
483.60        12.87833
484.04        12.87246
484.48        12.89832
484.93        13.01854
485.37        12.93061
485.81        13.08062
486.25        13.47183
486.69        13.32555
487.14        13.50896
487.58         14.0807
488.02        13.77121
488.46        13.50004
488.90        13.61981
489.34        13.67426
489.79        13.81252
490.23        13.76994
490.67        13.91495
491.11        14.16833
491.55        14.17572
491.99        13.99714
492.43        13.99163
492.88        14.18841
493.32        14.39343
493.76        14.56501
494.20        14.72781
494.64         14.8724
495.08        14.96574
495.52        15.02208
495.96        15.16251
496.41        15.36209
496.85        15.38223
497.29         15.2634
497.73        15.42641
498.17        15.64821
498.61        15.82661
499.05        15.86971
499.49        15.92491
499.93        15.96234
500.37        16.06739
500.82        16.21833
501.26        16.33631
501.70        16.41427
502.14        16.50867
502.58        16.62824
503.02        16.75314
503.46        16.88064
503.90        17.01485
504.34        17.13487
504.78        17.20595
505.22        17.22277
505.66         17.1969
506.10        17.15701
506.54        17.14976
506.98         17.1882
507.42        17.26031
507.86         17.3502
508.30        17.42945
508.74        17.48852
509.18        17.53712
509.62        17.57902
510.06        17.62023
510.50         17.6633
510.94        17.70267
511.38        17.74278
511.82        17.79235
512.26        17.85216
512.70        17.92194
513.14        17.98928
513.58        18.03319
514.02        18.05001
514.46        18.04455
514.90        18.03565
515.34        18.05462
515.78        18.10601
516.22        18.17742
516.66        18.24479
517.10        18.26983
517.54        18.24389
517.98        18.18137
518.42        18.10012
518.86        18.02874
519.30        17.97777
519.74        17.93917
520.18        17.91236
520.62        17.89502
521.06        17.88552
521.50        17.88932
521.93        17.89803
522.37        17.88924
522.81        17.86236
523.25        17.81927
523.69        17.78051
524.13        17.77996
524.57        17.82007
525.01        17.88635
525.45         17.9469
525.89        17.95074
526.32        17.88533
526.76        17.77375
527.20        17.64293
527.64        17.53644
528.08        17.46823
528.52        17.42579
528.96        17.40186
529.40        17.38435
529.83        17.36674
530.27        17.35495
530.71        17.34124
531.15        17.31328
531.59         17.2699
532.03        17.21251
532.46        17.14887
532.90        17.10605
533.34          17.085
533.78        17.06735
534.22        17.04543
534.66        17.02759
535.09        16.99902
535.53        16.92808
535.97        16.82331
536.41        16.74163
536.85        16.69162
537.28        16.64316
537.72        16.61452
538.16        16.64631
538.60        16.73885
539.04         16.8789
539.47        17.02254
539.91        17.11286
540.35        17.13552
540.79        17.10919
541.22        17.07333
541.66        17.09916
542.10         17.1991
542.54        17.34803
542.97        17.51114
543.41        17.64063
543.85        17.72241
544.29        17.78076
544.72        17.82528
545.16         17.8819
545.60        17.95745
546.04        18.04342
546.47        18.15853
546.91        18.33023
547.35        18.55269
547.79        18.81385
548.22        19.06508
548.66         19.2281
549.10        19.31342
549.53        19.33597
549.97        19.34176
550.41        19.36338
550.84        19.44141
551.28        19.60724
551.72        19.81772
552.15        20.01848
552.59        20.21671
553.03        20.13447
553.46        20.38622
553.90        20.45696
554.34        20.53039
554.77        20.60092
555.21         20.6864
555.65        20.80014
556.08        20.93323
556.52        21.06836
556.96        21.18521
557.39        21.31001
557.83        21.42093
558.27        21.40344
558.70        21.29082
559.14        21.26546
559.57        21.32921
560.01        21.37152
560.45        21.39211
560.88        21.45645
561.32        21.57326
561.75        21.70023
562.19         21.8271
562.63        21.93275
563.06        22.00669
563.50        22.05721
563.93        22.07876
564.37        22.12117
564.80        22.20032
565.24        22.25165
565.68        22.22804
566.11         22.5408
566.55        22.38061
566.98        22.42156
567.42        22.47262
567.85        22.59106
568.29        22.78256
568.72        23.03305
569.16        23.34212
569.60        23.53014
570.03        23.64982
570.47        23.82558
570.90        24.13728
571.34        23.88378
571.77        24.19744
572.21        24.61231
572.64        24.63523
573.08        24.80371
573.51        24.92826
573.95        24.94828
574.38        24.93046
574.82        25.24569
575.25        25.19289
575.69        25.28683
576.12        25.32188
576.56        25.35486
576.99        25.44616
577.42        25.46518
577.86        25.57931
578.29        25.81659
578.73        25.63673
579.16        25.51333
579.60        25.27274
580.03        25.20061
580.47         25.2246
580.90        25.31944
581.33        25.31623
581.77        25.47767
582.20        25.29033
582.64          25.239
583.07        25.06331
583.51        24.79623
583.94        24.51802
584.37         24.3766
584.81        24.39404
585.24        24.41453
585.68        24.42859
586.11        24.09195
586.54        24.01907
586.98        23.84758
587.41        23.81299
587.85        23.72191
588.28        23.55176
588.71         23.7816
589.15        23.62527
589.58        23.39325
590.01        23.58403
590.45         23.4183
590.88        23.56009
591.31        23.42408
591.75        23.23788
592.18        23.16618
592.61        23.20754
593.05        23.64444
593.48        23.70871
593.91        23.74379
594.35          23.661
594.78        23.58628
595.21        23.60033
595.65        23.80012
596.08        24.18459
596.51        24.32659
596.94        24.17072
597.38        24.24592
597.81        24.53603
598.24        24.89318
598.68        25.09072
599.11        25.27135
599.54        25.53573
599.97        25.62572
600.41         26.1946
600.84        26.31399
601.27        26.55905
601.70        26.73483
602.14        26.96792
602.57        27.24192
603.00         27.6112
603.43        27.85696
603.87        28.57175
604.30        28.97484
604.73        29.31623
605.16        29.30253
605.60        29.58876
606.03        29.83265
606.46        30.21573
606.89        30.32119
607.32          31.002
607.76        31.24583
608.19        31.58935
608.62        31.87782
609.05        32.25766
609.48        32.43154
609.92        32.84395
610.35        33.12592
610.78        33.32103
611.21        33.46645
611.64        33.87125
612.07        34.21497
612.50        34.39249
612.94        34.64234
613.37        34.90953
613.80        34.97993
614.23        34.93206
614.66        35.16028
615.09        35.65363
615.52        35.99273
615.96         36.1211
616.39        36.37377
616.82        36.78005
617.25        36.63815
617.68        36.85557
618.11        37.07026
618.54        37.47628
618.97         37.6711
619.40        37.67212
619.84        37.70748
620.27        37.78314
620.70        38.02806
621.13        38.33473
621.56        38.21156
621.99        37.76797
622.42        37.76682
622.85         38.1913
623.28        38.36409
623.71        38.32859
624.14        38.40966
624.57        38.66322
625.00        38.75048
625.43        38.65121
625.86        38.56727
626.29        38.57203
626.72        38.08451
627.15        38.22874
627.58        38.12434
628.01         38.0479
628.44        37.82114
628.87        37.47314
629.30        37.17428
629.73        36.94987
630.16         36.7487
630.59        36.56328
631.02        36.40113
631.45        36.24082
631.88        36.05485
632.31        35.82744
632.74        35.54717
633.17        35.21347
633.60        34.84315
634.03        34.44595
634.46        34.01714
634.89        33.57626
635.32        33.16442
635.75        32.79366
636.18        32.42217
636.61        32.05596
637.04        31.71804
637.47        31.40312
637.89        31.10168
638.32        30.78639
638.75        30.44547
639.18        30.08261
639.61        29.70879
640.04        29.35605
640.47        29.07114
640.90        28.86187
641.33        28.71377
641.76        28.60102
642.18        28.48405
642.61        28.34204
643.04        28.19094
643.47         28.0447
643.90        27.92512
644.33        27.84155
644.76        27.79098
645.18        27.76962
645.61        27.76584
646.04        27.78087
646.47        27.81833
646.90        27.89745
647.33        28.04033
647.75        28.23905
648.18         28.5157
648.61        28.84269
649.04        29.07877
649.47         29.1879
649.89        29.61206
650.32        29.61609
650.75         29.9453
651.18        30.36584
651.61        30.79521
652.03          31.212
652.46         31.6395
652.89        32.03765
653.32        32.36832
653.74        32.51851
654.17        32.73553
654.60        33.34507
655.03        33.79981
655.46        34.21158
655.88        34.47273
656.31        36.43962
656.74        39.40141
657.16        40.11635
657.59        40.75562
658.02          37.973
658.45         37.5269
658.87        36.97766
659.30        37.83527
659.73        37.80371
660.15         38.4994
660.58        38.24615
661.01         38.3851
661.44        38.64058
661.86        38.77815
662.29        38.80501
662.72        39.35978
663.14        39.63879
663.57        39.83092
664.00        39.78703
664.42        39.98235
664.85        40.44236
665.27        40.90919
665.70        41.27729
666.13        41.53414
666.55        41.65819
666.98        41.61122
667.41        41.46336
667.83        41.60133
668.26        41.62617
668.69        41.85471
669.11        42.12536
669.54        42.36597
669.96        42.55197
670.39        42.75396
670.82         42.9711
671.24        43.06355
671.67        43.08624
672.09        43.28229
672.52        43.61918
672.94        43.82596
673.37        43.88691
673.80        43.90787
674.22        43.93043
674.65        44.02868
675.07         44.1163
675.50         44.2586
675.92        44.39878
676.35         44.5028
676.77        44.56363
677.20         44.5934
677.62        44.62529
678.05         44.7064
678.47        44.84615
678.90         45.0326
679.32        45.23175
679.75         45.3925
680.17        45.49218
680.60        45.56227
681.02        45.63149
681.45        45.67185
681.87         45.7194
682.30        45.93716
682.72        46.26184
683.15        46.29812
683.57        46.10853
684.00        46.15469
684.42         46.4454
684.85        46.64429
685.27        46.74942
685.70        46.93303
686.12        47.13359
686.54        47.29047
686.97        47.41401
687.39         47.0675
687.82        47.12492
688.24        47.07971
688.66        47.17835
689.09        47.25427
689.51        47.30107
689.94        47.38354
690.36        47.49285
690.78        47.53758
691.21        47.57804
691.63        47.72326
692.06        48.16257
692.48        48.34429
692.90        48.32055
693.33        48.31777
693.75         48.3316
694.17        48.24762
694.60        48.13782
695.02        48.02795
695.44         48.0027
695.87        48.46109
696.29        49.19535
696.71        49.26625
697.14        48.77524
697.56        48.63562
697.98         48.8638
698.41        49.35975
698.83         49.1302
699.25        49.39278
699.68        49.75125
700.10        49.89869
700.52        49.77676
700.94        49.50676
701.37        49.24033
701.79        49.19917
702.21        49.43074
702.64        49.84127
703.06        50.31074
703.48        50.63297
703.90         50.7467
704.33        50.72293
704.75        50.61842
705.17        50.51887
705.59        50.46648
706.01        50.42709
706.44        50.44112
706.86        50.58499
707.28        50.84698
707.70         51.2264
708.12        51.62227
708.55        51.81841
708.97         51.8035
709.39        51.71872
709.81        51.63354
710.23        51.58805
710.66        51.61685
711.08         51.7512
711.50        51.91728
711.92        51.98741
712.34        51.94331
712.76        51.83564
713.19        51.71732
713.61        51.70878
714.03         51.8275
714.45        52.00589
714.87        52.25663
715.29        52.49179
715.71        52.69945
716.13        52.87856
716.56        53.00494
716.98        53.10939
717.40        53.16604
717.82        53.17724
718.24        53.13058
718.66         53.0099
719.08        52.83875
719.50        52.64404
719.92        52.49055
720.34        52.49159
720.76        52.66611
721.19        52.87415
721.61        53.23973
722.03        53.55903
722.45        53.82895
722.87        54.05402
723.29         54.1815
723.71         54.1317
724.13        53.90878
724.55        53.54996
724.97        53.17162
725.39        52.96914
725.81        52.99527
726.23        53.18559
726.65        53.45572
727.07        53.77968
727.49        53.91603
727.91        54.05281
728.33         54.1621
728.75        54.29787
729.17        54.46667
729.59        54.64282
730.01        54.79352
730.43        54.85436
730.85        54.82596
731.27        54.77377
731.69        54.71845
732.10        54.64784
732.52         54.5748
732.94        54.53433
733.36         54.5447
733.78        54.51563
734.20        54.43608
734.62        54.52178
735.04        54.83331
735.46        54.47825
735.88        55.00936
736.30        55.13967
736.72          55.325
737.13        55.48549
737.55        55.55552
737.97        55.72995
738.39        55.90598
738.81        55.50361
739.23        54.74551
739.65        54.80376
740.06        55.54704
740.48        55.85428
740.90        55.65622
741.32        55.59858
741.74        55.73124
742.16        55.80705
742.57        55.83059
742.99        55.85641
743.41        55.86636
743.83        55.81831
744.25        55.71329
744.67        55.55314
745.08        55.41391
745.50        55.40127
745.92        55.53984
746.34        55.79126
746.75        56.05833
747.17        56.16801
747.59        56.08815
748.01        55.88599
748.42        55.65668
748.84        55.52497
749.26        55.54492
749.68        55.72367
750.09          55.982
750.51        56.14504
750.93        56.16536
751.35        56.11097
751.76        55.99351
752.18        55.83165
752.60        55.62992
753.01        55.42715
753.43        55.27597
753.85        55.16724
754.27        55.10469
754.68        55.59312
755.10        55.68139
755.52         55.9499
755.93        56.08023
756.35        56.08422
756.77        56.07704
757.18         56.1499
757.60        56.33715
758.02        56.88756
758.43          57.508
758.85        57.01862
759.26        56.44051
759.68        55.72102
760.10        55.67572
760.51         56.6875
760.93        57.17099
761.34        56.94349
761.76        56.71193
762.18        56.46164
762.59        56.64378
763.01        56.82628
763.42        56.98809
763.84        57.17732
764.26        57.31862
764.67        57.03621
765.09        56.56017
765.50        56.65036
765.92         57.2115
766.33        57.33042
766.75        56.90593
767.16        56.64038
767.58        56.57563
768.00        56.28989
768.41        55.98265
768.83        56.30812
769.24        57.04813
769.66        57.52602
770.07        57.57801
770.49        56.94262
770.90        56.02242
771.32        56.38971
771.73        57.81511
772.15        58.29194
772.56        57.70466
772.97        57.20548
773.39        56.99714
773.80        56.89761
774.22        56.91975
774.63        57.05884
775.05        57.18597
775.46        57.25333
775.88        57.20141
776.29        57.02448
776.70        56.81513
777.12        56.78703
777.53         56.9836
777.95        57.28846
778.36         57.6232
778.77        57.83171
779.19        57.88598
779.60        57.86467
780.02        57.76751
780.43        57.67678
780.84        57.65324
781.26        57.37627
781.67        57.02703
782.09        57.59035
782.50        58.80254
782.91        58.84095
783.33        58.28535
783.74        57.99876
784.15        58.17575
784.57        58.14149
784.98        57.91942
785.39        57.57394
785.81        57.28556
786.22        57.73881
786.63        58.71045
787.04        59.09127
787.46         58.8269
787.87        58.59361
788.28        58.53708
788.70        58.49365
789.11        58.48359
789.52        58.69098
789.93        58.99313
790.35         58.9532
790.76        58.61567
791.17        58.46184
791.58        58.55051
792.00        58.50454
792.41        58.33232
792.82        58.49077
793.23        58.86188
793.65        58.56004
794.06        57.82851
794.47         58.0312
794.88        58.98828
795.29        59.33009
795.71        58.96193
796.12        58.76898
796.53        58.80793
796.94        58.53935
797.35        58.10766
797.76        58.24354
798.18        58.83293
798.59        59.11749
799.00        59.00782
799.41         58.9103
799.82        58.90173
800.23        58.93098
800.64        59.01437
801.06        59.12327
801.47        59.23247
801.88         59.2286
802.29        59.08572
802.70        58.83702
803.11        58.54392
803.52        58.30704
803.93        58.18203
804.34        58.16072
804.75        58.22573
805.17        58.40442
805.58        58.72196
805.99        58.91721
806.40        59.02658
806.81        59.66392
807.22        60.55144
807.63        60.40379
808.04        59.38995
808.45        58.90849
808.86        59.08061
809.27        59.16142
809.68        59.05941
810.09        58.98101
810.50        58.91448
810.91        58.81581
811.32         58.7748
811.73        58.92764
812.14        59.28655
812.55        59.80273
812.96        60.32562
813.37        60.57629
813.78        60.47476
814.19        60.11095
814.60        59.61782
815.01        59.25152
815.42        58.94397
815.83        58.73926
816.24        58.62537
816.65        58.64937
817.05        58.81305
817.46        59.09506
817.87        59.40324
818.28        59.54043
818.69        59.46793
819.10        59.21415
819.51        58.92455
819.92        58.87593
820.33        59.13138
820.74        59.59406
821.14        60.08204
821.55        60.30118
821.96         60.1814
822.37        59.82482
822.78         59.3638
823.19        59.02111
823.60        58.88114
824.00        58.89695
824.41        58.99784
824.82        59.15211
825.23         59.3173
825.64        59.50811
826.04        59.68305
826.45        59.73697
826.86        59.66401
827.27        59.48186
827.68         59.2352
828.08        59.06018
828.49        58.94216
828.90        58.81862
829.31        58.73693
829.72        58.81696
830.12        59.08171
830.53        59.43994
830.94         59.7665
831.35        59.81755
831.75        59.55508
832.16        59.03496
832.57        58.46962
832.97        58.18284
833.38        58.25577
833.79        58.57349
834.20        59.01322
834.60        59.37567
835.01        59.59625
835.42        59.77356
835.82        59.90521
836.23        59.91719
836.64        59.84072
837.04        59.65227
837.45        59.52166
837.86        59.79082
838.26        60.52327
838.67        61.58198
839.08        62.60663
839.48        62.91216
839.89         62.3302
840.29        61.11142
840.70        59.79361
841.11         58.9883
841.51        58.85966
841.92        59.21805
842.33        59.86043
842.73           60.42
843.14        60.66492
843.54        60.75272
843.95        60.77609
844.35         60.9281
844.76        61.23105
845.17        61.58282
845.57        61.87797
845.98        61.94392
846.38         61.7594
846.79        61.38787
847.19        60.93091
847.60         60.5255
848.00        60.23396
848.41        60.00361
848.81        59.84632
849.22        59.70168
849.62        59.59331
850.03        59.55206
850.43        59.56375
850.84        59.53509
851.24        59.49038
851.65        59.38192
852.05        59.38749
852.46        59.72352
852.86        60.39095
853.27        61.26933
853.67        62.03199
854.07        62.34186
854.48        62.12718
854.88        61.51508
855.29        60.69012
855.69        60.11166
856.10         59.8838
856.50        59.96378
856.90        60.17861
857.31          60.242
857.71        60.11198
858.12        59.82592
858.52        59.53236
858.92          59.366
859.33         59.3569
859.73        59.49139
860.13        59.63189
860.54        59.58399
860.94        59.34472
861.34        58.96478
861.75        58.60691
862.15        58.57047
862.55        58.89481
862.96        59.44604
863.36        60.06575
863.76        60.41449
864.17        60.37585
864.57        60.08531
864.97        59.60796
865.38        59.05426
865.78        58.52032
866.18        57.97879
866.58         57.5496
866.99        57.44313
867.39        57.71115
867.79        58.28458
868.19        58.98532
868.60        59.51259
869.00        59.80448
869.40        59.89581
869.80        59.84246
870.21        59.77286
870.61         59.7889
871.01         59.8064
871.41         59.7603
871.81        59.56085
872.22        59.19654
872.62        58.70941
873.02        58.22883
873.42        57.95941
873.82        57.95103
874.22        58.13676
874.63        58.35806
875.03        58.37965
875.43         58.1353
875.83        57.71559
876.23        57.25008
876.63        56.93971
877.03        56.84815
877.44        56.88269
877.84        57.01839
878.24        57.25014
878.64        57.49093
879.04        57.57353
879.44        57.55878
879.84        57.67695
880.24        57.92733
880.64        58.18542
881.04        58.31292
881.44        58.13436
881.84         57.6321
882.24        56.89607
882.65         56.1424
883.05        55.69192
883.45        55.63546
883.85        55.90046
884.25         56.3472
884.65        56.72145
885.05        56.92877
885.45        57.02457
885.85         57.0832
886.25        57.22646
886.65        57.47921
887.05        57.78348
887.45        58.04906
887.85        58.14298
888.25        58.03431
888.65         57.7734
889.04         57.4613
889.44        57.27719
889.84        57.24779
890.24        57.31778
890.64        57.39976
891.04        57.35056
891.44        57.14032
891.84        56.84074
892.24        56.51046
892.64        56.22248
893.04         56.0176
893.44        55.89068
893.83        55.88386
894.23        56.01756
894.63        56.30144
895.03        56.70071
895.43        57.17377
895.83        57.65343
896.23        58.08464
896.63        58.44493
897.02        58.65505
897.42        58.63377
897.82        58.37855
898.22        57.94675
898.62        57.43787
899.01        56.99356
899.41        56.67888
899.81        56.46172
900.21        56.35188
900.61        56.35121
901.00        56.44296
901.40        56.62599
901.80        56.82325
902.20        56.90324
902.59        56.84776
902.99         56.6801
903.39        56.48414
903.79        56.40541
904.18        56.46467
904.58         56.6034
904.98         56.7847
905.38        56.95927
905.77        57.10954
906.17        57.28725
906.57        57.40166
906.96        57.30476
907.36        56.97971
907.76        56.47522
908.15        56.06415
908.55        56.15867
908.95        56.83212
909.34        57.96701
909.74        59.14229
910.14        59.73421
910.53        59.55332
910.93        58.79942
911.33        57.80588
911.72        57.09249
912.12        56.85934
912.52        56.95111
912.91        57.17247
913.31        57.23555
913.70        57.07395
914.10        56.77568
914.49        56.54057
914.89        56.61823
915.29        57.07624
915.68        57.80352
916.08        58.52564
916.47         58.8546
916.87        58.70355
917.26        58.18739
917.66        57.57946
918.05        57.17163
918.45        57.05502
918.84        57.17845
919.24        57.40408
919.64        57.61655
920.03        57.76883
920.42        57.86422
920.82        57.98283
921.21        58.18987
921.61        58.47957
922.00        58.85001
922.40        59.14069
922.79        59.21593
923.19        59.02095
923.58        58.62521
923.98        58.21308
924.37        58.00303
924.77        58.05441
925.16        58.27807
925.55        58.54484
925.95        58.60803
926.34        58.41658
926.74        58.03857
927.13        57.57285
927.52        57.11205
927.92        56.74746
928.31        56.44133
928.70        56.23975
929.10         56.1869
929.49        56.26276
929.89         56.4088
930.28         56.6555
930.67        56.95058
931.07         57.2297
931.46        57.55355
931.85        57.73501
932.24        57.52518
932.64        56.95299
933.03        56.09615
933.42        55.32356
933.82        55.15984
934.21        55.69759
934.60        56.81136
934.99        58.13808
935.39        59.00726
935.78        59.23772
936.17         58.9335
936.56        58.37344
936.96        58.00555
937.35        57.95613
937.74        58.08166
938.13        58.19255
938.53        58.02849
938.92        57.54525
939.31        56.88236
939.70        56.21211
940.09        55.74284
940.49         55.5014
940.88        55.44652
941.27        55.52047
941.66        55.61052
942.05        55.68417
942.44        55.80633
942.84        55.97932
943.23        56.18878
943.62        56.43269
944.01        56.64381
944.40        56.89656
944.79        57.34418
945.18        57.96263
945.57        58.67467
945.97        59.15918
946.36        58.97754
946.75        58.04539
947.14        56.62132
947.53        55.09825
947.92        54.01453
948.31        53.52125
948.70        53.47417
949.09        53.80835
949.48        54.38975
949.87        55.10817
950.26        55.97941
950.65        56.81878
951.04        57.32109
951.43        57.40432
951.82        57.10173
952.21        56.58985
952.60         56.2047
952.99        56.05899
953.38        56.08737
953.77        56.20386
954.16        56.25936
954.55        56.19899
954.94        56.05751
955.33         55.8985
955.72        55.81525
956.11        55.82899
956.50        55.91963
956.89        55.93148
957.28        55.62184
957.66        54.96161
958.05        54.07919
958.44        53.26289
958.83        52.92122
959.22        53.11073
959.61        53.70847
960.00        54.41638
960.39        54.68076
960.78        54.34675
961.16        53.60555
961.55        52.77405
961.94        52.25108
962.33        52.15289
962.72        52.37364
963.11        52.81736
963.49        53.31586
963.88        53.70438
964.27        54.01103
964.66        54.28715
965.04        54.65126
965.43        55.06767
965.82        55.50947
966.21        55.75151
966.60        55.41913
966.98        54.46703
967.37        53.14685
967.76        51.87039
968.15        51.11646
968.53        50.97595
968.92        51.33934
969.31        51.97404
969.69         52.4078
970.08        52.40303
970.47        52.08978
970.86        51.76332
971.24        51.86044
971.63        52.46853
972.02        53.47098
972.40        54.52884
972.79        54.78819
973.17        54.11741
973.56        52.85312
973.95        51.59756
974.33        51.12768
974.72        51.58898
975.11        52.69832
975.49          54.159
975.88        55.31999
976.26        55.91154
976.65        56.07895
977.04         55.8194
977.42        55.11398
977.81        54.02726
978.19        52.56227
978.58        51.21282
978.96        50.73679
979.35        51.28354
979.74        52.70975
980.12        54.51276
980.51        55.51675
980.89        55.49031
981.28         54.7297
981.66        53.78261
982.05        53.42951
982.43         53.8703
982.82        54.81266
983.20        56.08366
983.59        57.28927
983.97        58.27303
984.35        59.13701
984.74        59.63447
985.12        59.58522
985.51        58.94503
985.89        57.80366
986.28        56.62634
986.66        56.04736
987.04        56.26586
987.43        57.11918
987.81        58.26176
988.20        58.89897
988.58        58.77244
988.96        58.03675
989.35        57.05521
989.73        56.36314
990.12         56.0815
990.50        56.10867
990.88        56.12592
991.27        55.62706
991.65        54.55756
992.03        53.15954
992.42        52.00124
992.80        51.82777
993.18         52.7686
993.56        54.61831
993.95        56.70905
994.33         57.8978
994.71        57.68679
995.10        56.49857
995.48        54.98306
995.86        54.19313
996.24        54.39057
996.63        55.14959
997.01        56.29371
997.39        57.15555
997.77        57.41142
998.15        57.38495
998.54        57.02087
998.92        56.08356
999.30        54.75353
999.68        53.14581
1000.06         51.8995
1000.45        51.93818
1000.83        53.48349
1001.21        56.30804
1001.59        59.79882
1001.97        62.30507
1002.35        63.06674
1002.73        62.57899
1003.12        61.36837
1003.50        60.00595
1003.88        58.82224
1004.26        57.43331
1004.64        56.42226
1005.02        56.97437
1005.40        59.27126
1005.78         63.0805
1006.16        66.69024
1006.54        67.36783
1006.92        64.76985
1007.30        59.85684
1007.69        54.73502
1008.07        52.26868
1008.45        53.28874
1008.83        57.12949
1009.21        62.45845
1009.59         65.9474
1009.97        65.93363
1010.35        63.36942
1010.73        59.60947
1011.11        56.58204
1011.49        54.90819
1011.86         54.0388
1012.24        53.60009
1012.62          53.124
1013.00        52.45216
1013.38        51.74429
1013.76        51.36331
1014.14        51.95191
1014.52        53.61968
1014.90        55.96917
1015.28        58.06963
1015.66        58.80545
1016.04        57.99231
1016.41         55.8816
1016.79        53.20184
1017.17        51.40753
1017.55        50.99047
1017.93        51.59822
1018.31        52.47816
1018.69        52.48453
1019.06        51.33981
1019.44        49.34322
1019.82        47.17424
1020.20        46.39704
1020.58         47.5339
1020.95        49.81472
1021.33        52.30075
1021.71        53.95719
1022.09        54.65766
1022.46        54.80242
1022.84        54.43902
1023.22        53.74942
1023.60        52.97243
1023.97         51.9108
1024.35        51.22062
1024.73        51.47342
