SpectraSmart Spectrum 2.9.0.0
--------- Device Information -----------
Spectrum Name :  反射率_0
Saving Time :  2024/04/26 22:57:13
Spectro-Module Model Name : SE2030-DUVN
Spectro-Module Serial Number : OS361AC55029948
Wavelength Start : 200
Wavelength End : 1025
Wavelength Unit : Wavelength(nm)
Spectrum Unit : Reflectance(%)
-----------Spectrum Setting ------------
Integration Time : 20ms
Average : 10
Boxcar : 0
Background removal :  enabled
linearity correction :  enabled
SC :  disabled
Intensity correction :  disabled
DWT denoise :  enabled
savitzky-golay :  disabled
FFT :  disabled
Running average :  disabled
Kalman :  disabled
High pass :  disabled
---------------BEGIN--------------------
Wavelength(nm)             Reflectance(%)
200.29               0
200.75        36.80674
201.21        37.92808
201.67        38.73101
202.13        37.98166
202.58        35.38976
203.04         31.4316
203.50        26.64462
203.96        23.28265
204.42        23.22185
204.88        26.15257
205.34        31.01902
205.80         35.2494
206.26        37.40775
206.72        37.90472
207.18        37.02157
207.64        34.89498
208.10        31.39705
208.55        25.80493
209.01         17.6269
209.47        11.43586
209.93         11.1855
210.39        14.75299
210.85        18.57347
211.31        20.88501
211.77        22.15114
212.23        23.20118
212.69        26.26307
213.14         40.5922
213.60        55.39481
214.06        57.25412
214.52        53.95587
214.98        50.45869
215.44        46.82928
215.90        42.05658
216.36        37.63857
216.81        36.07669
217.27        38.59581
217.73        46.29604
218.19        57.48188
218.65        60.87312
219.11        53.07058
219.57        41.95847
220.02        35.02922
220.48        36.02942
220.94        44.52636
221.40         61.3839
221.86        86.20582
222.32        103.1627
222.77        97.99975
223.23        81.14736
223.69         64.0854
224.15        53.33026
224.61        47.98723
225.06         45.0633
225.52        43.99448
225.98        44.22591
226.44        45.36964
226.90        47.64253
227.36        50.15957
227.81        51.19997
228.27         50.6074
228.73        48.81382
229.19        47.15756
229.65        47.29529
230.10        49.25526
230.56        52.44851
231.02        55.54754
231.48        56.44862
231.93         54.8254
232.39        51.89888
232.85        48.93159
233.31        47.54885
233.77         47.9358
234.22        49.51122
234.68        51.52917
235.14        52.96197
235.60        53.44505
236.05         53.3064
236.51        52.69922
236.97        51.99712
237.43        51.42513
237.88         50.9065
238.34        50.40907
238.80        50.12535
239.26        50.13501
239.71        50.77334
240.17        51.93049
240.63        53.65283
241.08        55.94183
241.54        58.28257
242.00        60.94685
242.46        64.80123
242.91        70.87334
243.37        79.55532
243.83        90.25307
244.28        95.77235
244.74        88.13745
245.20        70.63103
245.66        53.29319
246.11        42.67543
246.57         38.4976
247.03        37.80584
247.48        40.53103
247.94        45.61951
248.40        50.75795
248.85        55.21134
249.31        57.66674
249.77        56.60629
250.22        51.84819
250.68        42.66804
251.14        30.66004
251.59        23.63502
252.05        26.67726
252.51        37.13783
252.96           47.52
253.42        50.88947
253.88         48.1295
254.33        42.27072
254.79        38.53114
255.25          41.547
255.70        50.73167
256.16        63.68844
256.62        75.01772
257.07        76.64497
257.53        70.35688
257.99        61.48243
258.44        54.04842
258.90        51.19892
259.35        51.66687
259.81        53.96484
260.27        56.37022
260.72        56.86976
261.18        55.59145
261.63        53.32183
262.09         51.2378
262.55        50.06435
263.00        49.71837
263.46        49.91027
263.91        50.03572
264.37        49.64676
264.83        48.67712
265.28         47.3432
265.74        46.15315
266.19        45.43745
266.65         45.2873
267.11        45.45689
267.56        45.65318
268.02        45.42697
268.47        44.67747
268.93         43.6029
269.38        42.39546
269.84        41.39655
270.30        40.68239
270.75        40.12922
271.21        39.70016
271.66        39.28592
272.12        38.84357
272.57        38.38926
273.03        37.87199
273.48        37.19128
273.94        36.39626
274.39        35.49227
274.85        34.63065
275.31        33.89362
275.76         33.2774
276.22        32.78352
276.67        32.34797
277.13        31.95979
277.58        31.55807
278.04         31.1819
278.49        30.75366
278.95        30.27484
279.40        29.70341
279.86        29.10675
280.31        28.49757
280.77        27.99469
281.22        27.57719
281.68        27.27102
282.13        26.99352
282.59        26.70709
283.04        26.37276
283.50        26.02025
283.95        25.69381
284.41        25.48309
284.86        25.39369
285.32        25.40303
285.77        25.41566
286.22        25.35387
286.68        25.20265
287.13        24.96461
287.59        24.70135
288.04        24.46574
288.50        24.29764
288.95        24.15443
289.41        24.03021
289.86        23.85638
290.32        23.65692
290.77        23.45092
291.22        23.28649
291.68        23.21623
292.13        23.24738
292.59         23.3788
293.04        23.60052
293.50         23.9173
293.95        24.30774
294.40        24.76231
294.86        25.25729
295.31        25.74953
295.77        26.22993
296.22        26.69703
296.68          27.154
297.13        27.59644
297.58        28.03864
298.04        28.48861
298.49        28.97097
298.95          29.539
299.40        30.18906
299.85        30.90166
300.31        31.63664
300.76        32.32166
301.21        32.93616
301.67        33.50592
302.12        34.02076
302.58        34.52717
303.03        35.00857
303.48        35.46922
303.94        35.91756
304.39        36.33417
304.84        36.72869
305.30        37.11546
305.75        37.47075
306.20        37.81262
306.66        38.14867
307.11        38.45737
307.57        38.73647
308.02        38.93113
308.47        39.04892
308.93        39.11332
309.38        39.14742
309.83        39.23948
310.29        39.40327
310.74        39.60587
311.19         39.7888
311.65           39.85
312.10        39.76042
312.55        39.55322
313.00        39.29769
313.46        39.09571
313.91        38.95923
314.36        38.87021
314.82        38.77482
315.27        38.59923
315.72         38.3256
316.18        37.99472
316.63        37.65362
317.08        37.38705
317.53        37.21194
317.99        37.09504
318.44          36.992
318.89        36.82151
319.35        36.55989
319.80        36.22672
320.25        35.86467
320.70        35.54156
321.16        35.27382
321.61        35.05946
322.06        34.84524
322.51         34.5486
322.97         34.1526
323.42        33.68766
323.87        33.24697
324.32        32.98475
324.78        32.91389
325.23        33.00105
325.68        33.08975
326.13        32.92484
326.59        32.44774
327.04         31.7573
327.49        31.01091
327.94        30.45537
328.39         30.1513
328.85        30.00995
329.30        29.97218
329.75        29.87266
330.20        29.65564
330.66        29.37385
331.11        29.06689
331.56         28.7653
332.01        28.48537
332.46        28.19953
332.92        27.90954
333.37        27.68006
333.82        27.50392
334.27        27.37316
334.72        27.25341
335.17        27.07838
335.63        26.83048
336.08        26.55091
336.53        26.25745
336.98        25.99006
337.43        25.76661
337.88        25.56767
338.34        25.41987
338.79        25.39394
339.24         25.4814
339.69        25.66502
340.14        25.84069
340.59        25.84019
341.05        25.63754
341.50        25.27666
341.95        24.88305
342.40        24.65341
342.85        24.63287
343.30        24.76053
343.75        24.93373
344.20        24.98615
344.66        24.87299
345.11        24.64437
345.56        24.37459
346.01        24.17787
346.46        24.09008
346.91        24.07955
347.36        24.08967
347.81        24.03856
348.26        23.90671
348.72        23.71896
349.17        23.53958
349.62        23.47727
350.07        23.54968
350.52        23.72466
350.97        23.88982
351.42        23.86924
351.87         23.6319
352.32        23.23467
352.77        22.82565
353.22        22.62291
353.67        22.66565
354.13        22.88892
354.58        23.14104
355.03        23.17291
355.48        22.92874
355.93        22.49905
356.38        22.03908
356.83        21.77848
357.28         21.7646
357.73        21.91202
358.18        22.10882
358.63         22.1754
359.08        22.05815
359.53        21.82328
359.98        21.52456
360.43        21.23711
360.88        20.98733
361.33        20.74314
361.78        20.51501
362.23         20.3271
362.68        20.18145
363.13        20.08497
363.58        19.99469
364.03        19.83383
364.48        19.59046
364.93        19.28431
365.38        18.98249
365.83        18.79932
366.28        18.75702
366.73        18.81408
367.18        18.89455
367.63        18.87867
368.08        18.73766
368.53         18.5138
368.98         18.2546
369.43        18.03632
369.88        17.88295
370.33        17.76337
370.78        17.67307
371.23        17.60728
371.68        17.55632
372.13         17.5291
372.58        17.48782
373.03        17.36674
373.48        17.15895
373.93        16.88356
374.38        16.60649
374.83         16.4381
375.28        16.40002
375.72        16.44855
376.17        16.52916
376.62         16.5369
377.07        16.44676
377.52        16.29357
377.97        16.11011
378.42        15.95209
378.87        15.84059
379.32        15.75408
379.77        15.69149
380.22        15.65266
380.67         15.6292
381.11        15.62675
381.56        15.61203
382.01        15.54286
382.46        15.41639
382.91        15.25363
383.36        15.08922
383.81        14.96966
384.26        14.90439
384.71        14.87968
385.15        14.88285
385.60        14.89664
386.05        14.90848
386.50        14.91906
386.95        14.92274
387.40        14.91172
387.85        14.88424
388.29        14.83287
388.74        14.77441
389.19        14.69949
389.64        14.60977
390.09         14.5061
390.54        14.40379
390.98        14.32474
391.43        14.28329
391.88        14.27137
392.33        14.26789
392.78        14.24068
393.23        14.18503
393.67        14.10528
394.12        14.03425
394.57        13.99245
395.02        13.98247
395.47        13.98788
395.91         13.9982
396.36        13.98714
396.81        13.95668
397.26        13.92154
397.71        13.87597
398.15        13.81852
398.60        13.77142
399.05        13.67899
399.50        13.58418
399.95        13.65008
400.39        13.83816
400.84        13.88838
401.29        13.78918
401.74        13.74003
402.18         13.7451
402.63        13.67144
403.08        13.55004
403.53        13.49329
403.97        13.51365
404.42        13.58019
404.87        13.65268
405.32        13.66447
405.76        13.59914
406.21        13.48746
406.66        13.37041
407.11        13.31215
407.55        13.33142
408.00        13.40098
408.45        13.48747
408.90        13.52493
409.34        13.49308
409.79        13.41744
410.24        13.32897
410.68        13.26621
411.13        13.24331
411.58        13.24428
412.03        13.25699
412.47        13.26326
412.92        13.25223
413.37        13.23772
413.81        13.22085
414.26        13.21238
414.71        13.21103
415.15        13.21499
415.60        13.22434
416.05        13.25119
416.49        13.29553
416.94        13.34987
417.39         13.3987
417.83         13.4181
418.28        13.40123
418.73        13.35183
419.17        13.28735
419.62        13.23704
420.07        13.21074
420.51        13.20176
420.96        13.19576
421.41         13.1664
421.85        13.10694
422.30        13.02551
422.74        12.94329
423.19        12.94987
423.64        13.03065
424.08        13.09278
424.53        13.11467
424.98        13.16468
425.42        13.24273
425.87        13.26453
426.31        13.24052
426.76        13.28714
427.21        13.37024
427.65        13.29933
428.10        13.11709
428.54        13.02826
428.99        13.05291
429.44        13.13055
429.88        13.21509
430.33         13.1823
430.77        13.06656
431.22        13.11686
431.66        13.31075
432.11         13.3838
432.56        13.32867
433.00         13.3209
433.45        13.32316
433.89        13.21191
434.34        13.07976
434.78        12.78642
435.23        13.05339
435.67         13.0879
436.12        13.07053
436.57        13.00904
437.01        12.92889
437.46        12.89429
437.90        12.90855
438.35        12.91572
438.79         12.9133
439.24        12.94307
439.68        13.00408
440.13        13.08129
440.57        13.15743
441.02        13.21683
441.46        13.24879
441.91        13.22169
442.35        13.14989
442.80        13.18364
443.24        13.27087
443.69        13.18513
444.13        12.96136
444.58        12.86072
445.02        12.89614
445.47         12.9349
445.91        12.95521
446.36        12.98443
446.80        13.01031
447.24        13.02448
447.69        13.03107
448.13        13.03078
448.58         13.0278
449.02        13.02056
449.47        13.00784
449.91        12.98244
450.36        12.94911
450.80        12.90928
451.25        12.87963
451.69        12.87713
452.13        12.90476
452.58        12.95374
453.02        13.00418
453.47        13.02636
453.91        13.01227
454.36        12.97213
454.80        12.91595
455.24        12.85938
455.69        12.81348
456.13        12.76545
456.58        12.72937
457.02        12.70542
457.46        12.69808
457.91        12.70574
458.35        12.70753
458.79        12.67169
459.24        12.60609
459.68        12.51473
460.13        12.43432
460.57        12.38718
461.01        12.38912
461.46        12.41843
461.90        12.47192
462.34        12.53167
462.79        12.58428
463.23        12.64002
463.68        12.67318
464.12        12.65123
464.56        12.57165
465.01        12.46214
465.45         12.3482
465.89        12.29979
466.34        12.32476
466.78         12.4011
467.22        12.49718
467.67         12.5438
468.11        12.52843
468.55        12.46678
468.99        12.38908
469.44        12.34239
469.88        12.34103
470.32         12.3683
470.77        12.40924
471.21         12.4433
471.65        12.46077
472.10        12.47194
472.54        12.47486
472.98        12.47061
473.42          12.461
473.87        12.44775
474.31        12.42965
474.75        12.41884
475.20         12.4205
475.64        12.42814
476.08        12.44023
476.52        12.44613
476.97        12.44471
477.41        12.44615
477.85         12.4585
478.29        12.47626
478.74        12.51002
479.18        12.58634
479.62        12.68797
480.06        12.76529
480.50         12.8141
480.95         12.8445
481.39         12.8482
481.83        12.93662
482.27        12.91992
482.72        12.95203
483.16        13.00098
483.60        13.05072
484.04        13.07856
484.48         13.2576
484.93        13.57865
485.37        13.43104
485.81        13.27897
486.25        13.74834
486.69        13.46171
487.14        13.65545
487.58        14.25771
488.02        13.97681
488.46        13.91203
488.90        14.08076
489.34        13.98994
489.79        14.20094
490.23        14.28506
490.67        14.50967
491.11        14.75669
491.55        14.80847
491.99        14.71292
492.43        14.73684
492.88        14.90455
493.32        15.05516
493.76        15.16645
494.20        15.28984
494.64        15.42515
495.08        15.52739
495.52          15.605
495.96        15.77427
496.41        16.00412
496.85        16.05033
497.29        15.94591
497.73        16.11718
498.17        16.33065
498.61         16.4812
499.05        16.49327
499.49         16.5548
499.93        16.64031
500.37         16.8274
500.82        17.06773
501.26        17.23604
501.70        17.31359
502.14        17.37262
502.58         17.4437
503.02        17.53998
503.46        17.66981
503.90        17.82961
504.34        17.98408
504.78        18.07494
505.22        18.09032
505.66        18.04848
506.10        17.99571
506.54        18.00482
506.98         18.0937
507.42        18.24278
507.86         18.4091
508.30        18.52149
508.74        18.56154
509.18         18.5505
509.62        18.52912
510.06        18.56278
510.50        18.66607
510.94        18.81488
511.38         18.9698
511.82        19.06953
512.26        19.09829
512.70         19.0773
513.14        19.03719
513.58        19.02619
514.02        19.05917
514.46        19.12071
514.90        19.19276
515.34        19.24761
515.78        19.27553
516.22        19.28473
516.66        19.28467
517.10        19.28887
517.54         19.3009
517.98        19.31605
518.42        19.32338
518.86        19.30706
519.30        19.26602
519.74        19.20779
520.18        19.15065
520.62        19.12173
521.06        19.12632
521.50        19.15565
521.93        19.19279
522.37        19.20232
522.81        19.17796
523.25        19.12906
523.69        19.06861
524.13        19.01749
524.57        18.97988
525.01        18.94548
525.45         18.9087
525.89        18.86158
526.32        18.80007
526.76        18.73603
527.20        18.66413
527.64        18.57595
528.08        18.47505
528.52        18.36636
528.96        18.27186
529.40        18.22522
529.83        18.23024
530.27        18.27508
530.71        18.32966
531.15        18.34822
531.59        18.31609
532.03        18.24103
532.46         18.1402
532.90        18.05527
533.34        17.99414
533.78        17.93969
534.22        17.87368
534.66        17.78963
535.09         17.6739
535.53         17.5001
535.97        17.31322
536.41        17.22525
536.85        17.25062
537.28        17.34033
537.72        17.45628
538.16        17.54874
538.60        17.59795
539.04        17.61752
539.47        17.62164
539.91        17.64509
540.35         17.6941
540.79         17.7582
541.22        17.83082
541.66        17.90983
542.10         17.9907
542.54        18.07735
542.97        18.16875
543.41        18.26855
543.85        18.37512
544.29         18.4893
544.72        18.60531
545.16        18.72855
545.60        18.85683
546.04        18.99204
546.47        19.14187
546.91          19.314
547.35        19.50431
547.79        19.70751
548.22        19.90811
548.66        20.07926
549.10        20.24141
549.53        20.39449
549.97        20.54822
550.41        20.67135
550.84        20.78866
551.28        20.95181
551.72        21.14553
552.15        21.36174
552.59        21.62074
553.03        21.60662
553.46        21.95417
553.90         22.0764
554.34        22.16239
554.77        22.21924
555.21        22.28513
555.65        22.40196
556.08        22.56824
556.52        22.75786
556.96        22.93272
557.39        23.09724
557.83        23.22386
558.27        23.19661
558.70        23.07111
559.14          23.075
559.57        23.21357
560.01        23.35229
560.45        23.46577
560.88        23.58991
561.32        23.72668
561.75        23.84229
562.19        23.94202
562.63        24.02842
563.06        24.09959
563.50        24.15876
563.93         24.1965
564.37        24.26207
564.80        24.37057
565.24         24.4527
565.68        24.45643
566.11        24.83699
566.55        24.70147
566.98        24.77873
567.42        24.85268
567.85        25.00502
568.29        25.23123
568.72        25.45903
569.16        25.69545
569.60        25.87028
570.03        26.07243
570.47        26.24591
570.90        26.43029
571.34        26.47246
571.77        26.73755
572.21        26.93647
572.64        27.13559
573.08        27.28623
573.51        27.41136
573.95        27.49213
574.38         27.6097
574.82        27.72661
575.25         27.7628
575.69          27.775
576.12        27.77898
576.56        27.68934
576.99        28.01449
577.42        27.95144
577.86        28.04745
578.29        28.26281
578.73        28.16006
579.16        28.04314
579.60         27.7197
580.03        27.69539
580.47        27.64583
580.90        27.62193
581.33        27.61105
581.77        27.71655
582.20        27.16541
582.64        27.11097
583.07        27.08874
583.51        27.00323
583.94        26.84318
584.37        26.72182
584.81        26.64581
585.24        26.43566
585.68        26.21034
586.11        25.89507
586.54        26.10106
586.98        25.92493
587.41         25.7796
587.85        25.64133
588.28        25.50628
588.71         25.4251
589.15        25.43229
589.58        25.36639
590.01        25.44387
590.45         25.4575
590.88        25.52113
591.31        25.40172
591.75        25.21542
592.18        25.10468
592.61        25.07493
593.05        25.61715
593.48        25.74592
593.91        25.72729
594.35        25.80794
594.78        25.75814
595.21        25.78014
595.65        25.98301
596.08        26.39144
596.51        26.57188
596.94        26.45255
597.38        26.57807
597.81        26.94479
598.24        27.31568
598.68        27.54365
599.11        27.86235
599.54        28.51143
599.97        28.32818
600.41        28.97964
600.84        29.09093
601.27        29.54991
601.70        29.99108
602.14        30.48139
602.57        30.86192
603.00        31.18174
603.43        31.48747
603.87        32.14489
604.30        32.86596
604.73        33.02842
605.16        33.32088
605.60        33.73864
606.03        34.16349
606.46        34.63512
606.89        34.87144
607.32        35.79282
607.76        36.11226
608.19        36.66895
608.62        37.08747
609.05        37.55886
609.48        37.87005
609.92        38.58151
610.35        38.54268
610.78        38.63797
611.21        39.27875
611.64         39.4072
612.07        39.94962
612.50        40.27014
612.94        40.65537
613.37        41.01101
613.80        41.12437
614.23        41.10345
614.66        41.38896
615.09        41.97021
615.52        42.35424
615.96        42.49794
616.39        42.80128
616.82        43.29566
617.25        43.26226
617.68        43.66809
618.11        43.85272
618.54        44.11509
618.97        44.45007
619.40        44.80682
619.84         45.1009
620.27        44.95238
620.70        45.21127
621.13        45.65406
621.56        45.63366
621.99        45.21284
622.42        45.04099
622.85        45.20031
623.28        45.37664
623.71        45.48759
624.14        45.78846
624.57        45.64826
625.00        45.69681
625.43         45.7172
625.86        45.60769
626.29        45.42329
626.72        44.97178
627.15        45.01473
627.58        44.88324
628.01        44.74178
628.44        44.50027
628.87         44.1669
629.30        43.78809
629.73         43.3858
630.16        43.15803
630.59         42.7745
631.02        42.52685
631.45        42.30452
631.88        42.00943
632.31        41.60536
632.74        41.34657
633.17        40.92294
633.60        40.28878
634.03        39.81774
634.46        39.17252
634.89        38.52895
635.32        37.91854
635.75        37.38768
636.18        36.95165
636.61        36.58242
637.04        36.19512
637.47        35.76814
637.89        35.34237
638.32        34.91485
638.75        34.49884
639.18        34.10513
639.61        33.73255
640.04        33.38055
640.47        33.04485
640.90        32.72545
641.33        32.43155
641.76        32.16858
642.18        31.94908
642.61        31.77019
643.04        31.63126
643.47        31.54403
643.90        31.52614
644.33        31.57458
644.76        31.68323
645.18        31.81528
645.61        31.90335
646.04        31.94059
646.47        31.95014
646.90        31.98693
647.33        32.13328
647.75        32.39798
648.18        32.79057
648.61        33.28236
649.04        33.69813
649.47         33.9899
649.89        34.71692
650.32        34.96857
650.75        35.46499
651.18        35.94207
651.61        36.44384
652.03        36.99881
652.46        37.62449
652.89        38.29377
653.32        38.94352
653.74        39.64396
654.17         40.0543
654.60        40.42499
655.03        41.28216
655.46        41.88688
655.88         42.0398
656.31         43.9859
656.74        45.69039
657.16        47.46027
657.59        49.23665
658.02        46.56207
658.45        46.53691
658.87        46.45744
659.30        47.16917
659.73        47.84883
660.15        48.97901
660.58         48.4771
661.01        48.63659
661.44        49.02089
661.86        49.24422
662.29        49.30339
662.72        50.08533
663.14        50.53355
663.57        50.73606
664.00        50.55055
664.42        50.78575
664.85         51.4886
665.27        52.22987
665.70        52.82117
666.13        53.19608
666.55        53.30894
666.98        53.13507
667.41        52.81242
667.83        52.90184
668.26        52.91264
668.69        53.25569
669.11        53.70887
669.54         54.0826
669.96        54.31467
670.39        54.80181
670.82         54.9273
671.24        55.18921
671.67        55.40164
672.09        55.53878
672.52        55.62556
672.94        55.74613
673.37        55.90164
673.80        55.94288
674.22        55.91431
674.65        56.01238
675.07        56.23512
675.50        56.36315
675.92         56.3899
676.35        56.45502
676.77        56.56183
677.20        56.60991
677.62        56.63939
678.05        56.77655
678.47        57.01615
678.90        57.28158
679.32        57.50312
679.75        57.62865
680.17        57.63417
680.60        57.52315
681.02        57.39261
681.45        57.39003
681.87        57.56044
682.30        57.89935
682.72        58.28462
683.15        58.44095
683.57        58.40432
684.00        58.32686
684.42        58.24511
684.85        58.78844
685.27        58.66263
685.70        59.05468
686.12        59.46527
686.54         59.5927
686.97        59.44465
687.39        59.34991
687.82        59.34695
688.24         59.2969
688.66        59.20296
689.09        59.09084
689.51         59.0206
689.94        59.08434
690.36        59.29133
690.78          59.565
691.21        59.85748
691.63         60.0924
692.06        60.24215
692.48        60.39501
692.90        60.41774
693.33        60.35807
693.75        60.19219
694.17        59.90534
694.60        59.64604
695.02        59.64272
695.44        59.90432
695.87        60.44064
696.29        61.03652
696.71        60.98939
697.14        60.41883
697.56        60.24249
697.98        60.50931
698.41        60.65138
698.83        60.53516
699.25        60.72575
699.68        61.07601
700.10        61.23353
700.52        61.13481
700.94        60.89993
701.37        60.66777
701.79        60.66096
702.21        60.91968
702.64        61.34579
703.06        61.80381
703.48         62.0673
703.90        62.07383
704.33        61.88904
704.75        61.60838
705.17        61.40402
705.59        61.32355
706.01        61.26489
706.44        61.24147
706.86           61.35
707.28         61.5728
707.70        61.85796
708.12        62.15458
708.55        62.40104
708.97        62.56422
709.39        62.60309
709.81        62.54782
710.23        62.51833
710.66        62.53566
711.08        62.56292
711.50        62.56262
711.92        62.50926
712.34        62.40422
712.76        62.27752
713.19        62.15524
713.61         62.1122
714.03         62.1571
714.45        62.26606
714.87        62.43501
715.29        62.68348
715.71        62.99892
716.13         63.2664
716.56         63.5812
716.98        63.80439
717.40        63.93127
717.82        63.93337
718.24        63.81587
718.66        63.67133
719.08        63.49271
719.50        63.13739
719.92        62.72288
720.34        62.55778
720.76         62.6935
721.19        63.02254
721.61        63.48382
722.03        63.90437
722.45        64.20744
722.87        64.44572
723.29        64.56296
723.71        64.45503
724.13        64.13454
724.55        63.65578
724.97        63.15862
725.39        62.86304
725.81        62.83913
726.23        63.04068
726.65        63.37024
727.07        63.75726
727.49        63.90533
727.91        64.07977
728.33        64.22932
728.75        64.24561
729.17        64.35433
729.59        64.36778
730.01        64.35299
730.43        64.33615
730.85         64.3327
731.27        64.28363
731.69        64.21597
732.10        64.31161
732.52        64.51363
732.94        64.48923
733.36        64.27259
733.78        64.18042
734.20        64.24453
734.62        64.17635
735.04        64.54181
735.46        64.13934
735.88        64.44322
736.30        64.48835
736.72        64.72116
737.13        64.92483
737.55        65.02877
737.97        65.41558
738.39        65.88249
738.81        65.44994
739.23        64.38309
739.65        64.30244
740.06        65.11786
740.48        65.44375
740.90        65.21806
741.32        65.26665
741.74        65.59798
742.16        65.78395
742.57        65.79491
742.99        65.73313
743.41        65.62188
743.83        65.47708
744.25        65.32188
744.67        65.14412
745.08        64.99461
745.50        64.93824
745.92        64.98664
746.34        65.10881
746.75         65.2621
747.17        65.32172
747.59        65.26268
748.01        65.23983
748.42        65.24125
748.84        64.98935
749.26        64.63251
749.68        64.73116
750.09        65.21116
750.51        65.53029
750.93        65.57362
751.35        65.44737
751.76        65.19297
752.18        64.95982
752.60        64.77084
753.01        64.53881
753.43        64.29826
753.85        64.16088
754.27        64.14526
754.68        64.43223
755.10          64.601
755.52        64.87632
755.93        65.09937
756.35        65.27148
756.77        65.43652
757.18        65.56363
757.60        65.65372
758.02        65.93452
758.43        66.31215
758.85        65.73448
759.26        65.66729
759.68        65.12652
760.10        64.70268
760.51        64.96568
760.93        65.83486
761.34        65.69704
761.76        66.44393
762.18        66.33445
762.59        66.11768
763.01        65.94894
763.42        66.16064
763.84         66.3513
764.26        66.49715
764.67        66.45674
765.09        66.28305
765.50        66.19265
765.92        66.22142
766.33        66.08295
766.75        65.72297
767.16        65.73418
767.58        65.60054
768.00        65.55978
768.41         65.5248
768.83          65.857
769.24        66.34635
769.66        66.38619
770.07        66.01752
770.49        65.50291
770.90         65.0987
771.32        65.67194
771.73        66.59951
772.15        67.03385
772.56        66.77846
772.97         66.3316
773.39        65.93642
773.80         66.0954
774.22        66.68895
774.63        66.85046
775.05        66.51342
775.46         66.4513
775.88        66.65049
776.29        66.65121
776.70        66.48077
777.12        66.45816
777.53        66.61148
777.95        66.79482
778.36         66.9708
778.77        67.04418
779.19        67.01653
779.60        66.96466
780.02        66.86143
780.43        66.77722
780.84        66.77245
781.26        66.42044
781.67        65.96048
782.09        66.74297
782.50        68.32024
782.91        68.34833
783.33        67.01123
783.74        66.55593
784.15        67.07349
784.57        67.50829
784.98        67.68727
785.39        67.29464
785.81         66.6072
786.22        66.99333
786.63        68.23926
787.04        68.71362
787.46        68.32239
787.87        67.94234
788.28        67.77123
788.70        67.66573
789.11        67.64998
789.52        67.92358
789.93        68.30794
790.35        68.18603
790.76        67.66137
791.17        67.48646
791.58        67.71975
792.00        67.82558
792.41        67.74106
792.82        67.81335
793.23        67.96423
793.65        67.53918
794.06        66.81715
794.47        67.04735
794.88        68.02431
795.29        68.37619
795.71        67.99694
796.12        67.79848
796.53        67.85851
796.94        67.63334
797.35         67.2823
797.76        67.59367
798.18        68.39637
798.59        68.77808
799.00        68.62401
799.41        68.41505
799.82        68.26955
800.23        68.18327
800.64        68.19971
801.06        68.27496
801.47        68.39716
801.88        68.46331
802.29        68.43262
802.70        68.32553
803.11        68.16319
803.52        67.95937
803.93        67.75629
804.34        67.63569
804.75        67.59215
805.17        67.56779
805.58        67.68679
805.99        67.88613
806.40        68.19703
806.81        69.18539
807.22         70.4136
807.63        70.18488
808.04        68.74086
808.45        68.04571
808.86        68.26965
809.27        68.31783
809.68        68.09421
810.09        67.98335
810.50        67.97456
810.91        67.97266
811.32        68.02654
811.73        68.18369
812.14        68.43132
812.55        68.81052
812.96        69.19877
813.37         69.2023
813.78          68.844
814.19        68.57417
814.60        68.42963
815.01        68.14849
815.42        67.75172
815.83        67.41898
816.24        67.20367
816.65        67.09916
817.05        67.13723
817.46        67.31214
817.87        67.56355
818.28        67.74217
818.69         67.8119
819.10        67.77999
819.51        67.75552
819.92        67.94312
820.33        68.36945
820.74        68.94971
821.14        69.48756
821.55        69.67471
821.96        69.45125
822.37        68.91903
822.78        68.27974
823.19        67.87558
823.60        67.81998
824.00        68.04951
824.41        68.39364
824.82        68.65473
825.23        68.74557
825.64        68.73082
826.04        68.67283
826.45        68.62714
826.86        68.63622
827.27        68.67997
827.68        68.72153
828.08        68.74024
828.49        68.67802
828.90        68.55535
829.31        68.46901
829.72        68.57312
830.12        68.90877
830.53        69.37608
830.94        69.77672
831.35         69.7267
831.75        69.17307
832.16        68.23582
832.57        67.24294
832.97        66.68976
833.38        66.70213
833.79        67.10636
834.20         67.7203
834.60         68.2466
835.01        68.58344
835.42         68.8682
835.82        69.07112
836.23        69.06304
836.64        68.87417
837.04        68.47031
837.45         68.1282
837.86        68.37861
838.26        69.32182
838.67        70.77942
839.08        72.20734
839.48        72.58057
839.89         71.6641
840.29        69.84241
840.70        67.91869
841.11         66.8557
841.51        66.88857
841.92         67.7163
842.33        68.97054
842.73        69.97636
843.14         70.3669
843.54         70.3889
843.95        70.22939
844.35        70.24429
844.76        70.50974
845.17        70.86951
845.57        71.18243
845.98        71.22273
846.38        70.96439
846.79        70.51125
847.19        70.00585
847.60         69.6319
848.00        69.46169
848.41         69.4093
848.81        69.46137
849.22        69.50946
849.62         69.5557
850.03        69.63237
850.43        69.70406
850.84        69.64001
851.24         69.4673
851.65        69.12994
852.05        68.87215
852.46        69.01701
852.86         69.6012
853.27        70.48707
853.67        71.26526
854.07        71.48707
854.48        71.05786
854.88         70.1497
855.29        69.01593
855.69         68.2597
856.10        68.02937
856.50        68.25584
856.90        68.70621
857.31        68.99731
857.71        69.04932
858.12          68.896
858.52        68.71547
858.92        68.68597
859.33        68.83212
859.73        69.11582
860.13        69.31615
860.54        69.11327
860.94        68.50134
861.34        67.59619
861.75        66.68653
862.15        66.27422
862.55        66.45987
862.96        67.05521
863.36        67.85886
863.76        68.42965
864.17         68.5989
864.57        68.52972
864.97        68.23264
865.38        67.73949
865.78        67.13869
866.18        66.40073
866.58        65.74879
866.99        65.58838
867.39        66.02207
867.79        66.92981
868.19        67.98627
868.60        68.66005
869.00         68.8399
869.40        68.61092
869.80        68.17741
870.21        67.95417
870.61        68.12782
871.01        68.50813
871.41        68.83105
871.81        68.72601
872.22        68.13167
872.62        67.19255
873.02        66.20556
873.42        65.65912
873.82        65.69897
874.22        66.17409
874.63        66.80722
875.03        67.17484
875.43         67.1399
875.83         66.8327
876.23        66.44027
876.63         66.2503
877.03        66.34497
877.44        66.60176
877.84        66.90755
878.24        67.09818
878.64        67.07272
879.04        66.75111
879.44        66.33884
879.84        66.24585
880.24        66.50489
880.64        66.95219
881.04        67.28407
881.44        67.03545
881.84        66.13892
882.24        64.80025
882.65        63.43035
883.05        62.64975
883.45        62.62404
883.85         63.1762
884.25         64.0521
884.65        64.79915
885.05        65.24128
885.45        65.49667
885.85        65.63123
886.25        65.75637
886.65        65.91541
887.05        66.03267
887.45        66.11439
887.85        66.20522
888.25         66.2972
888.65        66.38303
889.04        66.41462
889.44        66.33118
889.84        66.11195
890.24        65.79431
890.64        65.40798
891.04        65.00806
891.44        64.63853
891.84        64.30915
892.24        64.07075
892.64         63.9806
893.04        64.05573
893.44        64.30819
893.83        64.68688
894.23        65.04683
894.63        65.35795
895.03         65.5959
895.43        65.86072
895.83        66.33775
896.23        67.01662
896.63        67.79582
897.02        68.38969
897.42        68.38328
897.82        67.72388
898.22        66.61631
898.62        65.39063
899.01        64.52097
899.41        64.16519
899.81        64.18964
900.21        64.48614
900.61        64.86491
901.00        65.22672
901.40        65.60233
901.80         65.9441
902.20        66.16842
902.59        66.26385
902.99        66.22278
903.39        66.05974
903.79        65.82366
904.18        65.54499
904.58         65.2355
904.98        65.00082
905.38        64.99983
905.77        65.24929
906.17        65.71906
906.57        66.20947
906.96        66.38391
907.36        66.14845
907.76        65.61087
908.15        65.03687
908.55        64.82717
908.95        65.08782
909.34        65.71285
909.74        66.41003
910.14        66.78992
910.53         66.7131
910.93        66.30978
911.33        65.77039
911.72        65.37335
912.12        65.25389
912.52        65.32833
912.91        65.44506
913.31        65.39581
913.70        65.14809
914.10        64.75396
914.49         64.4677
914.89        64.62535
915.29        65.31199
915.68        66.40938
916.08         67.5203
916.47         68.0547
916.87        67.86855
917.26        67.10662
917.66        66.20097
918.05        65.66332
918.45          65.631
918.84        66.01582
919.24         66.4892
919.64        66.61526
920.03        66.29864
920.42        65.66124
920.82        65.09652
921.21         65.1437
921.61        65.88145
922.00        67.15503
922.40        68.47961
922.79        69.14548
923.19        68.91617
923.58         68.0634
923.98        66.99944
924.37        66.26177
924.77        66.02264
925.16        66.07986
925.55        66.33249
925.95        66.59093
926.34        66.77146
926.74        66.91993
927.13        66.95699
927.52        66.66906
927.92        66.10124
928.31        65.32327
928.70          64.539
929.10        64.04467
929.49          63.901
929.89        63.96273
930.28        64.29118
930.67        64.86314
931.07        65.58245
931.46         66.5246
931.85        67.28813
932.24        67.27178
932.64        66.44555
933.03        64.96778
933.42        63.52122
933.82        63.11911
934.21        63.95369
934.60        65.77462
934.99        67.90019
935.39        69.07893
935.78          68.967
936.17        67.83569
936.56        66.31464
936.96        65.40144
937.35        65.37453
937.74        65.93739
938.13        66.61603
938.53        66.69614
938.92        66.01968
939.31        64.88005
939.70        63.71989
940.09        63.13821
940.49        63.23473
940.88        63.83918
941.27        64.62547
941.66        65.01338
942.05        64.83892
942.44        64.32748
942.84        63.76519
943.23        63.57884
943.62        63.88897
944.01        64.49464
944.40        65.28939
944.79        66.13206
945.18        66.89887
945.57         67.6016
945.97        67.99984
946.36        67.79735
946.75        66.94642
947.14        65.63767
947.53        64.21512
947.92        63.16114
948.31        62.61967
948.70        62.48957
949.09          62.734
949.48        63.25415
949.87        63.96027
950.26         64.8523
950.65        65.75864
951.04        66.40288
951.43         66.6803
951.82        66.58342
952.21        66.22932
952.60        65.85693
952.99        65.57026
953.38        65.37831
953.77         65.1944
954.16        64.86531
954.55        64.37056
954.94        63.73814
955.33        63.24345
955.72        63.33947
956.11        64.10476
956.50        65.42014
956.89        66.71754
957.28        67.03999
957.66         66.1879
958.05        64.52062
958.44        62.77007
958.83        62.00203
959.22        62.42941
959.61        63.73404
960.00        65.36624
960.39        66.29623
960.78        66.16376
961.16        65.28284
961.55        64.13045
961.94        63.30262
962.33        62.98357
962.72        63.02393
963.11        63.21658
963.49        63.24245
963.88        62.93208
964.27        62.41016
964.66        62.02742
965.04        62.29885
965.43        63.24612
965.82         64.7721
966.21        66.23178
966.60         66.4089
966.98        65.01378
967.37        62.57567
967.76        60.10729
968.15        58.88306
968.53        59.12687
968.92        60.51046
969.31        62.37778
969.69        63.39569
970.08         63.0383
970.47        61.77011
970.86        60.36206
971.24        59.89629
971.63        60.60336
972.02        62.12927
972.40        63.94597
972.79        64.77808
973.17        64.28468
973.56        62.95816
973.95        61.39259
974.33        60.31404
974.72        59.91343
975.11        59.91387
975.49        60.26783
975.88        60.83494
976.26        61.53703
976.65        62.39051
977.04        63.14662
977.42        63.36701
977.81        62.96217
978.19        62.01483
978.58        61.01909
978.96        60.77357
979.35        61.43261
979.74        62.78218
980.12        64.37428
980.51        65.15478
980.89        64.94358
981.28        64.05965
981.66        62.95207
982.05        62.22065
982.43        62.04827
982.82        62.21301
983.20         62.7514
983.59        63.63175
983.97        64.83788
984.35        66.37322
984.74        67.77648
985.12        68.49253
985.51        68.31837
985.89        67.39455
986.28        66.29673
986.66        65.85905
987.04        66.33375
987.43        67.47081
987.81        68.80057
988.20        69.28471
988.58         68.6311
988.96        67.10542
989.35        65.29176
989.73        63.98443
990.12        63.36086
990.50        63.26236
990.88        63.24504
991.27        62.57897
991.65         61.1692
992.03        59.35286
992.42        57.82614
992.80        57.48912
993.18         58.5082
993.56        60.62301
993.95        63.09573
994.33        64.65874
994.71        64.73608
995.10        63.78028
995.48         62.4632
995.86         61.9047
996.24         62.3815
996.63        63.39118
997.01        64.76479
997.39        65.80667
997.77        66.15719
998.15        66.17709
998.54        65.67806
998.92        64.21931
999.30        61.99646
999.68        59.19467
1000.06        56.80019
1000.45        56.20558
1000.83        57.74205
1001.21        61.17981
1001.59        65.48348
1001.97        68.07735
1002.35         67.9521
1002.73        65.88118
1003.12        63.30881
1003.50        62.08321
1003.88        62.73642
1004.26        64.56776
1004.64        67.13848
1005.02        69.46655
1005.40         70.9259
1005.78         71.9465
1006.16        72.03726
1006.54         70.3941
1006.92        67.24535
1007.30        62.99851
1007.69        59.13647
1008.07        57.63186
1008.45        59.02096
1008.83        62.87701
1009.21        68.13137
1009.59        71.90108
1009.97        72.65883
1010.35        71.16485
1010.73        68.16164
1011.11        64.83712
1011.49        61.86523
1011.86        59.03352
1012.24        56.91522
1012.62          56.291
1013.00        57.19415
1013.38        59.54096
1013.76        62.72413
1014.14        64.96144
1014.52        65.30132
1014.90        64.07002
1015.28        61.87427
1015.66        59.67331
1016.04          57.798
1016.41        56.01984
1016.79        54.47881
1017.17        53.55273
1017.55        53.34856
1017.93        53.83596
1018.31        54.78344
1018.69        55.79939
1019.06        56.78896
1019.44        57.85862
1019.82        58.84533
1020.20        59.39663
1020.58         59.3158
1020.95        58.50873
1021.33        57.60085
1021.71        57.26982
1022.09        57.65174
1022.46        58.87333
1022.84        60.20074
1023.22        59.92618
1023.60        57.65879
1023.97        53.96692
1024.35        50.97898
1024.73          51.061
