SpectraSmart Spectrum 2.9.0.0
--------- Device Information -----------
Spectrum Name :  反射率_0
Saving Time :  2024/04/26 23:01:31
Spectro-Module Model Name : SE2030-DUVN
Spectro-Module Serial Number : OS361AC55029948
Wavelength Start : 200
Wavelength End : 1025
Wavelength Unit : Wavelength(nm)
Spectrum Unit : Reflectance(%)
-----------Spectrum Setting ------------
Integration Time : 20ms
Average : 10
Boxcar : 0
Background removal :  enabled
linearity correction :  enabled
SC :  disabled
Intensity correction :  disabled
DWT denoise :  enabled
savitzky-golay :  disabled
FFT :  disabled
Running average :  disabled
Kalman :  disabled
High pass :  disabled
---------------BEGIN--------------------
Wavelength(nm)             Reflectance(%)
200.29               0
200.75         28.2683
201.21        33.21544
201.67        38.14958
202.13        41.08245
202.58        41.92488
203.04        41.80388
203.50        41.12167
203.96        40.69926
204.42        41.17853
204.88        41.98585
205.34        43.15096
205.80        44.93087
206.26        46.85049
206.72        48.46199
207.18        49.26136
207.64        48.73109
208.10        46.80816
208.55        43.59599
209.01         38.2294
209.47        32.84577
209.93        30.57891
210.39        30.93132
210.85        32.42147
211.31        34.32763
211.77        37.17013
212.23        43.09064
212.69        58.10454
213.14        87.07288
213.60        91.19987
214.06        74.92593
214.52        62.24373
214.98        55.78241
215.44         52.1266
215.90        48.82925
216.36        46.17017
216.81         44.9127
217.27         45.5831
217.73         49.1442
218.19        54.43606
218.65        54.92741
219.11        49.59402
219.57        43.16116
220.02        40.03268
220.48        42.97979
220.94        52.25251
221.40        69.43803
221.86        95.23721
222.32        116.0675
222.77         116.834
223.23        105.0616
223.69        90.90504
224.15        80.93101
224.61        74.99838
225.06        70.64443
225.52        67.97311
225.98         66.7487
226.44        66.68092
226.90        67.96078
227.36         69.6835
227.81        70.16579
228.27        69.31326
228.73        67.46249
229.19        66.08562
229.65        67.00894
230.10        70.15797
230.56        74.86032
231.02        79.18326
231.48        80.09906
231.93        77.22079
232.39        72.27402
232.85        67.27984
233.31        64.82432
233.77        65.17625
234.22        67.41998
234.68        70.31107
235.14        71.98012
235.60        71.83384
236.05        70.48591
236.51        68.39158
236.97         66.6823
237.43        65.92524
237.88        65.80064
238.34        66.13582
238.80        66.95522
239.26        68.28123
239.71        70.80773
240.17          74.019
240.63        76.81599
241.08        78.49169
241.54        78.13347
242.00        77.41393
242.46        80.19798
242.91        89.28812
243.37        106.5561
243.83        131.7248
244.28        149.9687
244.74        142.8141
245.20        113.4827
245.66        82.33463
246.11        65.75162
246.57        63.34281
247.03        69.17985
247.48        78.24186
247.94        81.59992
248.40        78.24271
248.85        72.91372
249.31        67.97163
249.77        63.67434
250.22        59.34138
250.68        53.56744
251.14        46.97168
251.59        43.52542
252.05         45.7858
252.51        52.47673
252.96        58.87691
253.42        60.81538
253.88        58.78304
254.33        54.43188
254.79        51.46711
255.25        52.92612
255.70         58.4088
256.16        66.52277
256.62         73.5386
257.07        73.93307
257.53        69.23586
257.99         63.0215
258.44        58.06147
258.90        56.81777
259.35        58.14135
259.81        60.92566
260.27        63.64889
260.72         64.4929
261.18        63.60532
261.63        61.62299
262.09        59.67215
262.55        58.37989
263.00        57.69563
263.46        57.45846
263.91        57.15667
264.37        56.49952
264.83        55.44238
265.28        54.15385
265.74        53.09484
266.19        52.50538
266.65          52.464
267.11        52.71959
267.56        53.02902
268.02        53.02228
268.47        52.58763
268.93        51.89135
269.38        50.97721
269.84        49.98212
270.30        48.96465
270.75        47.88103
271.21        46.91642
271.66        46.28235
272.12         46.0065
272.57        46.01004
273.03        46.03919
273.48        45.65678
273.94        44.83734
274.39        43.68361
274.85        42.53917
275.31        41.73019
275.76        41.28471
276.22        41.11708
276.67        40.99273
277.13        40.69497
277.58        40.11507
278.04         39.3749
278.49        38.54767
278.95        37.86904
279.40        37.32612
279.86        36.92582
280.31        36.49235
280.77        35.90777
281.22         35.1207
281.68        34.26798
282.13         33.4655
282.59         32.9673
283.04        32.75489
283.50        32.75883
283.95        32.80261
284.41        32.63238
284.86        32.19129
285.32        31.60559
285.77        30.99308
286.22        30.58293
286.68        30.41366
287.13         30.3635
287.59        30.36634
288.04        30.27537
288.50        30.07538
288.95        29.79156
289.41        29.45922
289.86        29.05138
290.32        28.62446
290.77        28.17568
291.22        27.78352
291.68        27.55175
292.13        27.48633
292.59        27.57087
293.04        27.75785
293.50        27.98943
293.95        28.22671
294.40        28.48386
294.86        28.74599
295.31        28.98369
295.77        29.20384
296.22        29.40264
296.68        29.61779
297.13        29.89665
297.58        30.25675
298.04        30.68638
298.49        31.15947
298.95        31.64825
299.40        32.12866
299.85        32.60626
300.31        33.07284
300.76        33.50769
301.21        33.90607
301.67        34.27431
302.12        34.60114
302.58        34.93212
303.03         35.2487
303.48         35.5669
303.94        35.87257
304.39        36.10765
304.84        36.28191
305.30        36.42142
305.75        36.55442
306.20        36.77933
306.66         37.1118
307.11        37.49863
307.57        37.87123
308.02        38.07551
308.47        38.09828
308.93        37.99699
309.38        37.84447
309.83        37.80369
310.29        37.90819
310.74        38.09976
311.19        38.29762
311.65        38.36525
312.10         38.2616
312.55        38.03383
313.00        37.75528
313.46        37.53063
313.91        37.37525
314.36        37.26803
314.82        37.15998
315.27        36.98672
315.72        36.73391
316.18        36.44191
316.63        36.15478
317.08        35.95096
317.53        35.84526
317.99        35.80462
318.44        35.78723
318.89        35.71553
319.35         35.5647
319.80        35.35151
320.25         35.1078
320.70        34.88672
321.16        34.70081
321.61        34.54778
322.06        34.39027
322.51        34.17205
322.97        33.88109
323.42        33.54305
323.87        33.22371
324.32        33.03233
324.78        32.97634
325.23        33.03909
325.68        33.10674
326.13         32.9962
326.59        32.66439
327.04        32.18192
327.49        31.66372
327.94        31.29424
328.39        31.11667
328.85        31.06093
329.30        31.07826
329.75        31.01951
330.20        30.83798
330.66        30.57713
331.11        30.29213
331.56        30.04161
332.01        29.84673
332.46          29.677
332.92        29.50895
333.37        29.35841
333.82        29.20831
334.27        29.07342
334.72         28.9435
335.17          28.794
335.63        28.61964
336.08        28.43843
336.53        28.27791
336.98        28.19662
337.43        28.20191
337.88        28.26729
338.34        28.34225
338.79        28.37082
339.24         28.3208
339.69         28.2165
340.14         28.0679
340.59        27.89448
341.05        27.72377
341.50        27.55119
341.95        27.41659
342.40         27.3809
342.85        27.44806
343.30        27.59073
343.75        27.75661
344.20        27.85897
344.66        27.87208
345.11        27.81767
345.56        27.70499
346.01        27.55462
346.46         27.3894
346.91        27.21247
347.36        27.06359
347.81        27.00523
348.26        27.04537
348.72        27.16561
349.17        27.31802
349.62        27.43535
350.07        27.49303
350.52        27.50701
350.97        27.47658
351.42        27.40682
351.87        27.30717
352.32        27.17485
352.77        27.04152
353.22        26.95397
353.67        26.91941
354.13        26.93091
354.58        26.94812
355.03        26.90366
355.48        26.78224
355.93        26.60283
356.38        26.41599
356.83        26.29719
357.28        26.25817
357.73        26.27283
358.18         26.2835
358.63         26.1988
359.08        26.00117
359.53        25.72486
359.98        25.43074
360.43        25.20694
360.88        25.07067
361.33        24.99109
361.78        24.92535
362.23         24.8061
362.68        24.61979
363.13        24.39841
363.58        24.16727
364.03        23.96145
364.48        23.79256
364.93        23.64301
365.38         23.5225
365.83        23.44951
366.28         23.4195
366.73        23.42635
367.18        23.42374
367.63        23.33834
368.08        23.15715
368.53        22.90027
368.98        22.62404
369.43        22.42023
369.88        22.31245
370.33        22.27767
370.78        22.26671
371.23        22.19641
371.68        22.04542
372.13        21.84056
372.58        21.63034
373.03        21.49012
373.48        21.43493
373.93        21.43414
374.38        21.43998
374.83        21.38019
375.28        21.23621
375.72        21.02908
376.17        20.80678
376.62        20.61203
377.07        20.46271
377.52        20.35045
377.97        20.26246
378.42        20.18193
378.87        20.10178
379.32        20.01941
379.77        19.95522
380.22        19.93742
380.67        19.96218
381.11        20.02482
381.56        20.05129
382.01        19.94132
382.46        19.69004
382.91        19.35021
383.36         19.0252
383.81        18.85524
384.26         18.8626
384.71         19.0002
385.15        19.19906
385.60        19.34275
386.05        19.38758
386.50         19.3658
386.95        19.29654
387.40        19.21279
387.85        19.13044
388.29         19.0235
388.74        18.92609
389.19         18.8455
389.64        18.77917
390.09         18.7218
390.54        18.65831
390.98        18.55671
391.43        18.42656
391.88        18.28383
392.33        18.13854
392.78        18.00176
393.23        17.88164
393.67        17.76852
394.12        17.69413
394.57        17.67048
395.02        17.69324
395.47        17.74452
395.91        17.80295
396.36         17.8216
396.81        17.79564
397.26        17.74135
397.71         17.6561
398.15        17.54812
398.60         17.4505
399.05        17.29596
399.50        17.13535
399.95         17.1669
400.39        17.34125
400.84        17.33472
401.29        17.15372
401.74        17.07806
402.18        17.11823
402.63        17.09904
403.08        17.02566
403.53        16.98605
403.97        16.98404
404.42        16.99558
404.87        17.00349
405.32        16.97931
405.76        16.91551
406.21        16.83199
406.66        16.75014
407.11        16.70481
407.55        16.70756
408.00        16.73808
408.45        16.77684
408.90        16.78126
409.34        16.73829
409.79        16.66625
410.24        16.58305
410.68        16.50711
411.13        16.44988
411.58        16.40377
412.03        16.36734
412.47        16.34248
412.92        16.32328
413.37        16.31441
413.81        16.31187
414.26        16.32316
414.71        16.34207
415.15        16.37102
415.60        16.39515
416.05        16.40412
416.49        16.39711
416.94        16.37525
417.39        16.35227
417.83        16.34904
418.28        16.36754
418.73        16.39659
419.17        16.42759
419.62        16.44644
420.07        16.44831
420.51        16.43674
420.96        16.40755
421.41        16.35096
421.85        16.26498
422.30        16.14944
422.74        16.02632
423.19         15.9999
423.64        16.05152
424.08        16.07417
424.53        16.04436
424.98        16.04712
425.42         16.0868
425.87        16.06264
426.31        16.00005
426.76         16.0574
427.21         16.1945
427.65        16.17254
428.10        16.01967
428.54        15.95059
428.99         15.9808
429.44        16.04483
429.88        16.10052
430.33        16.01917
430.77        15.84978
431.22        15.88986
431.66         16.1051
432.11        16.16171
432.56         16.0488
433.00         15.9996
433.45        15.97771
433.89        15.81584
434.34        15.64507
434.78        15.36413
435.23        15.80919
435.67        15.92198
436.12        15.90786
436.57         15.8261
437.01        15.71445
437.46        15.64384
437.90        15.62295
438.35         15.5854
438.79        15.53226
439.24        15.51953
439.68        15.54769
440.13        15.60242
440.57        15.66038
441.02         15.6966
441.46        15.70126
441.91        15.64245
442.35        15.54696
442.80        15.60648
443.24        15.75978
443.69        15.72903
444.13        15.54214
444.58        15.49139
445.02        15.58427
445.47        15.66256
445.91        15.69883
446.36        15.72637
446.80        15.73505
447.24        15.72009
447.69        15.69307
448.13        15.66551
448.58        15.64768
449.02        15.63526
449.47        15.63663
449.91        15.65582
450.36        15.69569
450.80        15.75087
451.25        15.81249
451.69        15.85651
452.13         15.8784
452.58        15.87843
453.02        15.86546
453.47        15.85816
453.91        15.86031
454.36        15.86977
454.80        15.86717
455.24        15.82091
455.69        15.73391
456.13        15.60994
456.58        15.49801
457.02         15.4441
457.46        15.46353
457.91         15.5401
458.35        15.62173
458.79        15.62924
459.24        15.56204
459.68        15.43809
460.13        15.32569
460.57         15.2875
461.01        15.34828
461.46        15.46816
461.90        15.61774
462.34        15.73506
462.79        15.79071
463.23        15.80747
463.68        15.77607
464.12        15.69378
464.56         15.5709
465.01        15.43513
465.45         15.2993
465.89        15.22223
466.34        15.21092
466.78        15.24823
467.22        15.32148
467.67        15.38966
468.11        15.44554
468.55        15.49061
468.99        15.52547
469.44        15.55105
469.88        15.57003
470.32        15.57789
470.77        15.58066
471.21        15.59414
471.65        15.61961
472.10        15.65568
472.54        15.69227
472.98        15.71835
473.42        15.73057
473.87        15.73773
474.31        15.73335
474.75        15.72279
475.20        15.71263
475.64        15.69671
476.08        15.68514
476.52        15.68463
476.97        15.69717
477.41        15.72951
477.85        15.77884
478.29        15.81631
478.74        15.84995
479.18        15.92084
479.62        16.01657
480.06        16.09024
480.50         16.1407
480.95         16.1734
481.39        16.17567
481.83        16.28612
482.27        16.26493
482.72        16.30504
483.16          16.359
483.60        16.41268
484.04         16.4448
484.48        16.61435
484.93        16.92979
485.37        16.77618
485.81        16.69562
486.25        17.08167
486.69        16.78113
487.14        16.83416
487.58         17.6633
488.02         17.4047
488.46        17.11226
488.90        17.37262
489.34        17.41541
489.79         17.6714
490.23        17.72836
490.67        17.84744
491.11        17.98754
491.55        18.01383
491.99        17.97443
492.43        18.01655
492.88        18.16045
493.32        18.33269
493.76        18.50688
494.20        18.68193
494.64        18.85112
495.08        18.97604
495.52        19.06369
495.96        19.24196
496.41        19.47107
496.85        19.48124
497.29         19.3165
497.73        19.43814
498.17        19.59283
498.61        19.79103
499.05        19.91182
499.49        20.00366
499.93        20.02057
500.37        20.14951
500.82        20.35703
501.26        20.49574
501.70        20.55363
502.14        20.61499
502.58        20.70149
503.02        20.80608
503.46        20.93169
503.90        21.07897
504.34        21.21648
504.78        21.29246
505.22        21.29737
505.66        21.24765
506.10        21.18426
506.54        21.17303
506.98        21.23081
507.42        21.33941
507.86        21.46856
508.30        21.56692
508.74        21.61987
509.18        21.64465
509.62        21.66036
510.06        21.69758
510.50         21.7643
510.94        21.84575
511.38        21.93286
511.82        22.01299
512.26        22.08036
512.70         22.1411
513.14        22.18913
513.58        22.21415
514.02         22.2159
514.46        22.19457
514.90        22.16915
515.34         22.1712
515.78        22.20639
516.22         22.2678
516.66        22.32748
517.10         22.3388
517.54        22.29465
517.98         22.2128
518.42        22.12789
518.86        22.09499
519.30        22.12609
519.74        22.19988
520.18        22.28986
520.62        22.35483
521.06        22.38128
521.50        22.38265
521.93        22.36426
522.37        22.32701
522.81        22.27976
523.25        22.21938
523.69        22.16002
524.13        22.12548
524.57        22.11728
525.01        22.12718
525.45        22.13588
525.89        22.11006
526.32         22.0406
526.76        21.94686
527.20        21.83912
527.64        21.73551
528.08        21.64539
528.52        21.56386
528.96        21.50252
529.40        21.47908
529.83        21.49177
530.27        21.53493
530.71        21.57973
531.15        21.58195
531.59        21.53058
532.03        21.43511
532.46        21.31779
532.90        21.23055
533.34        21.18311
533.78         21.1532
534.22        21.12137
534.66        21.08285
535.09        21.01789
535.53        20.89003
535.97        20.73715
536.41        20.67048
536.85        20.70333
537.28         20.7843
537.72        20.88345
538.16        20.96746
538.60        21.02164
539.04          21.057
539.47          21.082
539.91        21.12448
540.35        21.18672
540.79        21.25801
541.22        21.33668
541.66         21.4292
542.10        21.53059
542.54        21.64215
542.97        21.74711
543.41        21.82706
543.85         21.8789
544.29         21.9137
544.72        21.95065
545.16        22.03473
545.60        22.17058
546.04        22.34808
546.47        22.55209
546.91        22.75173
547.35        22.93176
547.79        23.09891
548.22        23.25083
548.66        23.38072
549.10        23.51679
549.53        23.64616
549.97        23.77423
550.41         23.8572
550.84         23.9222
551.28        24.03828
551.72        24.17997
552.15        24.32399
552.59        24.49669
553.03        24.34745
553.46        24.62448
553.90         24.7141
554.34        24.83385
554.77        24.97444
555.21         25.1354
555.65        25.29404
556.08        25.43278
556.52        25.54452
556.96        25.62359
557.39        25.73227
557.83        25.85357
558.27        25.83797
558.70        25.72702
559.14         25.7432
559.57         25.8823
560.01        26.00694
560.45        26.09311
560.88        26.18475
561.32        26.28786
561.75        26.36285
562.19        26.42273
562.63        26.48338
563.06        26.54376
563.50        26.60237
563.93        26.63954
564.37        26.69393
564.80        26.77684
565.24        26.81789
565.68         26.7632
566.11        27.10883
566.55        26.88371
566.98        26.90242
567.42        26.93396
567.85         27.0401
568.29        27.23284
568.72        27.50387
569.16        27.84087
569.60        28.06451
570.03        28.26306
570.47        28.43689
570.90        28.61417
571.34         28.5898
571.77        28.81189
572.21        28.88009
572.64        28.89773
573.08        29.14393
573.51        29.31351
573.95        29.36983
574.38        29.28435
574.82        29.62333
575.25        29.26479
575.69        29.54951
576.12        29.55841
576.56        29.60325
576.99        29.57878
577.42        29.53896
577.86        29.62727
578.29         29.9529
578.73        29.77798
579.16        29.70584
579.60         29.4764
580.03        29.50678
580.47        29.42085
580.90        29.47567
581.33        29.35617
581.77         29.5354
582.20        28.95805
582.64        28.95561
583.07        29.05651
583.51        29.04839
583.94        28.92271
584.37        28.82819
584.81        28.79338
585.24        28.58498
585.68        28.29665
586.11        28.24286
586.54        28.19712
586.98        28.16768
587.41         28.0501
587.85        28.02967
588.28        27.86359
588.71        27.63246
589.15        27.67362
589.58        27.83053
590.01        27.77477
590.45        27.82403
590.88        27.97839
591.31        27.89465
591.75        27.72097
592.18        27.69218
592.61        27.76363
593.05         28.2021
593.48        28.37169
593.91         27.8693
594.35        28.19932
594.78        28.05603
595.21        27.99196
595.65        28.21334
596.08        28.72794
596.51        28.96495
596.94          28.821
597.38        28.90794
597.81        29.21066
598.24        29.62023
598.68        29.59153
599.11        29.92159
599.54        30.54495
599.97         30.2245
600.41        30.79959
600.84         30.7997
601.27        31.21108
601.70        31.58455
602.14        31.97388
602.57         32.2259
603.00        32.42352
603.43         32.3418
603.87        33.22388
604.30        33.54266
604.73         33.7443
605.16        33.92894
605.60        34.56887
606.03        34.84928
606.46        34.90946
606.89        35.35241
607.32        36.02694
607.76        36.46234
608.19        36.65554
608.62         36.8962
609.05        37.10335
609.48        37.38812
609.92        38.10251
610.35        38.31246
610.78        37.94307
611.21        37.99821
611.64        38.49492
612.07         39.0607
612.50        39.27765
612.94        39.57749
613.37        39.81613
613.80        39.96586
614.23        39.73571
614.66        39.92553
615.09        40.41516
615.52        40.73785
615.96        40.83076
616.39        41.06862
616.82         41.4875
617.25        41.33592
617.68        41.55121
618.11        41.82563
618.54        42.35471
618.97        42.59074
619.40        42.53526
619.84          42.743
620.27        42.81345
620.70          42.983
621.13        43.11607
621.56        42.84521
621.99        42.62256
622.42        42.64968
622.85        43.05383
623.28         42.9753
623.71        43.13826
624.14        43.20967
624.57        43.60599
625.00        43.41437
625.43        43.51366
625.86        43.41617
626.29        43.43911
626.72        42.90077
627.15        43.06937
627.58        42.92085
628.01        42.79103
628.44         42.6151
628.87         42.3944
629.30        42.13771
629.73        41.86967
630.16        41.65773
630.59        41.50636
631.02        41.38773
631.45        41.27041
631.88          41.096
632.31        40.84272
632.74         40.5547
633.17        40.23066
633.60        39.79645
634.03        39.29896
634.46          38.909
634.89        38.61394
635.32        38.25082
635.75        37.81781
636.18        37.37925
636.61        36.96912
637.04        36.61174
637.47        36.31155
637.89        36.05496
638.32        35.79929
638.75        35.51293
639.18        35.18933
639.61        34.84174
640.04        34.50282
640.47        34.22129
640.90        34.00816
641.33        33.85123
641.76        33.72523
642.18        33.59357
642.61         33.4376
643.04        33.27361
643.47        33.13064
643.90        33.05385
644.33        33.05077
644.76        33.10617
645.18        33.18464
645.61        33.21994
646.04        33.20498
646.47        33.16864
646.90        33.15262
647.33        33.21515
647.75        33.35897
648.18        33.59639
648.61        33.92487
649.04        34.19872
649.47        34.36504
649.89        35.01588
650.32        35.20282
650.75        35.46294
651.18        35.59486
651.61         36.0196
652.03        36.68622
652.46         37.1564
652.89        37.46564
653.32        37.78224
653.74        38.10543
654.17        38.66964
654.60         39.4165
655.03        39.12184
655.46        39.17097
655.88        39.70523
656.31        41.17873
656.74        41.22607
657.16        42.56724
657.59        44.09305
658.02        42.36961
658.45         42.7856
658.87        42.71914
659.30        42.92126
659.73         43.0737
660.15        44.22605
660.58        43.70967
661.01        43.91508
661.44        44.13787
661.86        44.30687
662.29        44.38575
662.72        44.91544
663.14        45.02362
663.57        45.17196
664.00        45.19254
664.42        45.41171
664.85        45.84818
665.27        46.35714
665.70        46.80886
666.13        47.04733
666.55        47.02945
666.98         46.9611
667.41        46.57398
667.83        46.63466
668.26        46.59989
668.69        46.82583
669.11        47.11303
669.54        47.37295
669.96        47.57593
670.39        47.75544
670.82        47.93221
671.24        48.08325
671.67        48.22486
672.09        48.39911
672.52        48.58892
672.94        48.70286
673.37        48.73404
673.80          48.694
674.22        48.64558
674.65        48.67822
675.07        48.82313
675.50        49.03111
675.92        49.24434
676.35        49.37063
676.77        49.38999
677.20        49.33071
677.62        49.25379
678.05        49.25647
678.47        49.36187
678.90        49.54113
679.32        49.74707
679.75        49.91568
680.17        50.02425
680.60        50.09627
681.02        50.15584
681.45        50.24445
681.87         50.3831
682.30        50.52114
682.72         50.6545
683.15        50.81376
683.57        50.97045
684.00        50.97505
684.42        50.88533
684.85         50.9282
685.27        51.11515
685.70        51.34249
686.12        51.54013
686.54        51.64987
686.97        51.65775
687.39        51.58697
687.82        51.47809
688.24        51.45386
688.66        51.54947
689.09        51.52144
689.51        51.74249
689.94          51.829
690.36        51.88781
690.78        51.91962
691.21        51.96293
691.63        52.05625
692.06        52.20615
692.48        52.42713
692.90        52.62334
693.33        52.72831
693.75         52.7109
694.17        52.57564
694.60        52.43053
695.02         52.4416
695.44        52.61756
695.87        52.96548
696.29        53.35603
696.71        53.29032
697.14         52.8845
697.56        52.88071
697.98        53.27888
698.41        53.48543
698.83        53.48438
699.25        53.66624
699.68        53.96002
700.10        54.10723
700.52         54.0642
700.94        53.91462
701.37        53.75739
701.79        53.75869
702.21        53.94777
702.64        54.25623
703.06        54.58895
703.48        54.77647
703.90        54.77669
704.33         54.6529
704.75         54.4741
705.17        54.34261
705.59        54.29739
706.01        54.30128
706.44        54.36734
706.86        54.50964
707.28        54.70177
707.70        55.00426
708.12        55.33719
708.55        55.41047
708.97        55.27335
709.39        55.29932
709.81        55.49433
710.23        55.56542
710.66        55.50588
711.08        55.51406
711.50        55.57548
711.92        55.58768
712.34        55.55032
712.76        55.50709
713.19        55.45692
713.61        55.42661
714.03        55.41737
714.45        55.42779
714.87         55.4868
715.29        55.64345
715.71        55.89433
716.13        56.20777
716.56        56.51652
716.98        56.77313
717.40        56.91521
717.82        56.97601
718.24        56.95718
718.66        56.77787
719.08        56.61005
719.50        56.36666
719.92        56.15638
720.34        56.07343
720.76        56.13907
721.19        56.30649
721.61         56.5667
722.03        56.85811
722.45        57.13806
722.87        57.40732
723.29        57.59856
723.71        57.60889
724.13        57.43194
724.55        57.10905
724.97        56.75861
725.39        56.55191
725.81        56.53768
726.23        56.70852
726.65         57.0085
727.07        57.16421
727.49        57.40684
727.91        57.54314
728.33        57.66838
728.75        57.78701
729.17        57.90091
729.59        58.01533
730.01        58.10885
730.43        58.09388
730.85        58.00359
731.27        58.01389
731.69        58.10558
732.10         58.0974
732.52        57.98405
732.94        57.88765
733.36        57.84521
733.78        57.75442
734.20        57.61486
734.62        57.66347
735.04        57.97194
735.46        57.57198
735.88        58.16354
736.30         58.3443
736.72        58.60157
737.13        58.81923
737.55        58.92688
737.97        59.13896
738.39        59.35082
738.81        58.96069
739.23        58.25225
739.65        58.23241
740.06        58.83609
740.48        59.09732
740.90        58.96104
741.32        58.99704
741.74        59.23448
742.16        59.42295
742.57        59.54808
742.99        59.65553
743.41        59.72118
743.83        59.69606
744.25        59.58249
744.67        59.38663
745.08         59.1883
745.50        59.10064
745.92        59.15535
746.34        59.31425
746.75        59.50419
747.17        59.57906
747.59        59.51066
748.01        59.38457
748.42        59.25006
748.84        59.11042
749.26        59.04203
749.68        59.16245
750.09        59.40982
750.51        59.64773
750.93        59.76971
751.35        59.60681
751.76         59.2484
752.18        59.06817
752.60        59.10121
753.01        59.15655
753.43        59.17915
753.85        59.19148
754.27        59.18989
754.68        59.19606
755.10         59.2229
755.52        59.28497
755.93        59.36683
756.35        59.43057
756.77        59.54847
757.18        59.70338
757.60        59.87495
758.02        60.37965
758.43        61.01018
758.85        60.39459
759.26        59.81264
759.68        59.32923
760.10        59.38092
760.51        59.68681
760.93        60.16657
761.34        59.96789
761.76        60.40241
762.18        60.36664
762.59        60.35118
763.01        60.40015
763.42        60.58249
763.84        60.72004
764.26        60.75523
764.67        60.71552
765.09        60.63718
765.50        60.36183
765.92        60.03505
766.33         60.0624
766.75        60.32462
767.16        60.32243
767.58        60.02486
768.00        59.83072
768.41        59.84402
768.83        60.12745
769.24         60.5295
769.66        60.57275
770.07        60.29343
770.49        60.07247
770.90        60.05858
771.32         60.4721
771.73        61.14591
772.15        61.41447
772.56         61.2294
772.97        60.89308
773.39        60.58338
773.80        60.56934
774.22        60.83806
774.63        61.11458
775.05        61.27171
775.46        61.42281
775.88        61.50189
776.29        61.41338
776.70         61.2338
777.12        61.18483
777.53        61.31301
777.95        61.51857
778.36        61.72094
778.77        61.75621
779.19        61.60849
779.60        61.35891
780.02        61.08462
780.43        60.97184
780.84        61.08034
781.26        61.10007
781.67        61.08054
782.09        61.64938
782.50        62.51415
782.91        62.36798
783.33        61.36765
783.74        60.97185
784.15        61.28216
784.57        61.48967
784.98        61.52882
785.39        61.64227
785.81        61.80288
786.22        61.95021
786.63         62.0854
787.04        62.20815
787.46        62.32497
787.87        62.41133
788.28        62.46308
788.70        62.45768
789.11        62.38138
789.52        62.28547
789.93        62.19027
790.35        62.10433
790.76         62.0525
791.17        62.04383
791.58        62.09846
792.00        62.14878
792.41        62.18983
792.82        62.40153
793.23        62.65517
793.65        62.41685
794.06        61.90544
794.47        61.92916
794.88        62.30227
795.29        63.02118
795.71        62.26979
796.12         62.0506
796.53        61.96825
796.94        62.01405
797.35        62.21051
797.76        62.58818
798.18        63.01937
798.59        63.28478
799.00        63.30873
799.41        63.13951
799.82        62.88491
800.23        62.73775
800.64        62.75213
801.06        62.84595
801.47        62.98291
801.88        63.02264
802.29        62.92344
802.70        62.72392
803.11        62.50539
803.52        62.39404
803.93        62.45011
804.34        62.65371
804.75        62.90694
805.17        63.17031
805.58        63.46412
805.99        63.37053
806.40         63.0642
806.81        63.83355
807.22         65.2502
807.63        64.97659
808.04         63.2662
808.45        62.53635
808.86        62.96119
809.27        63.21293
809.68        63.12967
810.09        63.08656
810.50        63.04996
810.91        62.91995
811.32        62.81298
811.73        62.91198
812.14        63.24302
812.55        63.76155
812.96        64.29513
813.37        64.51073
813.78        64.32063
814.19        63.84864
814.60        63.28726
815.01         62.8957
815.42        62.73843
815.83        62.74435
816.24        62.85275
816.65        62.94461
817.05        62.97925
817.46        62.98204
817.87        62.98816
818.28        62.99717
818.69        63.01662
819.10        63.02219
819.51        63.05687
819.92        63.20885
820.33        63.47876
820.74        63.82705
821.14        64.15278
821.55        64.29021
821.96        64.20608
822.37        63.95443
822.78        63.62247
823.19        63.36235
823.60        63.23298
824.00        63.21901
824.41        63.25932
824.82        63.34148
825.23        63.43575
825.64        63.54902
826.04        63.66011
826.45         63.6922
826.86        63.64645
827.27         63.5508
827.68        63.41674
828.08        63.29692
828.49        63.16948
828.90        63.03586
829.31        62.97591
829.72        63.11976
830.12        63.49657
830.53        64.01413
830.94        64.49409
831.35        64.58483
831.75         64.2252
832.16         63.5122
832.57        62.70356
832.97         62.1925
833.38        62.09179
833.79        62.26987
834.20        62.62185
834.60        62.97316
835.01        63.25462
835.42        63.56244
835.82        63.83963
836.23        63.90898
836.64        63.77665
837.04        63.44025
837.45        63.13663
837.86        63.32478
838.26        64.10041
838.67        65.29447
839.08        66.48685
839.48         66.8805
839.89        66.27402
840.29         64.9585
840.70        63.53615
841.11         62.6997
841.51        62.63343
841.92        63.11911
842.33        63.91381
842.73        64.58279
843.14        64.85686
843.54        64.90535
843.95        64.85301
844.35        64.94685
844.76        65.22404
845.17        65.57902
845.57        65.85491
845.98        65.79364
846.38        65.37219
846.79        64.68996
847.19        63.96598
847.60        63.51798
848.00        63.44215
848.41        63.62673
848.81        63.94153
849.22        64.08492
849.62        64.00787
850.03        63.79301
850.43        63.54481
850.84        63.36552
851.24        63.34077
851.65        63.36967
852.05        63.53239
852.46        63.86983
852.86          64.348
853.27        64.92249
853.67        65.39314
854.07        65.59367
854.48        65.47601
854.88        65.11402
855.29        64.57549
855.69        64.11923
856.10        63.78737
856.50         63.6082
856.90        63.52259
857.31        63.43781
857.71        63.37215
858.12        63.29213
858.52        63.28053
858.92        63.35962
859.33        63.50433
859.73        63.73106
860.13        63.88546
860.54        63.74505
860.94        63.31933
861.34        62.67233
861.75        62.02032
862.15        61.75716
862.55         61.9575
862.96        62.47784
863.36         63.1618
863.76        63.65028
864.17        63.80964
864.57        63.77566
864.97        63.56584
865.38         63.2272
865.78        62.82964
866.18        62.32554
866.58         61.8776
866.99        61.78068
867.39        62.10986
867.79        62.79693
868.19        63.55661
868.60        63.91307
869.00        63.79228
869.40        63.28137
869.80        62.67591
870.21         62.5466
870.61        63.09349
871.01         64.0535
871.41        65.01276
871.81        65.40781
872.22        65.12147
872.62        64.31947
873.02        63.32638
873.42        62.69286
873.82        62.59532
874.22        62.88182
874.63        63.25856
875.03        63.27769
875.43        62.82528
875.83        62.07156
876.23        61.31097
876.63        60.97833
877.03         61.1714
877.44        61.71338
877.84        62.35381
878.24        62.69972
878.64        62.58849
879.04        62.01154
879.44        61.28217
879.84        60.99059
880.24        61.22216
880.64        61.74424
881.04        62.25519
881.44         62.2994
881.84        61.77543
882.24        60.87139
882.65        59.90407
883.05        59.34523
883.45         59.3307
883.85        59.72341
884.25        60.34124
884.65        60.86911
885.05        61.18456
885.45        61.36974
885.85        61.49234
886.25        61.66023
886.65        61.89939
887.05        62.14109
887.45        62.32901
887.85        62.39536
888.25        62.31601
888.65        62.12276
889.04        61.85364
889.44        61.58395
889.84        61.33186
890.24        61.09877
890.64        60.87329
891.04        60.63607
891.44        60.39791
891.84        60.18412
892.24        60.04329
892.64        60.03291
893.04        60.16695
893.44        60.43966
893.83        60.80143
894.23        61.12099
894.63        61.37104
895.03        61.53431
895.43        61.69581
895.83        62.01189
896.23        62.48008
896.63        63.02436
897.02        63.41876
897.42        63.33474
897.82        62.74001
898.22        61.81396
898.62        60.82621
899.01        60.16343
899.41        59.94775
899.81        60.04675
900.21        60.38795
900.61        60.84446
901.00        61.32339
901.40        61.83786
901.80        62.25493
902.20        62.35794
902.59        62.12819
902.99        61.61929
903.39         60.9998
903.79         60.5686
904.18        60.40699
904.58        60.43147
904.98        60.61071
905.38        60.88732
905.77        61.22327
906.17        61.67723
906.57        62.07617
906.96        62.12751
907.36        61.78207
907.76        61.11988
908.15        60.51969
908.55        60.57793
908.95        61.40685
909.34        62.82158
909.74        64.30518
910.14        65.07641
910.53        64.89091
910.93        64.00674
911.33        62.78753
911.72        61.79345
912.12        61.27197
912.52        61.07877
912.91        61.07158
913.31        61.04622
913.70        60.94792
914.10        60.83463
914.49        60.87817
914.89        61.26373
915.29        62.01603
915.68        63.02273
916.08        63.93455
916.47        64.26264
916.87        63.91093
917.26        63.02631
917.66        62.00961
918.05        61.32399
918.45        61.10691
918.84        61.29047
919.24        61.64679
919.64        61.89853
920.03        61.96084
920.42        61.87646
920.82         61.8612
921.21        62.19407
921.61        62.89093
922.00        63.86447
922.40        64.74379
922.79        65.03403
923.19        64.59518
923.58        63.65103
923.98        62.58451
924.37        61.88887
924.77        61.70771
925.16        61.85783
925.55        62.22136
925.95        62.56408
926.34        62.78867
926.74        62.95272
927.13        62.96777
927.52        62.62237
927.92         61.9677
928.31        61.06225
928.70        60.18184
929.10        59.73291
929.49        59.79205
929.89        60.20646
930.28        60.88432
930.67        61.53804
931.07        62.01355
931.46        62.44677
931.85         62.6897
932.24         62.5592
932.64        62.10297
933.03        61.34093
933.42        60.64324
933.82        60.55566
934.21        61.16964
934.60        62.37143
934.99        63.74709
935.39        64.52905
935.78        64.52801
936.17        63.87567
936.56        62.96111
936.96        62.40261
937.35        62.36539
937.74        62.66599
938.13        63.00034
938.53        62.91535
938.92        62.32798
939.31        61.45055
939.70         60.5676
940.09        60.05547
940.49        59.97405
940.88        60.21566
941.27        60.65129
941.66        61.04143
942.05        61.29012
942.44        61.49268
942.84        61.64701
943.23        61.73429
943.62        61.77393
944.01        61.71025
944.40        61.67824
944.79        61.93336
945.18        62.48425
945.57        63.23576
945.97        63.84508
946.36        63.82489
946.75        63.05292
947.14        61.78811
947.53        60.38801
947.92        59.34477
948.31        58.80658
948.70         58.6383
949.09        58.81233
949.48        59.26892
949.87        59.92247
950.26        60.76843
950.65        61.60674
951.04        62.10347
951.43        62.15751
951.82        61.80805
952.21        61.21874
952.60        60.69851
952.99        60.37177
953.38        60.20985
953.77        60.14462
954.16        60.05137
954.55        59.89609
954.94        59.70447
955.33        59.61268
955.72        59.83488
956.11        60.38836
956.50        61.18795
956.89        61.88773
957.28        61.93088
957.66        61.20045
958.05        59.92012
958.44        58.54533
958.83        57.72599
959.22        57.59692
959.61        57.99266
960.00        58.58583
960.39        58.76958
960.78        58.37506
961.16        57.61857
961.55         56.8558
961.94        56.52574
962.33        56.74241
962.72        57.37975
963.11        58.23093
963.49        58.92497
963.88        59.22746
964.27        59.22437
964.66        59.14166
965.04        59.35958
965.43        59.90676
965.82        60.70773
966.21        61.39457
966.60        61.30096
966.98        60.27613
967.37        58.65845
967.76        57.05173
968.15         56.1803
968.53        56.18542
968.92        56.91812
969.31        57.95712
969.69        58.46315
970.08        58.11132
970.47        57.16912
970.86        56.28381
971.24        56.38967
971.63        57.65223
972.02        59.80066
972.40        62.13525
972.79        63.02275
973.17        62.05734
973.56        59.85112
973.95        57.37154
974.33         55.8529
974.72        55.56475
975.11        56.10558
975.49        57.16496
975.88        58.08033
976.26        58.58841
976.65        58.87865
977.04        58.93217
977.42        58.66566
977.81        58.09845
978.19        57.19647
978.58        56.36499
978.96        56.26532
979.35        57.00276
979.74        58.42186
980.12         60.0927
980.51        60.97438
980.89        60.89436
981.28        60.15737
981.66        59.20828
982.05        58.66072
982.43        58.70211
982.82        59.09093
983.20         59.8838
983.59        61.09092
983.97        62.65816
984.35        64.54393
984.74        66.14965
985.12        66.70028
985.51        65.97366
985.89        64.23545
986.28        62.21512
986.66        60.95213
987.04         60.7711
987.43        61.37879
987.81        62.40112
988.20        62.97968
988.58        62.82601
988.96        62.15649
989.35        61.25494
989.73          60.501
990.12        59.99633
990.50        59.65691
990.88        59.30571
991.27        58.71287
991.65        57.88828
992.03        56.97705
992.42         56.3628
992.80        56.52893
993.18        57.56126
993.56        59.33039
993.95        61.28557
994.33        62.52512
994.71        62.60683
995.10        61.84192
995.48        60.75807
995.86        60.26796
996.24        60.57926
996.63        61.27457
997.01         62.1839
997.39        62.63596
997.77        62.36511
998.15        61.77449
998.54        60.82821
998.92        59.29568
999.30        57.38169
999.68          55.195
1000.06        53.55885
1000.45        53.64311
1000.83        55.71939
1001.21        59.59904
1001.59        64.28329
1001.97        67.25099
1002.35        67.46868
1002.73        65.64016
1003.12        63.16373
1003.50        61.85375
1003.88        62.25857
1004.26        63.71934
1004.64        65.86715
1005.02        67.87249
1005.40        69.17406
1005.78         70.1295
1006.16        70.23995
1006.54         68.6843
1006.92        65.62462
1007.30        61.46471
1007.69        57.50975
1008.07        55.41594
1008.45        55.69517
1008.83        58.05975
1009.21          61.715
1009.59        64.51945
1009.97        65.31091
1010.35        64.50917
1010.73        62.86407
1011.11        61.55659
1011.49        60.94291
1011.86        60.65674
1012.24        60.40312
1012.62        59.77147
1013.00        58.65868
1013.38        57.17584
1013.76        55.72923
1014.14         55.2308
1014.52          56.028
1014.90        57.80706
1015.28        59.72152
1015.66        60.62564
1016.04        60.31931
1016.41        59.14685
1016.79        57.62817
1017.17        56.80446
1017.55        56.99657
1017.93        57.79765
1018.31        58.89188
1018.69        59.86829
1019.06        60.62994
1019.44        61.42993
1019.82        62.04734
1020.20        61.96848
1020.58        61.07079
1020.95        59.35914
1021.33        57.79104
1021.71        57.40121
1022.09        58.33045
1022.46        60.67158
1022.84        63.24942
1023.22        63.27815
1023.60         59.9528
1023.97        54.18437
1024.35         48.9743
1024.73        47.64326
