SpectraSmart Spectrum 2.9.0.0
--------- Device Information -----------
Spectrum Name :  反射率_0
Saving Time :  2024/04/26 23:05:23
Spectro-Module Model Name : SE2030-DUVN
Spectro-Module Serial Number : OS361AC55029948
Wavelength Start : 200
Wavelength End : 1025
Wavelength Unit : Wavelength(nm)
Spectrum Unit : Reflectance(%)
-----------Spectrum Setting ------------
Integration Time : 20ms
Average : 10
Boxcar : 0
Background removal :  enabled
linearity correction :  enabled
SC :  disabled
Intensity correction :  disabled
DWT denoise :  enabled
savitzky-golay :  disabled
FFT :  disabled
Running average :  disabled
Kalman :  disabled
High pass :  disabled
---------------BEGIN--------------------
Wavelength(nm)             Reflectance(%)
200.29               0
200.75        45.40628
201.21        41.42052
201.67        38.43129
202.13        37.32716
202.58        38.01035
203.04        40.56374
203.50          45.354
203.96        51.91526
204.42        59.10766
204.88        66.40781
205.34        71.57794
205.80        71.95734
206.26        67.68684
206.72        60.19702
207.18        52.83054
207.64        47.95601
208.10        45.40138
208.55        45.01941
209.01        45.98771
209.47         46.3962
209.93        45.64659
210.39        44.82808
210.85        45.42519
211.31        49.24752
211.77        58.18034
212.23        78.17206
212.69        126.9018
213.14        205.0837
213.60        195.4576
214.06        135.4808
214.52        96.65009
214.98         79.9257
215.44        73.44872
215.90        70.36062
216.36         69.6546
216.81        70.86489
217.27        74.09753
217.73         81.8348
218.19        92.23151
218.65        93.69804
219.11        84.12792
219.57        71.65311
220.02         64.3875
220.48         67.0229
220.94        79.26736
221.40        102.7841
221.86        137.8009
222.32        163.9413
222.77        160.7604
223.23        140.6931
223.69        118.5608
224.15        103.1865
224.61        94.15771
225.06        88.09157
225.52        84.85194
225.98        83.97065
226.44        84.97182
226.90        87.89155
227.36         91.8781
227.81        95.08757
228.27        97.00694
228.73        97.68503
229.19        98.01008
229.65         99.2737
230.10        101.5167
230.56        104.3905
231.02        106.6889
231.48        106.6117
231.93        104.0269
232.39        100.3211
232.85        96.81528
233.31        95.25427
233.77        95.75996
234.22         97.6058
234.68        100.0187
235.14        101.8716
235.60        102.6997
236.05        102.9263
236.51        102.1724
236.97        100.0566
237.43        96.70551
237.88        92.38746
238.34        88.00672
238.80        85.32173
239.26        84.89962
239.71        87.12495
240.17        91.53497
240.63        96.83107
241.08        102.0459
241.54        106.6896
242.00        111.0601
242.46        116.5081
242.91        124.8934
243.37        135.7552
243.83        150.1746
244.28        165.4785
244.74        172.2782
245.20        167.5561
245.66        155.7808
246.11        141.3621
246.57        125.8795
247.03        108.9893
247.48        90.97176
247.94        75.82169
248.40        67.04262
248.85        63.01359
249.31        62.20466
249.77        62.88451
250.22        64.42753
250.68        67.20992
251.14         71.2037
251.59        75.01072
252.05         77.2617
252.51        78.07325
252.96         77.0135
253.42        74.61363
253.88        71.48534
254.33        67.83327
254.79        65.84135
255.25        66.89821
255.70        70.66389
256.16        76.54835
256.62        82.14915
257.07        83.64399
257.53        81.83314
257.99        78.68495
258.44          75.951
258.90        75.70562
259.35        77.01995
259.81        79.41559
260.27        81.58975
260.72        82.00931
261.18         80.9948
261.63        78.94717
262.09        77.21753
262.55        76.57417
263.00        76.83953
263.46        77.80299
263.91         78.5128
264.37        78.22134
264.83        76.86824
265.28        74.84026
265.74        73.06345
266.19        72.26629
266.65        72.61687
267.11        73.66484
267.56         74.8496
268.02        75.30357
268.47        74.78207
268.93        73.63181
269.38         72.1561
269.84        70.90832
270.30        70.02733
270.75        69.30882
271.21        68.73044
271.66        68.18006
272.12        67.61418
272.57        67.04749
273.03        66.39836
273.48        65.47839
273.94        64.35326
274.39        63.03687
274.85        61.75824
275.31        60.62555
275.76        59.64429
276.22        58.85637
276.67        58.15805
277.13         57.5717
277.58        56.98027
278.04        56.39624
278.49        55.74863
278.95        55.11491
279.40         54.4146
279.86        53.75846
280.31        52.94384
280.77        51.86682
281.22        50.50179
281.68        49.03676
282.13        47.70248
282.59        46.96311
283.04        46.78851
283.50        47.04265
283.95        47.38374
284.41        47.30427
284.86        46.67531
285.32        45.71962
285.77         44.6481
286.22        43.84954
286.68        43.40604
287.13        43.13796
287.59        42.96252
288.04        42.69112
288.50        42.31053
288.95        41.86054
289.41        41.38847
289.86        40.85154
290.32        40.30949
290.77        39.73138
291.22        39.20701
291.68        38.85577
292.13        38.67374
292.59        38.64921
293.04        38.68942
293.50        38.67409
293.95         38.5647
294.40        38.40769
294.86         38.2779
295.31        38.28008
295.77        38.44593
296.22        38.71844
296.68        39.04996
297.13        39.34441
297.58        39.58305
298.04        39.80132
298.49        40.00771
298.95        40.23844
299.40         40.4921
299.85         40.7467
300.31        41.01649
300.76        41.31228
301.21        41.62529
301.67        41.95623
302.12        42.22404
302.58        42.37421
303.03        42.37355
303.48        42.28184
303.94        42.16866
304.39        42.09283
304.84        42.09179
305.30        42.15247
305.75        42.24712
306.20        42.39399
306.66         42.5903
307.11        42.81252
307.57        43.01665
308.02        43.07571
308.47        42.98856
308.93        42.79671
309.38        42.57606
309.83        42.50391
310.29        42.60973
310.74        42.83064
311.19         43.0562
311.65        43.10009
312.10        42.91296
312.55        42.55893
313.00        42.15023
313.46        41.85029
313.91        41.68698
314.36        41.62453
314.82        41.58498
315.27        41.45675
315.72        41.21071
316.18        40.90079
316.63        40.59155
317.08         40.3968
317.53        40.33527
317.99        40.35433
318.44        40.38921
318.89        40.32581
319.35        40.13225
319.80        39.84708
320.25        39.51455
320.70        39.20487
321.16         38.9446
321.61        38.73102
322.06        38.55193
322.51        38.39286
322.97         38.2393
323.42        38.09338
323.87        37.97528
324.32        37.92107
324.78        37.91536
325.23        37.96999
325.68        37.97395
326.13         37.7576
326.59        37.30063
327.04        36.67543
327.49        36.06188
327.94        35.74551
328.39          35.785
328.85        36.08805
329.30        36.51377
329.75        36.72226
330.20        36.60589
330.66        36.25242
331.11        35.81684
331.56        35.52652
332.01        35.45059
332.46        35.50212
332.92        35.59271
333.37        35.63513
333.82        35.56742
334.27        35.44347
334.72        35.26973
335.17        35.04327
335.63        34.77932
336.08        34.49677
336.53        34.25008
336.98        34.14774
337.43        34.20954
337.88        34.39856
338.34        34.64475
338.79        34.85704
339.24        34.97799
339.69         35.0327
340.14        35.00528
340.59        34.88147
341.05        34.68538
341.50        34.41675
341.95        34.16071
342.40        34.04913
342.85        34.10749
343.30        34.30349
343.75        34.54185
344.20        34.66183
344.66        34.62113
345.11        34.45722
345.56        34.25161
346.01        34.13571
346.46        34.14871
346.91        34.26129
347.36        34.39533
347.81        34.43349
348.26         34.3536
348.72        34.19065
349.17        34.04977
349.62        34.10912
350.07        34.39206
350.52        34.83538
350.97        35.26262
351.42        35.39418
351.87        35.17448
352.32        34.69857
352.77        34.16283
353.22        33.85723
353.67        33.84624
354.13        34.04369
354.58         34.3004
355.03        34.36664
355.48         34.1759
355.93        33.81596
356.38        33.41938
356.83        33.17734
357.28        33.13149
357.73        33.21118
358.18        33.31334
358.63        33.27894
359.08        33.06758
359.53        32.73871
359.98        32.37676
360.43        32.09982
360.88        31.93608
361.33        31.84586
361.78        31.77289
362.23        31.63291
362.68        31.40731
363.13        31.12951
363.58        30.84866
364.03        30.63435
364.48        30.50141
364.93        30.42408
365.38        30.36028
365.83        30.24647
366.28        30.06561
366.73        29.83668
367.18        29.59513
367.63        29.39468
368.08        29.24721
368.53        29.13617
368.98        29.02637
369.43        28.86185
369.88        28.63221
370.33        28.35895
370.78        28.08402
371.23        27.87696
371.68        27.75725
372.13        27.70213
372.58        27.67637
373.03        27.62333
373.48        27.52139
373.93        27.38214
374.38        27.21848
374.83        27.05303
375.28        26.89508
375.72        26.73343
376.17        26.57523
376.62        26.39935
377.07        26.20868
377.52        26.01562
377.97         25.8465
378.42        25.74438
378.87        25.71264
379.32        25.72462
379.77        25.75189
380.22        25.75312
380.67        25.71105
381.11        25.64408
381.56        25.52199
382.01        25.32902
382.46         25.0843
382.91         24.8134
383.36        24.57318
383.81        24.43799
384.26        24.41461
384.71        24.47453
385.15        24.57865
385.60         24.6599
386.05        24.68564
386.50        24.66497
386.95        24.58986
387.40        24.45339
387.85        24.26952
388.29        24.03984
388.74        23.82044
389.19        23.62935
389.64        23.47394
390.09        23.34394
390.54        23.25352
390.98        23.21658
391.43        23.24064
391.88        23.31338
392.33        23.38393
392.78        23.37911
393.23         23.2928
393.67        23.13935
394.12        22.99819
394.57        22.94352
395.02         22.9887
395.47        23.09692
395.91        23.22773
396.36        23.29871
396.81        23.29531
397.26        23.24691
397.71        23.15968
398.15        23.05698
398.60        22.97959
399.05        22.82754
399.50        22.65199
399.95          22.694
400.39        22.88534
400.84        22.81051
401.29        22.48999
401.74        22.31038
402.18        22.29634
402.63        22.21614
403.08        22.09195
403.53        22.05779
403.97        22.11705
404.42        22.23215
404.87        22.34871
405.32        22.37809
405.76        22.29828
406.21        22.14754
406.66        21.98379
407.11        21.90061
407.55        21.92619
408.00        22.02246
408.45        22.14079
408.90         22.1841
409.34        22.12131
409.79        21.98755
410.24        21.83339
410.68          21.721
411.13        21.67265
411.58        21.67081
412.03        21.67913
412.47        21.64067
412.92        21.53844
413.37        21.40193
413.81        21.28215
414.26        21.26936
414.71          21.367
415.15        21.55241
415.60        21.74966
416.05        21.84564
416.49        21.80843
416.94        21.67095
417.39        21.49826
417.83         21.3906
418.28        21.37432
418.73        21.41372
419.17        21.48165
419.62        21.53417
420.07         21.5553
420.51        21.56133
420.96        21.54929
421.41        21.50584
421.85        21.42878
422.30        21.31289
422.74        21.18626
423.19        21.18903
423.64        21.29556
424.08        21.35844
424.53        21.34877
424.98        21.38041
425.42        21.45926
425.87        21.45669
426.31        21.38931
426.76        21.44093
427.21        21.55703
427.65        21.42606
428.10        21.13719
428.54         21.0521
428.99        21.19738
429.44        21.45778
429.88        21.70761
430.33        21.66504
430.77        21.38179
431.22        21.30117
431.66        21.43253
432.11         21.4411
432.56        21.34541
433.00        21.37844
433.45        21.46481
433.89        21.44346
434.34        21.39944
434.78        20.95283
435.23        21.31948
435.67        21.37889
436.12        21.43552
436.57        21.39791
437.01         21.2898
437.46        21.23238
437.90        21.22562
438.35        21.18095
438.79        21.09955
439.24        21.05511
439.68        21.05139
440.13        21.06899
440.57        21.09823
441.02        21.14295
441.46        21.19283
441.91        21.18967
442.35         21.1339
442.80        21.23792
443.24        21.41175
443.69        21.29588
444.13        20.95584
444.58        20.82718
445.02        20.93436
445.47        21.05259
445.91        21.13832
446.36        21.22616
446.80        21.29364
447.24        21.33278
447.69        21.35139
448.13         21.3526
448.58        21.34643
449.02        21.33059
449.47        21.31212
449.91        21.29183
450.36        21.27872
450.80        21.26834
451.25        21.27544
451.69         21.3064
452.13        21.36095
452.58        21.42925
453.02        21.48753
453.47        21.50138
453.91        21.46436
454.36        21.39416
454.80        21.30221
455.24        21.20731
455.69        21.12756
456.13        21.04508
456.58        20.99784
457.02        21.00823
457.46        21.08394
457.91        21.21557
458.35        21.33773
458.79        21.35298
459.24        21.26329
459.68        21.08747
460.13        20.92115
460.57         20.8565
461.01        20.92906
461.46        21.09059
461.90         21.2935
462.34        21.44027
462.79         21.4908
463.23        21.47888
463.68        21.41574
464.12        21.33529
464.56        21.25081
465.01        21.17824
465.45        21.09608
465.89        21.03477
466.34         20.9969
466.78        20.97509
467.22         20.9772
467.67        20.99287
468.11        21.03017
468.55        21.08103
468.99        21.13341
469.44        21.16612
469.88        21.17679
470.32         21.1681
470.77        21.15734
471.21         21.1777
471.65        21.23222
472.10        21.31046
472.54        21.38844
472.98         21.4361
473.42        21.44604
473.87        21.43748
474.31        21.40822
474.75        21.37484
475.20         21.3505
475.64        21.32363
476.08        21.31152
476.52        21.32985
476.97        21.37835
477.41        21.46069
477.85         21.5606
478.29        21.61794
478.74         21.6398
479.18        21.69196
479.62        21.76254
480.06        21.79726
480.50        21.80177
480.95        21.78118
481.39        21.73574
481.83        21.87705
482.27        21.88437
482.72        22.00791
483.16        22.14867
483.60        22.24291
484.04         22.2586
484.48        22.37673
484.93        22.62587
485.37        22.39432
485.81        22.40533
486.25        22.72681
486.69        22.25107
487.14        22.53129
487.58        23.20921
488.02        23.21669
488.46        22.82956
488.90        23.18757
489.34        23.01833
489.79        23.38602
490.23        23.70598
490.67        23.78644
491.11        23.63797
491.55        23.55468
491.99        23.59727
492.43        23.62775
492.88        23.66505
493.32        23.79003
493.76        23.98352
494.20        24.18663
494.64        24.39075
495.08        24.57064
495.52        24.70793
495.96        24.91184
496.41        25.13754
496.85         25.0651
497.29        24.78096
497.73        24.95217
498.17        25.22389
498.61        25.44918
499.05        25.48254
499.49        25.55035
499.93        25.59944
500.37        25.76767
500.82        26.00644
501.26        26.16653
501.70        26.23125
502.14        26.29774
502.58        26.38694
503.02        26.48013
503.46        26.58119
503.90        26.69648
504.34        26.80383
504.78        26.86415
505.22        26.86932
505.66        26.83927
506.10        26.82237
506.54        26.81699
506.98        26.82098
507.42        26.97196
507.86        27.28298
508.30        27.00173
508.74        27.34546
509.18        27.34016
509.62        27.36363
510.06        27.40491
510.50        27.47702
510.94        27.55577
511.38        27.62776
511.82        27.70769
512.26        27.79185
512.70          27.879
513.14        27.94597
513.58        27.98941
514.02        28.01316
514.46        27.95496
514.90        27.82913
515.34        28.00898
515.78         27.9488
516.22        28.07503
516.66        28.18439
517.10        28.22749
517.54        28.18787
517.98        28.09639
518.42        27.98844
518.86        27.90557
519.30        27.86462
519.74        27.84854
520.18        27.85685
520.62        27.88835
521.06        27.93734
521.50        28.00917
521.93        28.07587
522.37        28.08006
522.81        28.01738
523.25        27.89982
523.69        27.77951
524.13        27.74019
524.57        27.79473
525.01        27.91388
525.45         28.0375
525.89        28.06756
526.32        27.97873
526.76        27.81365
527.20        27.61939
527.64        27.47127
528.08        27.39255
528.52        27.35871
528.96        27.35447
529.40        27.35699
529.83        27.35317
530.27        27.35239
530.71         27.3435
531.15        27.30894
531.59        27.24782
532.03        27.16426
532.46         27.0665
532.90        26.98975
533.34         26.9381
533.78        26.88827
534.22        26.84199
534.66        26.83347
535.09        26.84035
535.53        26.80056
535.97         26.7132
536.41        26.64661
536.85        26.60651
537.28        26.55207
537.72        26.50534
538.16        26.52237
538.60        26.60638
539.04        26.73769
539.47        26.87457
539.91        26.96988
540.35        27.00701
540.79         27.0053
541.22        26.98921
541.66        27.00756
542.10        27.07067
542.54        27.16289
542.97        27.27224
543.41        27.39215
543.85         27.5131
544.29        27.64321
544.72        27.76843
545.16         27.8841
545.60        27.98625
546.04        28.08025
546.47        28.18786
546.91        28.34125
547.35        28.53965
547.79        28.76763
548.22        28.99561
548.66        29.17248
549.10        29.32188
549.53        29.44798
549.97         29.5594
550.41        29.60371
550.84        29.62181
551.28        29.69472
551.72        29.81789
552.15        30.00668
552.59        30.29396
553.03        30.23201
553.46         30.7006
553.90        30.84823
554.34         30.9271
554.77        31.01121
555.21        31.03765
555.65        31.13241
556.08        31.26427
556.52        31.40711
556.96        31.53037
557.39        31.67574
557.83        31.81217
558.27        31.76747
558.70        31.60335
559.14        31.60716
559.57        31.77716
560.01        31.93751
560.45        32.05015
560.88        32.15879
561.32        32.26862
561.75        32.33497
562.19        32.38392
562.63        32.44947
563.06        32.53366
563.50        32.63149
563.93        32.70639
564.37        32.78625
564.80        32.88137
565.24        32.91075
565.68        32.82351
566.11        33.25235
566.55        33.00731
566.98        33.07431
567.42        33.15048
567.85        33.28176
568.29        33.47535
568.72        33.73776
569.16        34.07238
569.60        34.24238
570.03        34.34995
570.47         34.4927
570.90        34.73926
571.34        34.43892
571.77        34.73864
572.21        34.94065
572.64        34.86381
573.08         35.1275
573.51        35.13368
573.95        35.25282
574.38        35.42316
574.82        35.46836
575.25          35.413
575.69        35.55861
576.12        35.60752
576.56        35.65953
576.99        35.64741
577.42        35.73474
577.86        35.59533
578.29        35.83173
578.73        35.61165
579.16        35.62173
579.60        35.37364
580.03        35.46322
580.47        35.33671
580.90        35.43276
581.33        35.57779
581.77        35.36816
582.20        35.04488
582.64        34.99458
583.07        34.96041
583.51        34.88533
583.94        34.75515
584.37          34.759
584.81        34.87045
585.24        34.65162
585.68          34.215
586.11        34.17604
586.54        34.11568
586.98        34.01128
587.41        33.91498
587.85        33.89285
588.28        33.55911
588.71        33.85658
589.15        33.65073
589.58        33.71669
590.01        33.77409
590.45        33.87064
590.88        33.98392
591.31         33.9514
591.75        33.84449
592.18        33.76155
592.61        33.70162
593.05        34.16009
593.48         34.1568
593.91        34.14941
594.35        34.10304
594.78        34.08143
595.21        34.17024
595.65        34.43151
596.08        34.91887
596.51        34.92308
596.94        34.93222
597.38        35.01655
597.81        35.31538
598.24        35.74946
598.68        36.06892
599.11        36.05021
599.54        36.57973
599.97        36.32989
600.41        36.83829
600.84         36.8592
601.27        37.34326
601.70        37.42363
602.14        37.90473
602.57        38.29813
603.00        38.80805
603.43        38.73883
603.87        39.12123
604.30        39.59768
604.73        40.12702
605.16         40.2963
605.60        40.54451
606.03        40.71955
606.46        40.92455
606.89        41.63496
607.32        42.10244
607.76        42.30083
608.19        42.73148
608.62        42.88853
609.05        43.09547
609.48         43.3406
609.92        44.18901
610.35        44.38683
610.78        44.12648
611.21        44.52119
611.64        44.68922
612.07        45.14134
612.50        45.32414
612.94         45.6363
613.37        45.78638
613.80        46.00481
614.23         45.8058
614.66        46.07288
615.09        46.61331
615.52        46.94011
615.96        47.01257
616.39        47.19911
616.82        47.52477
617.25        47.54642
617.68        47.69245
618.11        47.86469
618.54         48.1654
618.97        48.43982
619.40        48.68456
619.84        48.80312
620.27        48.91376
620.70         49.0486
621.13        49.24018
621.56        48.81117
621.99        48.60575
622.42        48.52796
622.85        48.82583
623.28        48.89331
623.71        48.66605
624.14         49.0671
624.57        49.34021
625.00        48.89948
625.43        49.30215
625.86        49.27484
626.29          49.395
626.72        48.86938
627.15        49.16607
627.58        48.87672
628.01        48.71482
628.44        48.53928
628.87        48.49763
629.30         48.0024
629.73        47.81956
630.16        47.89056
630.59        47.50103
631.02        47.40182
631.45        47.31078
631.88        47.11332
632.31        46.75523
632.74         46.7314
633.17        46.23022
633.60        45.89289
634.03        45.48707
634.46         45.0409
634.89        44.57217
635.32        44.13519
635.75        43.75627
636.18        43.37377
636.61        43.00745
637.04        42.70844
637.47         42.4719
637.89        42.27383
638.32        42.06649
638.75        41.81583
639.18        41.51317
639.61        41.17296
640.04        40.82631
640.47         40.5203
640.90         40.2702
641.33        40.06892
641.76        39.90607
642.18        39.76875
642.61        39.64097
643.04        39.53232
643.47        39.45734
643.90        39.43616
644.33        39.46892
644.76        39.54826
645.18        39.63903
645.61        39.67772
646.04        39.65794
646.47        39.59789
646.90        39.55949
647.33        39.63418
647.75         39.8301
648.18        40.16684
648.61        40.59207
649.04        40.87508
649.47        40.96154
649.89        41.49779
650.32        41.44667
650.75        41.83298
651.18        42.32154
651.61        42.78532
652.03        43.24009
652.46        43.72023
652.89        44.18504
653.32        44.68021
653.74        45.28131
654.17        45.02214
654.60        45.83952
655.03        46.08599
655.46        45.97437
655.88        46.45585
656.31        47.58265
656.74        47.82948
657.16        48.90422
657.59        49.88876
658.02        48.29327
658.45        49.57346
658.87        49.44133
659.30         49.5909
659.73        49.69779
660.15         50.7173
660.58        50.16265
661.01        50.34578
661.44        50.56195
661.86        50.58157
662.29        50.42183
662.72        50.97977
663.14        51.23573
663.57        51.43959
664.00        51.38703
664.42        51.51532
664.85        52.07003
665.27        52.58028
665.70        52.98087
666.13        53.23358
666.55        53.31221
666.98        53.17141
667.41        52.89725
667.83        52.98004
668.26        52.91241
668.69        53.10234
669.11        53.33704
669.54        53.52688
669.96        53.64577
670.39        53.74026
670.82        53.83704
671.24        53.91402
671.67        53.99354
672.09        54.12965
672.52        54.31735
672.94        54.45268
673.37        54.53373
673.80        54.61033
674.22        54.69597
674.65        54.75813
675.07        54.81263
675.50        54.85637
675.92        54.89918
676.35        54.94689
676.77        55.00423
677.20        55.06871
677.62        55.14363
678.05        55.22822
678.47         55.3148
678.90        55.42528
679.32        55.55141
679.75        55.63456
680.17         55.6531
680.60        55.83866
681.02        55.82751
681.45        55.92601
681.87        56.02835
682.30        56.24294
682.72        56.41601
683.15        56.49614
683.57        56.49001
684.00        56.59843
684.42        56.82337
684.85        57.00948
685.27         57.1523
685.70        57.32734
686.12        57.48647
686.54          57.612
686.97        57.71151
687.39        57.44948
687.82        57.50645
688.24        57.44309
688.66        57.47084
689.09        57.55559
689.51        57.69571
689.94        57.81572
690.36        57.89437
690.78        57.99597
691.21        58.15811
691.63        58.13402
692.06        58.40633
692.48        58.59405
692.90        58.77718
693.33        58.85372
693.75        58.80808
694.17        58.63333
694.60        58.45351
695.02        58.47143
695.44        58.69526
695.87        59.13232
696.29        59.61158
696.71        59.53031
697.14         59.0117
697.56        58.90133
697.98        59.24023
698.41        59.42276
698.83         59.4422
699.25        59.71976
699.68        60.13847
700.10        60.34268
700.52        60.26724
700.94        60.02979
701.37        59.77577
701.79        59.74584
702.21        59.98722
702.64        60.39981
703.06        60.85924
703.48        61.14996
703.90        61.20911
704.33        61.11195
704.75        60.92654
705.17        60.75193
705.59         60.6379
706.01        60.55602
706.44        60.53749
706.86        60.64047
707.28        60.85067
707.70        61.18326
708.12        61.56708
708.55        61.79866
708.97        61.88355
709.39        62.01414
709.81        62.18384
710.23        62.24408
710.66        62.19373
711.08         62.1388
711.50         62.0865
711.92        62.02529
712.34        61.97562
712.76        61.94247
713.19        61.91319
713.61        61.95605
714.03        62.07326
714.45         62.0215
714.87        62.23647
715.29        62.40959
715.71        62.65641
716.13        62.93456
716.56        63.18678
716.98         63.3965
717.40        63.50616
717.82        63.53629
718.24        63.47495
718.66         63.3062
719.08        63.06105
719.50        62.77653
719.92        62.54002
720.34          62.479
720.76        62.61762
721.19        62.89576
721.61        63.28394
722.03        63.67806
722.45        64.01949
722.87        64.31503
723.29        64.50717
723.71        64.51257
724.13        64.33458
724.55        64.00901
724.97        63.64357
725.39        63.42623
725.81        63.41244
726.23        63.53551
726.65         63.7401
727.07        64.06956
727.49        64.25274
727.91        64.49458
728.33        64.70742
728.75         64.8664
729.17        64.95872
729.59        64.97448
730.01         64.9374
730.43        64.89388
730.85        64.86067
731.27        64.83487
731.69        64.80272
732.10        64.73788
732.52        64.63744
732.94        64.52618
733.36        64.46181
733.78        64.40707
734.20         64.3642
734.62        64.57765
735.04        65.06332
735.46        64.64974
735.88        65.23457
736.30        65.22258
736.72        65.26385
737.13        65.52118
737.55        65.90632
737.97        66.34776
738.39         66.6529
738.81        66.29717
739.23        65.48933
739.65        65.36467
740.06        65.86598
740.48        66.02809
740.90        65.81319
741.32        65.80177
741.74        66.00726
742.16        66.32689
742.57         66.3824
742.99        66.52942
743.41        66.62502
743.83        66.59931
744.25        66.45213
744.67        66.19865
745.08         65.9523
745.50        65.87508
745.92        66.00652
746.34        66.28182
746.75        66.60046
747.17        66.76878
747.59        66.74649
748.01         66.6485
748.42        66.50999
748.84        66.31356
749.26        66.15894
749.68        66.14319
750.09        66.26183
750.51        66.59894
750.93         66.9733
751.35        66.82996
751.76        66.26836
752.18         66.0074
752.60        66.08716
753.01        66.10172
753.43        66.04206
753.85        66.04412
754.27        66.09641
754.68        66.34048
755.10        66.73401
755.52        66.49174
755.93         66.5473
756.35        66.53619
756.77        66.78217
757.18        66.93054
757.60        66.97509
758.02        67.35902
758.43        67.92205
758.85        67.43961
759.26        67.19498
759.68        66.76771
760.10        66.62885
760.51         67.0234
760.93        67.71957
761.34        67.48003
761.76        68.04189
762.18        67.90604
762.59        67.77753
763.01        67.96667
763.42        68.45105
763.84        68.59772
764.26        68.31808
764.67        67.80401
765.09         67.2775
765.50        66.99763
765.92         67.0718
766.33        67.30395
766.75        67.49644
767.16        67.95195
767.58        67.78258
768.00        67.62328
768.41        67.41313
768.83        67.43411
769.24         67.6682
769.66        68.03001
770.07        68.35402
770.49        68.10338
770.90        67.49657
771.32        67.70606
771.73        68.61919
772.15         68.9296
772.56        68.58342
772.97        68.29023
773.39        68.19549
773.80        68.21734
774.22         68.3681
774.63        68.71653
775.05        69.07838
775.46        69.22755
775.88        69.07978
776.29        68.72409
776.70         68.3264
777.12        68.18418
777.53         68.3765
777.95        68.77135
778.36        69.22659
778.77        69.46378
779.19        69.42495
779.60        69.22338
780.02         68.9385
780.43        68.75982
780.84        68.76694
781.26        68.64883
781.67        68.50139
782.09        69.05828
782.50         70.0534
782.91        70.09882
783.33        69.26353
783.74         69.2129
784.15        69.34655
784.57        69.52511
784.98        69.51745
785.39        69.39548
785.81        69.26217
786.22        69.56917
786.63         70.1942
787.04        70.47026
787.46        70.35219
787.87        70.15057
788.28        70.00721
788.70        69.97549
789.11        70.03409
789.52        70.32678
789.93        70.68525
790.35        70.63113
790.76        70.20667
791.17         69.9313
791.58        69.94473
792.00        69.90793
792.41        69.83783
792.82        70.32988
793.23        71.07835
793.65        70.59431
794.06        69.25628
794.47        69.16268
794.88         70.1468
795.29        70.81382
795.71        70.15693
796.12        70.15468
796.53        70.56212
796.94         70.6209
797.35        70.39334
797.76        70.61234
798.18        71.18323
798.59        71.43134
799.00        71.28516
799.41         71.0983
799.82         70.9469
800.23        70.81191
800.64         70.7246
801.06        70.65953
801.47        70.64186
801.88        70.61791
802.29        70.57245
802.70        70.52095
803.11        70.46282
803.52        70.38925
803.93        70.32004
804.34         70.2747
804.75        70.28293
805.17        70.39603
805.58        70.75743
805.99        71.01022
806.40        71.17657
806.81        71.79336
807.22        72.57359
807.63        72.27712
808.04        71.12212
808.45        70.56553
808.86        70.74881
809.27        70.91974
809.68        70.94169
810.09        70.93755
810.50        70.86771
810.91        70.70213
811.32        70.58183
811.73        70.72617
812.14        71.16628
812.55        71.83559
812.96        72.50621
813.37        72.75311
813.78        72.46774
814.19        71.81081
814.60        71.04581
815.01        70.53024
815.42        70.35165
815.83        70.41125
816.24        70.62319
816.65        70.81899
817.05        70.92713
817.46        70.97229
817.87        70.99129
818.28        70.98401
818.69        70.96262
819.10        70.90237
819.51         70.8356
819.92        70.86653
820.33        71.01939
820.74        71.18943
821.14        71.33664
821.55        71.58937
821.96        71.83421
822.37        71.62479
822.78        71.10486
823.19        70.95641
823.60        71.26243
824.00        71.69917
824.41        72.07533
824.82        72.32095
825.23        72.36341
825.64        72.22929
826.04        72.01036
826.45        71.81529
826.86         71.7058
827.27        71.66573
827.68        71.65975
828.08        71.65227
828.49         71.5785
828.90        71.47212
829.31        71.40743
829.72        71.49866
830.12        71.78128
830.53        72.15759
830.94        72.47641
831.35        72.43608
831.75        72.00262
832.16         71.2715
832.57          70.502
832.97        70.08072
833.38        70.10542
833.79        70.42436
834.20        70.92433
834.60        71.42095
835.01        71.83203
835.42        72.25778
835.82        72.58592
836.23        72.54137
836.64        72.12918
837.04        71.38306
837.45        70.67387
837.86        70.67662
838.26        71.54037
838.67        73.04325
839.08        74.62978
839.48        75.24034
839.89        74.59622
840.29        73.07621
840.70        71.41309
841.11        70.47466
841.51        70.48369
841.92        71.14198
842.33         72.1629
842.73        73.03621
843.14        73.43918
843.54        73.58692
843.95         73.5534
844.35        73.50605
844.76        73.48968
845.17        73.42544
845.57        73.31042
845.98        73.13999
846.38        72.94372
846.79        72.74205
847.19        72.57867
847.60        72.47694
848.00        72.45455
848.41         72.4814
848.81        72.54321
849.22        72.53056
849.62        72.46233
850.03        72.34736
850.43        72.24894
850.84        72.20159
851.24        72.26431
851.65         72.3558
852.05        72.54131
852.46        72.81025
852.86        73.13113
853.27        73.48024
853.67        73.70063
854.07        73.69986
854.48        73.44241
854.88         72.9981
855.29        72.40796
855.69        71.89855
856.10        71.49607
856.50        71.24526
856.90         71.1216
857.31        71.09168
857.71        71.18293
858.12        71.32579
858.52        71.53136
858.92        71.69655
859.33        71.76112
859.73        71.78055
860.13        71.66978
860.54        71.32703
860.94         70.8121
861.34        70.16724
861.75        69.57093
862.15          69.354
862.55        69.56987
862.96        70.08909
863.36        70.79452
863.76        71.38104
864.17        71.70802
864.57        71.86339
864.97        71.79704
865.38        71.45776
865.78        70.90262
866.18        70.14205
866.58        69.36298
866.99        68.91155
867.39        68.91769
867.79        69.30021
868.19        69.88397
868.60        70.35101
869.00        70.63452
869.40        70.78348
869.80        70.86658
870.21        71.01041
870.61         71.3054
871.01        71.63805
871.41        71.87293
871.81        71.84516
872.22        71.53052
872.62        70.97408
873.02        70.40494
873.42        70.19538
873.82         70.4353
874.22        71.03177
874.63        71.65137
875.03        71.77981
875.43        71.29853
875.83        70.36551
876.23        69.38129
876.63        68.96167
877.03        69.24426
877.44         70.0302
877.84        70.93882
878.24        71.31923
878.64        70.97203
879.04        70.00716
879.44        68.92105
879.84        68.55012
880.24        69.02384
880.64        70.02752
881.04        71.07553
881.44        71.39676
881.84        70.80384
882.24        69.58672
882.65        68.21011
883.05        67.37744
883.45        67.29483
883.85        67.75056
884.25         68.4921
884.65        69.09264
885.05        69.38522
885.45        69.49285
885.85         69.5144
886.25        69.58772
886.65         69.7634
887.05        69.98724
887.45        70.17744
887.85        70.23103
888.25         70.1242
888.65        69.87984
889.04        69.65138
889.44        69.70017
889.84        70.03938
890.24        70.58682
890.64        71.06606
891.04        71.02657
891.44        70.40442
891.84        69.39621
892.24        68.33938
892.64        67.72338
893.04         67.6819
893.44        68.08682
893.83         68.7794
894.23        69.43362
894.63        69.93716
895.03        70.32835
895.43        70.67046
895.83        71.07711
896.23        71.54017
896.63        71.96835
897.02        72.17602
897.42        71.92642
897.82        71.21867
898.22        70.22274
898.62        69.19678
899.01          68.495
899.41        68.23872
899.81        68.31724
900.21        68.66277
900.61        69.14922
901.00        69.68649
901.40          70.278
901.80        70.80482
902.20        71.07721
902.59        71.07143
902.99        70.81912
903.39        70.44005
903.79        70.15495
904.18        70.02298
904.58          69.983
904.98        70.04148
905.38        70.20704
905.77        70.45692
906.17        70.82508
906.57        71.13108
906.96        71.06544
907.36        70.58259
907.76        69.80741
908.15        69.09654
908.55        68.99847
908.95        69.63012
909.34         70.8065
909.74         72.1366
910.14         73.0611
910.53        73.34719
910.93        73.15806
911.33        72.59799
911.72        71.82428
912.12        71.02702
912.52        70.21492
912.91        69.48421
913.31        69.00471
913.70        68.81654
914.10        68.84998
914.49        69.19989
914.89        69.89916
915.29        70.90282
915.68        72.17029
916.08        73.25161
916.47        73.49586
916.87        72.80794
917.26        71.37188
917.66        69.83383
918.05        69.01198
918.45        69.09534
918.84        69.91714
919.24        70.98698
919.64         71.5605
920.03        71.42634
920.42        70.77828
920.82        70.08256
921.21        70.00309
921.61        70.65939
922.00        71.84658
922.40        73.07204
922.79        73.63979
923.19        73.31935
923.58        72.40936
923.98        71.31155
924.37        70.52261
924.77        70.21157
925.16        70.18131
925.55        70.36421
925.95        70.63086
926.34        70.90429
926.74        71.19728
927.13        71.37411
927.52        71.13435
927.92         70.5056
928.31        69.59254
928.70        68.63828
929.10        67.99258
929.49        67.74596
929.89        67.74976
930.28        68.08333
930.67        68.74829
931.07        69.64127
931.46        70.81257
931.85        71.84161
932.24        72.09507
932.64        71.51385
933.03        70.25509
933.42        68.93309
933.82         68.4618
934.21        69.03669
934.60        70.44487
934.99        72.14452
935.39        73.14172
935.78        73.16405
936.17        72.39275
936.56        71.31254
936.96        70.68244
937.35        70.69912
937.74        71.13615
938.13        71.54715
938.53        71.26549
938.92        70.19828
939.31        68.66718
939.70         67.1904
940.09        66.47868
940.49        66.65092
940.88        67.49477
941.27        68.68054
941.66        69.59915
942.05        70.01178
942.44        70.10211
942.84         69.9852
943.23        69.83909
943.62        69.75978
944.01        69.64661
944.40        69.60201
944.79        69.83018
945.18         70.3422
945.57        71.09128
945.97        71.79911
946.36        72.07835
946.75        71.77652
947.14        71.03704
947.53        70.12732
947.92         69.4312
948.31        69.06623
948.70        68.96419
949.09        69.00423
949.48        68.97557
949.87        68.82294
950.26        68.60592
950.65        68.50019
951.04        68.78563
951.43        69.47996
951.82        70.44114
952.21        71.34332
952.60        71.67962
952.99        71.36463
953.38         70.6108
953.77        69.71018
954.16        69.12614
954.55        68.99187
954.94        69.12691
955.33        69.51317
955.72        70.10346
956.11        70.80142
956.50        71.64573
956.89        72.26054
957.28        72.01241
957.66        70.82781
958.05        68.97517
958.44        67.10284
958.83        66.15267
959.22        66.29868
959.61        67.27985
960.00        68.60534
960.39        69.33767
960.78        69.15893
961.16        68.35769
961.55        67.34853
961.94        66.64213
962.33        66.40611
962.72        66.50606
963.11        66.81264
963.49        67.14058
963.88        67.31924
964.27        67.39806
964.66        67.57914
965.04         68.1896
965.43        69.21665
965.82        70.61392
966.21        71.82897
966.60        71.84187
966.98        70.43154
967.37        68.06141
967.76        65.69159
968.15        64.52261
968.53        64.76018
968.92        66.12139
969.31        67.91484
969.69        68.74261
970.08        68.08609
970.47        66.43745
970.86        64.70419
971.24        64.15542
971.63        65.05027
972.02         67.0054
972.40        69.33517
972.79         70.4088
973.17        69.77582
973.56        68.03458
973.95        66.01192
974.33        64.75194
974.72        64.50854
975.11        64.92538
975.49        65.78051
975.88         66.5817
976.26         67.1441
976.65        67.58507
977.04        67.88166
977.42        67.94347
977.81        67.75087
978.19        67.26376
978.58        66.76269
978.96         66.7062
979.35        67.16377
979.74        68.06017
980.12        69.10621
980.51        69.52468
980.89        69.24619
981.28        68.47395
981.66        67.63747
982.05        67.33058
982.43        67.69337
982.82        68.51338
983.20        69.64138
983.59        70.66629
983.97        71.47932
984.35        72.15876
984.74        72.53288
985.12        72.57558
985.51        72.25491
985.89        71.60348
986.28        70.97938
986.66        70.85654
987.04        71.40267
987.43        72.48649
987.81        73.79069
988.20        74.51926
988.58        74.43245
988.96        73.62391
989.35         72.5396
989.73        71.82995
990.12        71.61407
990.50         71.7614
990.88        71.78085
991.27        70.85767
991.65        68.94217
992.03        66.47633
992.42        64.27423
992.80        63.35542
993.18        63.93342
993.56        65.71064
993.95        68.06169
994.33        69.93022
994.71        70.70488
995.10        70.70205
995.48        70.25104
995.86        70.00742
996.24        70.14656
996.63        70.25107
997.01        70.35496
997.39        70.23711
997.77        69.82714
998.15         69.4282
998.54        68.86673
998.92        67.66154
999.30        65.93333
999.68        63.86626
1000.06        62.28387
1000.45        62.33778
1000.83         64.3083
1001.21        67.98617
1001.59        72.39864
1001.97        75.12579
1002.35        75.19817
1002.73        73.32446
1003.12        70.89034
1003.50        69.65804
1003.88        70.16641
1004.26        71.76888
1004.64        74.09258
1005.02        76.28574
1005.40        77.75782
1005.78           78.85
1006.16        79.04071
1006.54        77.48137
1006.92        74.35593
1007.30        70.11169
1007.69        66.07809
1008.07        63.95409
1008.45        64.24689
1008.83        66.57932
1009.21        70.24033
1009.59        73.24431
1009.97        74.42574
1010.35        74.20816
1010.73        72.86562
1011.11        70.91801
1011.49        68.79677
1011.86        66.46339
1012.24        64.43487
1012.62        63.34521
1013.00        63.29532
1013.38        64.25298
1013.76        65.98063
1014.14         67.6599
1014.52        68.76452
1014.90        69.29133
1015.28        69.47491
1015.66        69.81091
1016.04        70.41801
1016.41        71.15419
1016.79         71.5695
1017.17        71.01919
1017.55        69.45847
1017.93        67.23616
1018.31         65.1395
1018.69        64.18291
1019.06         64.5853
1019.44        66.18374
1019.82        68.32069
1020.20        69.37492
1020.58        68.69624
1020.95        66.74244
1021.33        64.68978
1021.71        63.76853
1022.09         64.2291
1022.46        65.98161
1022.84        68.26387
1023.22        69.28926
1023.60        68.36496
1023.97        65.87801
1024.35        63.83621
1024.73        64.57114
