SpectraSmart Spectrum 2.9.0.0
--------- Device Information -----------
Spectrum Name :  反射率_0
Saving Time :  2024/04/26 22:56:45
Spectro-Module Model Name : SE2030-DUVN
Spectro-Module Serial Number : OS361AC55029948
Wavelength Start : 200
Wavelength End : 1025
Wavelength Unit : Wavelength(nm)
Spectrum Unit : Reflectance(%)
-----------Spectrum Setting ------------
Integration Time : 20ms
Average : 10
Boxcar : 0
Background removal :  enabled
linearity correction :  enabled
SC :  disabled
Intensity correction :  disabled
DWT denoise :  enabled
savitzky-golay :  disabled
FFT :  disabled
Running average :  disabled
Kalman :  disabled
High pass :  disabled
---------------BEGIN--------------------
Wavelength(nm)             Reflectance(%)
200.29               0
200.75        30.12098
201.21        33.35528
201.67        36.27393
202.13        37.59736
202.58        37.24147
203.04        35.92901
203.50        33.98995
203.96        32.53076
204.42        32.44204
204.88        33.22728
205.34        34.88332
205.80        37.25051
206.26        39.57315
206.72        41.52415
207.18        42.20424
207.64        40.57532
208.10        36.49081
208.55        29.70078
209.01        20.10064
209.47         14.0784
209.93        15.99468
210.39        21.84662
210.85        27.90626
211.31        33.44449
211.77        40.27386
212.23        52.97124
212.69        82.11826
213.14        128.4702
213.60        121.9793
214.06         85.3842
214.52        61.59542
214.98        51.09473
215.44        46.51627
215.90        43.67406
216.36        42.19216
216.81        41.90773
217.27        43.11515
217.73        47.64474
218.19        53.48063
218.65        51.72595
219.11        42.15625
219.57        31.34166
220.02        26.07838
220.48        30.18407
220.94        43.66071
221.40        68.60988
221.86        104.0943
222.32        126.2348
222.77        115.3676
223.23        87.91193
223.69        61.50766
224.15        45.86087
224.61        39.14684
225.06        36.58622
225.52         36.8562
225.98        38.93406
226.44        42.14616
226.90        46.79119
227.36        51.40211
227.81        53.14285
228.27        51.68176
228.73        47.90475
229.19        43.88922
229.65        42.09601
230.10        42.67825
230.56        44.87639
231.02        47.23164
231.48        47.43966
231.93        45.23205
232.39        41.96532
232.85        39.04791
233.31        38.27927
233.77        39.77736
234.22        42.74055
234.68        46.24372
235.14        49.00567
235.60        50.53237
236.05        51.24195
236.51        51.04003
236.97        49.82229
237.43         47.7854
237.88        45.03942
238.34        42.31553
238.80        41.02625
239.26        41.70685
239.71        44.73618
240.17        49.97139
240.63        56.25269
241.08        62.49636
241.54        68.07276
242.00        73.11455
242.46        79.04958
242.91        87.65686
243.37        99.19628
243.83        113.6539
244.28        124.7305
244.74        122.7703
245.20         108.449
245.66        92.60885
246.11        83.89483
246.57        82.48184
247.03        85.72145
247.48        89.02928
247.94        85.18806
248.40        75.91098
248.85        65.96623
249.31        58.52039
249.77        54.60283
250.22        53.24119
250.68        53.29454
251.14        54.26781
251.59        54.82073
252.05        54.57663
252.51        54.79635
252.96        54.28345
253.42        52.13368
253.88        48.82337
254.33          44.581
254.79        42.36915
255.25        44.67863
255.70        50.90157
256.16        59.81798
256.62        67.24436
257.07         67.0407
257.53        61.03301
257.99        53.32985
258.44        47.26114
258.90        45.52197
259.35         46.8878
259.81        50.02032
260.27        53.11592
260.72        53.99704
261.18        52.78881
261.63        50.34544
262.09        48.03584
262.55        46.82755
263.00        46.62325
263.46        47.03156
263.91        47.28295
264.37        46.68506
264.83        45.21241
265.28        43.25521
265.74        41.48607
266.19        40.45245
266.65        40.26996
267.11        40.60522
267.56        41.12366
268.02         41.3073
268.47        40.99277
268.93        40.36799
269.38        39.53735
269.84         38.7088
270.30        37.94642
270.75        37.17354
271.21        36.44463
271.66        35.80205
272.12        35.25585
272.57        34.79675
273.03         34.3727
273.48        33.87114
273.94        33.31279
274.39        32.69736
274.85        32.12238
275.31        31.60338
275.76        31.12363
276.22         30.6929
276.67        30.27401
277.13        29.89593
277.58        29.51232
278.04        29.14965
278.49        28.72959
278.95        28.24527
279.40        27.66041
279.86        27.05436
280.31        26.44427
280.77        25.94424
281.22        25.53863
281.68        25.24751
282.13        25.00405
282.59        24.78861
283.04        24.56068
283.50        24.33567
283.95        24.12869
284.41        23.97889
284.86        23.88395
285.32        23.84328
285.77         23.7878
286.22        23.67455
286.68        23.50012
287.13        23.25699
287.59        23.01522
288.04        22.84111
288.50          22.769
288.95        22.75393
289.41        22.75169
289.86        22.64066
290.32        22.43428
290.77        22.16184
291.22        21.91642
291.68        21.82196
292.13        21.89467
292.59        22.10833
293.04        22.39252
293.50        22.65532
293.95        22.86132
294.40        23.04124
294.86         23.2399
295.31        23.52011
295.77        23.89887
296.22        24.33907
296.68        24.79915
297.13        25.20768
297.58        25.55116
298.04        25.85118
298.49        26.14048
298.95        26.48433
299.40        26.88832
299.85        27.33328
300.31        27.77639
300.76         28.1452
301.21         28.4294
301.67        28.66767
302.12        28.88412
302.58        29.16595
303.03        29.50196
303.48        29.87055
303.94        30.24219
304.39        30.54913
304.84        30.78007
305.30           30.96
305.75        31.07249
306.20         31.1414
306.66         31.1866
307.11        31.19946
307.57        31.19499
308.02        31.15547
308.47        31.09435
308.93        31.02279
309.38        30.96432
309.83        30.99426
310.29        31.11471
310.74        31.29395
311.19        31.44701
311.65        31.43119
312.10        31.21855
312.55        30.86173
313.00        30.46616
313.46        30.19019
313.91        30.05884
314.36        30.02726
314.82        30.02982
315.27        29.96749
315.72        29.80616
316.18        29.59206
316.63        29.33856
317.08        29.07602
317.53         28.8192
317.99         28.5505
318.44        28.29624
318.89        28.09418
319.35        27.94931
319.80        27.85174
320.25        27.76332
320.70        27.61951
321.16        27.40196
321.61        27.13682
322.06        26.84829
322.51        26.58232
322.97         26.3516
323.42        26.14451
323.87        25.96043
324.32        25.80336
324.78        25.65826
325.23        25.53914
325.68        25.40012
326.13        25.17367
326.59        24.85015
327.04        24.45889
327.49        24.06266
327.94        23.76157
328.39        23.57494
328.85        23.46922
329.30        23.40437
329.75        23.26274
330.20        23.01837
330.66        22.70576
331.11        22.40426
331.56        22.21986
332.01        22.17774
332.46        22.23737
332.92        22.32418
333.37        22.35048
333.82        22.26719
334.27        22.10167
334.72        21.89246
335.17        21.70197
335.63        21.55528
336.08        21.45521
336.53        21.37847
336.98        21.29576
337.43        21.19951
337.88        21.09034
338.34        21.01571
338.79        21.07292
339.24        21.25896
339.69        21.53784
340.14        21.77734
340.59        21.76961
341.05        21.48791
341.50        21.00621
341.95         20.4852
342.40        20.17087
342.85        20.12496
343.30         20.2713
343.75        20.51144
344.20         20.6819
344.66        20.72634
345.11        20.69034
345.56        20.60079
346.01         20.4987
346.46        20.40739
346.91        20.31354
347.36        20.22134
347.81         20.1468
348.26        20.09496
348.72        20.06698
349.17        20.07196
349.62        20.12889
350.07        20.23167
350.52        20.36953
350.97        20.48748
351.42        20.50024
351.87        20.39248
352.32        20.18958
352.77        19.96055
353.22        19.80873
353.67        19.75676
354.13        19.77931
354.58        19.81787
355.03        19.77934
355.48        19.64284
355.93         19.4434
356.38        19.24026
356.83        19.11896
357.28        19.09422
357.73         19.1316
358.18        19.17884
358.63         19.1541
359.08        19.03654
359.53        18.85746
359.98        18.65274
360.43        18.47249
360.88        18.33223
361.33        18.21574
361.78        18.11546
362.23        18.02217
362.68        17.93105
363.13        17.84636
363.58        17.76329
364.03        17.67153
364.48          17.566
364.93        17.44465
365.38        17.31065
365.83         17.1718
366.28        17.03505
366.73        16.90696
367.18        16.78433
367.63        16.66019
368.08        16.53592
368.53        16.41233
368.98        16.31223
369.43        16.27124
369.88        16.28905
370.33        16.34884
370.78        16.40211
371.23        16.37035
371.68        16.23466
372.13        16.01892
372.58        15.77086
373.03        15.56794
373.48        15.43472
373.93        15.35178
374.38        15.29546
374.83        15.22721
375.28        15.13268
375.72        15.01827
376.17        14.90605
376.62          14.806
377.07         14.7225
377.52        14.65484
377.97        14.58388
378.42         14.4839
378.87        14.35521
379.32        14.20529
379.77        14.08045
380.22        14.04749
380.67        14.11139
381.11        14.25446
381.56        14.39545
382.01        14.40805
382.46        14.26724
382.91        14.02282
383.36        13.76205
383.81        13.60684
384.26         13.5797
384.71         13.6384
385.15        13.73301
385.60        13.78445
386.05        13.76436
386.50        13.70338
386.95         13.6156
387.40        13.52135
387.85        13.43381
388.29        13.33679
388.74        13.26152
389.19        13.22414
389.64        13.22288
390.09        13.24953
390.54        13.27807
390.98        13.26034
391.43        13.19478
391.88        13.09538
392.33        12.98466
392.78        12.89512
393.23        12.83451
393.67        12.78625
394.12        12.75456
394.57        12.71957
395.02        12.67599
395.47        12.62628
395.91        12.57692
396.36        12.52933
396.81        12.49425
397.26        12.47276
397.71        12.45683
398.15        12.44237
398.60        12.44294
399.05        12.40661
399.50        12.35638
399.95        12.41796
400.39        12.55255
400.84        12.52827
401.29        12.35595
401.74        12.25056
402.18        12.22633
402.63        12.15955
403.08        12.06023
403.53         11.9979
403.97        11.97774
404.42        11.98283
404.87        11.99829
405.32        11.99708
405.76        11.96936
406.21         11.9278
406.66        11.88536
407.11         11.8649
407.55        11.87421
408.00        11.89925
408.45        11.92354
408.90        11.91358
409.34        11.86193
409.79        11.78369
410.24        11.70266
410.68        11.64709
411.13        11.62643
411.58        11.62964
412.03        11.64178
412.47        11.63853
412.92        11.60892
413.37        11.56626
413.81        11.51873
414.26        11.48621
414.71        11.46884
415.15         11.4618
415.60        11.45915
416.05        11.45991
416.49        11.46331
416.94        11.47035
417.39        11.47549
417.83        11.46893
418.28        11.44796
418.73        11.41154
419.17        11.37478
419.62        11.36295
420.07        11.37976
420.51        11.41531
420.96        11.44561
421.41        11.43089
421.85        11.36301
422.30        11.25631
422.74        11.13766
423.19         11.0979
423.64        11.12752
424.08        11.14174
424.53        11.12696
424.98        11.14867
425.42         11.2087
425.87        11.24051
426.31        11.23424
426.76         11.2574
427.21        11.27677
427.65        11.13809
428.10        10.91856
428.54        10.85354
428.99        10.96314
429.44        11.16702
429.88        11.37167
430.33        11.38833
430.77        11.23444
431.22        11.15796
431.66         11.1714
432.11        11.11307
432.56        11.00286
433.00        10.93731
433.45        10.89635
433.89        10.87872
434.34        10.91504
434.78        10.70204
435.23        10.85605
435.67        10.87425
436.12        10.90958
436.57        10.86851
437.01        10.77098
437.46        10.71889
437.90        10.71873
438.35        10.71283
438.79        10.69673
439.24        10.69966
439.68        10.72029
440.13        10.75015
440.57        10.78333
441.02        10.81871
441.46        10.84978
441.91        10.84628
442.35        10.80775
442.80         10.8402
443.24        10.89849
443.69        10.80222
444.13        10.59122
444.58        10.49841
445.02        10.53674
445.47        10.58867
445.91        10.62778
446.36        10.66299
446.80         10.6809
447.24        10.68277
447.69        10.66863
448.13        10.63326
448.58        10.58281
449.02        10.51634
449.47        10.45603
449.91        10.43311
450.36        10.45436
450.80        10.50878
451.25        10.57062
451.69          10.593
452.13        10.56682
452.58        10.50417
453.02        10.42908
453.47        10.38288
453.91        10.37583
454.36        10.39573
454.80        10.41991
455.24         10.4107
455.69        10.36423
456.13        10.28931
456.58        10.21755
457.02        10.17706
457.46        10.17976
457.91        10.21293
458.35        10.25217
458.79        10.26072
459.24        10.23909
459.68        10.19165
460.13        10.14938
460.57        10.13062
461.01        10.14884
461.46        10.18533
461.90        10.23252
462.34        10.26801
462.79        10.28038
463.23        10.28077
463.68        10.26244
464.12        10.22188
464.56         10.1618
465.01        10.09883
465.45          10.035
465.89        10.00115
466.34        10.00042
466.78        10.02291
467.22        10.06103
467.67        10.09067
468.11        10.10896
468.55        10.11633
468.99         10.1174
469.44        10.11903
469.88        10.12382
470.32        10.12882
470.77        10.13206
471.21        10.13389
471.65        10.13314
472.10        10.13237
472.54        10.13171
472.98        10.13574
473.42        10.14417
473.87        10.15761
474.31        10.16535
474.75        10.16138
475.20        10.14779
475.64        10.12498
476.08        10.10167
476.52        10.08484
476.97        10.07862
477.41        10.08737
477.85        10.11423
478.29        10.14867
478.74        10.19593
479.18         10.2778
479.62        10.37943
480.06        10.46039
480.50        10.51475
480.95        10.54599
481.39        10.54638
481.83        10.60868
482.27        10.58023
482.72        10.58941
483.16        10.60783
483.60        10.63473
484.04        10.65234
484.48        10.76545
484.93        11.00031
485.37        10.95122
485.81        10.90234
486.25        11.35595
486.69        10.88653
487.14        10.88361
487.58        11.59608
488.02        11.40211
488.46        11.26745
488.90        11.32224
489.34        11.20743
489.79        11.39817
490.23        11.60919
490.67        11.77326
491.11        11.83756
491.55        11.80921
491.99        11.74514
492.43        11.76492
492.88        11.88958
493.32        12.04404
493.76        12.19527
494.20        12.33202
494.64        12.44536
495.08        12.51932
495.52        12.56753
495.96        12.67963
496.41        12.84292
496.85        12.89221
497.29        12.84446
497.73        12.99816
498.17        13.16135
498.61         13.2746
499.05        13.27819
499.49        13.31416
499.93        13.36309
500.37        13.48886
500.82        13.65848
501.26        13.78143
501.70        13.84431
502.14        13.90221
502.58        13.96976
503.02        14.04149
503.46        14.12106
503.90        14.21082
504.34        14.29419
504.78        14.34394
505.22        14.35616
505.66         14.3399
506.10        14.32218
506.54        14.34591
506.98        14.41975
507.42        14.53039
507.86        14.65067
508.30        14.73488
508.74        14.77169
509.18        14.77728
509.62         14.7715
510.06        14.78714
510.50        14.83368
510.94        14.89683
511.38        14.97185
511.82        15.05197
512.26        15.13063
512.70        15.21106
513.14        15.27719
513.58        15.30212
514.02        15.28362
514.46        15.22998
514.90         15.1697
515.34        15.15002
515.78        15.18181
516.22        15.25117
516.66        15.33284
517.10        15.38462
517.54        15.39442
517.98        15.37558
518.42        15.34134
518.86        15.31326
519.30        15.29824
519.74        15.28694
520.18        15.27735
520.62        15.26735
521.06        15.25549
521.50        15.24634
521.93        15.23499
522.37        15.20563
522.81        15.16018
523.25        15.10248
523.69        15.04842
524.13        15.02322
524.57        15.02915
525.01        15.05511
525.45        15.08202
525.89         15.0789
526.32        15.03662
526.76        14.97097
527.20        14.89105
527.64        14.81233
528.08        14.74318
528.52        14.67987
528.96        14.63148
529.40        14.61228
529.83        14.62073
530.27        14.65065
530.71        14.68178
531.15        14.68223
531.59        14.64358
532.03        14.57396
532.46        14.48291
532.90         14.3981
533.34        14.32588
533.78        14.25276
534.22        14.18096
534.66        14.12959
535.09        14.08986
535.53        14.03419
535.97        13.96434
536.41        13.91803
536.85         13.8976
537.28        13.87656
537.72        13.87075
538.16        13.91611
538.60        14.01131
539.04        14.14294
539.47        14.26647
539.91        14.32318
540.35        14.30243
540.79         14.2276
541.22        14.14702
541.66        14.14347
542.10        14.23379
542.54        14.39011
542.97        14.57432
543.41        14.73165
543.85        14.84234
544.29        14.92638
544.72        14.99058
545.16        15.05599
545.60        15.12894
546.04        15.20401
546.47        15.29292
546.91        15.41506
547.35         15.5693
547.79        15.74539
548.22        15.92245
548.66        16.07433
549.10        16.20789
549.53        16.30255
549.97        16.37761
550.41        16.44817
550.84        16.54019
551.28        16.67752
551.72        16.83829
552.15        17.00794
552.59        17.19895
553.03        17.16106
553.46          17.412
553.90        17.50519
554.34        17.59307
554.77        17.67621
555.21        17.76165
555.65        17.84539
556.08        17.92192
556.52        17.98494
556.96        18.03833
557.39        18.13692
557.83        18.26782
558.27        18.32043
558.70        18.30607
559.14        18.35419
559.57        18.45564
560.01        18.52108
560.45        18.54749
560.88        18.58863
561.32        18.65603
561.75        18.71571
562.19        18.77308
562.63        18.83311
563.06        18.89252
563.50        18.95292
563.93        19.00048
564.37         19.0616
564.80        19.14415
565.24        19.19671
565.68        19.17937
566.11        19.44764
566.55        19.30502
566.98        19.33451
567.42        19.37438
567.85        19.47628
568.29        19.64943
568.72        19.88563
569.16        20.17314
569.60         20.3694
570.03         20.5344
570.47        20.68909
570.90        20.87426
571.34        20.85226
571.77         21.1393
572.21        21.29059
572.64        21.41536
573.08        21.63652
573.51        21.62653
573.95        21.75543
574.38         21.9437
574.82        21.98016
575.25        21.82678
575.69        21.91518
576.12        22.19518
576.56        22.24923
576.99        22.29016
577.42        22.23355
577.86        22.23263
578.29        22.55017
578.73        22.34922
579.16        22.27407
579.60        22.06246
580.03        22.06339
580.47          21.994
580.90         22.0795
581.33        22.13025
581.77        22.03868
582.20        21.88303
582.64         21.7565
583.07        21.68958
583.51         21.4892
583.94         21.2442
584.37         21.1672
584.81        21.24487
585.24        21.15895
585.68        20.96422
586.11        20.65376
586.54        20.75092
586.98         20.5994
587.41        20.52704
587.85        20.58971
588.28        20.30919
588.71        20.43479
589.15        20.28678
589.58        20.44947
590.01        20.40279
590.45        20.43761
590.88        20.44341
591.31        20.32429
591.75        20.17996
592.18        20.16737
592.61        20.25424
593.05        20.53785
593.48        20.84029
593.91        20.31887
594.35        20.60478
594.78        20.46031
595.21        20.57238
595.65        20.70931
596.08        20.97058
596.51        21.03717
596.94        21.02952
597.38        21.15778
597.81        21.47411
598.24        21.72991
598.68        21.91074
599.11         22.2792
599.54        22.60694
599.97        22.48135
600.41         23.0009
600.84        23.10431
601.27        23.48373
601.70        23.77905
602.14        24.19781
602.57        24.55464
603.00        24.93729
603.43         25.0038
603.87        25.71368
604.30        26.13782
604.73        26.45692
605.16        26.68331
605.60        26.92514
606.03        27.21462
606.46        27.60543
606.89        27.83963
607.32        28.58186
607.76         29.0248
608.19        29.34942
608.62         29.6034
609.05        29.87831
609.48        30.29031
609.92        31.17411
610.35         31.3182
610.78         31.0576
611.21        31.38662
611.64         31.7482
612.07        32.26714
612.50        32.54784
612.94        32.88462
613.37        33.18627
613.80        33.56783
614.23         33.5726
614.66        33.77895
615.09        34.18347
615.52        34.48154
615.96        34.65004
616.39        35.10114
616.82        35.22305
617.25        35.42125
617.68        35.55511
618.11        35.89038
618.54        36.36951
618.97        36.61976
619.40         36.6443
619.84        36.87628
620.27        37.03495
620.70        37.22475
621.13        37.33364
621.56        37.32669
621.99        37.25078
622.42        37.29773
622.85        37.46684
623.28        37.58412
623.71        37.64332
624.14        37.73719
624.57        37.87115
625.00         37.9142
625.43        37.85484
625.86        37.76672
626.29        37.69152
626.72        37.42543
627.15        37.45935
627.58        37.36809
628.01        37.22696
628.44        37.07418
628.87        36.93904
629.30        36.32272
629.73          35.952
630.16        35.86881
630.59        35.55596
631.02        35.27786
631.45        35.26293
631.88        35.01432
632.31        34.64392
632.74        34.18162
633.17        33.68531
633.60        33.21923
634.03        32.80465
634.46        32.42484
634.89        32.04581
635.32        31.62156
635.75        31.14545
636.18        30.60881
636.61        30.06273
637.04        29.59903
637.47        29.23279
637.89        28.93131
638.32         28.6485
638.75        28.34028
639.18        27.99468
639.61        27.63125
640.04         27.2779
640.47        26.97264
640.90        26.72402
641.33        26.52149
641.76         26.3507
642.18        26.17858
642.61        25.98993
643.04        25.82775
643.47        25.72034
643.90        25.55644
644.33        25.58607
644.76        25.60319
645.18        25.65432
645.61        25.68554
646.04         25.6913
646.47        25.68526
646.90        25.70026
647.33        25.78865
647.75        25.95488
648.18        26.21598
648.61        26.55087
649.04        26.82243
649.47        26.99568
649.89        27.51405
650.32        27.67794
650.75        28.08182
651.18        28.52691
651.61        29.07273
652.03        29.67756
652.46        30.24339
652.89         30.7601
653.32        31.14214
653.74        31.47922
654.17        32.01043
654.60        32.61555
655.03        33.07171
655.46        33.20789
655.88        33.77348
656.31        35.44586
656.74        37.01492
657.16        38.32026
657.59        39.49218
658.02        37.42229
658.45        37.38695
658.87        37.36295
659.30        37.95148
659.73        38.40277
660.15         39.0204
660.58        39.14316
661.01        39.32652
661.44         39.5294
661.86        39.77767
662.29        40.03426
662.72        40.58652
663.14        40.64934
663.57        40.85631
664.00        41.04976
664.42        41.37093
664.85        41.83706
665.27        42.40476
665.70        42.96223
666.13        43.24837
666.55         43.4627
666.98        43.41916
667.41        43.27544
667.83         43.4544
668.26        43.54902
668.69        43.87411
669.11        44.25744
669.54        44.62498
669.96        44.94382
670.39        45.29065
670.82        45.63973
671.24        45.79379
671.67        45.80832
672.09        45.97256
672.52         46.2856
672.94        46.48669
673.37        46.57077
673.80        46.66912
674.22        46.79998
674.65        46.90825
675.07        47.00188
675.50        47.09884
675.92        47.21283
676.35        47.30046
676.77        47.35252
677.20        47.61891
677.62        47.65791
678.05        47.84162
678.47        48.03179
678.90         48.2394
679.32        48.43131
679.75        48.56593
680.17        48.63472
680.60        48.67056
681.02        48.71553
681.45        48.76548
681.87        48.86961
682.30        49.16494
682.72        49.57794
683.15        49.77072
683.57        49.74706
684.00        49.75657
684.42        49.85834
684.85        49.99052
685.27        50.16021
685.70        50.42008
686.12        50.69743
686.54        50.85965
686.97        50.88259
687.39        50.81514
687.82        50.70496
688.24        50.66205
688.66        50.72412
689.09        50.80773
689.51        50.90826
689.94         51.1514
690.36        51.46777
690.78        51.47876
691.21         51.2858
691.63        51.45561
692.06        51.95012
692.48        52.25277
692.90        52.31624
693.33         52.3513
693.75        52.33565
694.17        52.26606
694.60        52.26266
695.02        51.91772
695.44        52.07539
695.87         52.5367
696.29         53.3074
696.71         53.2769
697.14        52.59256
697.56        52.43659
697.98        52.98057
698.41        53.20475
698.83        53.14215
699.25        53.34494
699.68         53.7214
700.10        53.89488
700.52        53.80864
700.94        53.58422
701.37         53.3506
701.79        53.32288
702.21         53.5449
702.64        53.92754
703.06        54.35937
703.48        54.65351
703.90        54.75652
704.33        54.71805
704.75        54.60219
705.17        54.54538
705.59        54.55732
706.01        54.52232
706.44        54.43336
706.86        54.51688
707.28        54.74413
707.70        55.14411
708.12         55.5854
708.55        55.62532
708.97        55.34859
709.39        55.37888
709.81        55.72256
710.23        55.86523
710.66        55.79019
711.08        55.83026
711.50        55.96551
711.92        56.02044
712.34        55.99178
712.76        55.94346
713.19         55.8863
713.61        55.86751
714.03        55.89149
714.45        55.94429
714.87        56.04246
715.29         56.2191
715.71        56.46664
716.13        56.75858
716.56        57.02711
716.98        57.24057
717.40        57.34664
717.82        57.34338
718.24        57.24311
718.66        57.11696
719.08        56.99364
719.50        56.74744
719.92         56.4665
720.34        56.42216
720.76        56.64769
721.19        56.84151
721.61        57.27231
722.03        57.62103
722.45        57.92298
722.87        58.17292
723.29         58.3213
723.71        58.28649
724.13        58.06443
724.55        57.72076
724.97        57.37408
725.39        57.14207
725.81        57.06131
726.23        57.40443
726.65        57.52238
727.07        57.89179
727.49        58.08718
727.91        58.31541
728.33        58.50797
728.75        58.67365
729.17         58.8141
729.59        58.90245
730.01        58.93995
730.43        58.96302
730.85        58.98434
731.27        58.95388
731.69         58.8562
732.10        58.92832
732.52        58.75998
732.94        58.66777
733.36        58.56299
733.78        58.46726
734.20        58.41049
734.62        58.31618
735.04         58.8094
735.46        58.27201
735.88        58.71126
736.30        58.52142
736.72        59.00797
737.13        59.52384
737.55        60.06417
737.97        60.30223
738.39        60.17563
738.81        59.67739
739.23        59.07043
739.65        59.15917
740.06         59.7937
740.48        60.08801
740.90        59.99534
741.32         59.7434
741.74        60.05156
742.16        60.09863
742.57        60.08461
742.99        60.09746
743.41        60.12277
743.83        60.01977
744.25         59.8245
744.67        59.73352
745.08        59.78771
745.50        59.86994
745.92        59.97822
746.34        60.18264
746.75        60.42173
747.17        60.50377
747.59        60.40799
748.01        60.29054
748.42        60.18347
748.84        59.95851
749.26         59.7593
749.68        59.92436
750.09        60.37878
750.51        60.85971
750.93        61.15436
751.35        60.93052
751.76        60.33604
752.18        59.98088
752.60        59.90199
753.01        60.05212
753.43        59.90037
753.85        59.82018
754.27         59.9568
754.68        60.23051
755.10        60.64212
755.52        60.45779
755.93        60.23405
756.35        60.26416
756.77        60.66931
757.18        60.88342
757.60        60.84511
758.02        61.36777
758.43        62.23298
758.85        61.30842
759.26        60.91159
759.68        60.27345
760.10        60.11725
760.51        60.86199
760.93        61.53592
761.34        60.96796
761.76        61.62293
762.18         61.2557
762.59        60.92023
763.01        61.17943
763.42        61.96339
763.84        62.24206
764.26        61.92811
764.67        61.44494
765.09        61.06676
765.50         61.1717
765.92        61.64541
766.33         61.7867
766.75        61.46042
767.16        61.02388
767.58         60.6557
768.00        60.60051
768.41         60.9128
768.83        61.51463
769.24        62.10153
769.66        62.10889
770.07        61.62973
770.49        61.13987
770.90        60.92893
771.32        61.52965
771.73         62.6629
772.15         63.1367
772.56        62.85104
772.97        62.35032
773.39        61.90367
773.80        61.93781
774.22        62.39027
774.63        62.62346
775.05        62.50916
775.46        62.49356
775.88        62.53142
776.29        62.33629
776.70        61.99142
777.12        61.83325
777.53        61.91465
777.95        62.08971
778.36        62.30175
778.77        62.42064
779.19        62.43064
779.60        62.42665
780.02        62.38229
780.43        62.33435
780.84        62.37616
781.26         62.1265
781.67        61.75065
782.09        62.55795
782.50        64.16993
782.91        63.56499
783.33         62.5299
783.74        61.93243
784.15        62.35391
784.57        62.71371
784.98        62.87255
785.39        62.64178
785.81        62.20755
786.22        62.62059
786.63        63.67756
787.04        64.09824
787.46        63.80705
787.87        63.42076
788.28        63.13279
788.70        63.17632
789.11        63.07479
789.52        63.45646
789.93        63.96749
790.35        63.80123
790.76        63.10624
791.17         63.0247
791.58        63.56577
792.00        63.69286
792.41        63.38794
792.82        63.48542
793.23        63.88584
793.65        63.58405
794.06        62.83163
794.47        62.90052
794.88        63.87963
795.29         64.2397
795.71        63.94394
796.12        64.00454
796.53        64.37967
796.94        63.98235
797.35        63.06107
797.76        63.22491
798.18        64.31837
798.59        64.74714
799.00         64.3809
799.41        64.12383
799.82         64.0983
800.23        64.08724
800.64        64.11687
801.06        64.20187
801.47        64.32178
801.88        64.36277
802.29        64.29113
802.70        64.12555
803.11        63.89804
803.52        63.67091
803.93          63.497
804.34        63.37987
804.75        63.32927
805.17        63.45631
805.58        63.81575
805.99        64.01676
806.40        64.10252
806.81        64.97187
807.22        66.20574
807.63        65.89536
808.04        64.34179
808.45        63.67825
808.86        64.11272
809.27        64.59628
809.68        64.87768
810.09        64.97398
810.50         64.7993
810.91        64.39373
811.32        64.01292
811.73        64.00307
812.14        64.43279
812.55        65.28081
812.96        66.23705
813.37        66.50034
813.78        66.00416
814.19        65.43371
814.60        64.96516
815.01         64.4371
815.42        63.92238
815.83         63.5883
816.24        63.46223
816.65        63.46485
817.05        63.59293
817.46        63.87072
817.87        64.20785
818.28        64.40288
818.69        64.41277
819.10        64.24797
819.51        64.05461
819.92        64.11739
820.33        64.49287
820.74        65.08161
821.14         65.6664
821.55        65.89985
821.96        65.70902
822.37        65.21017
822.78         64.6093
823.19        64.25447
823.60        64.25737
824.00        64.53777
824.41         64.9248
824.82        65.22076
825.23        65.33302
825.64        65.32578
826.04        65.24277
826.45        65.10999
826.86        64.97266
827.27        64.83208
827.68        64.69102
828.08         64.5934
828.49        64.50421
828.90        64.42239
829.31        64.43227
829.72        64.66308
830.12        65.13741
830.53        65.76539
830.94        66.30627
831.35         66.3073
831.75        65.70335
832.16        64.63014
832.57        63.48933
832.97         62.9005
833.38         63.0146
833.79        63.61956
834.20        64.45557
834.60        65.10316
835.01        65.42465
835.42        65.58589
835.82        65.61172
836.23        65.47045
836.64        65.22868
837.04        64.84199
837.45        64.53157
837.86        64.73344
838.26        65.53323
838.67        66.78529
839.08        68.06457
839.48        68.54597
839.89        68.01884
840.29        66.77271
840.70        65.41911
841.11         64.6739
841.51        64.72505
841.92        65.33613
842.33        66.26004
842.73        67.05415
843.14        67.42889
843.54        67.55219
843.95         67.5154
844.35        67.51372
844.76        67.59025
845.17         67.6792
845.57        67.68498
845.98        67.44641
846.38        66.97624
846.79        66.34394
847.19        65.76902
847.60        65.56525
848.00        65.79862
848.41        66.33834
848.81        66.96449
849.22        67.22709
849.62         67.0444
850.03        66.53706
850.43        65.89931
850.84        65.38577
851.24        65.13745
851.65         65.0201
852.05        65.10876
852.46         65.4192
852.86        65.90394
853.27        66.54054
853.67        67.08554
854.07         67.3079
854.48        67.14876
854.88        66.68315
855.29        66.03647
855.69        65.58498
856.10        65.39289
856.50          65.453
856.90        65.61034
857.31        65.61099
857.71        65.43823
858.12        65.11467
858.52        64.81932
858.92        64.73274
859.33        64.88416
859.73        65.24293
860.13        65.61735
860.54        65.72067
860.94         65.5227
861.34        65.09525
861.75        64.62074
862.15        64.43934
862.55        64.61616
862.96        65.01602
863.36        65.51296
863.76        65.81283
864.17        65.80793
864.57        65.61848
864.97        65.28613
865.38        64.88013
865.78        64.47741
866.18        64.05851
866.58        63.70613
866.99        63.57282
867.39        63.71045
867.79         64.0667
868.19        64.54665
868.60        64.97103
869.00        65.30831
869.40        65.57306
869.80        65.74567
870.21        65.80293
870.61        65.79977
871.01        65.68446
871.41        65.47915
871.81        65.22141
872.22        64.91943
872.62        64.57555
873.02        64.23432
873.42        63.95399
873.82        63.75997
874.22        63.65552
874.63        63.58633
875.03        63.47802
875.43        63.30191
875.83        63.07845
876.23        62.88851
876.63        62.86008
877.03        63.01664
877.44        63.29002
877.84        63.58396
878.24        63.75859
878.64        63.72419
879.04        63.37469
879.44        62.91935
879.84        62.79527
880.24         63.0463
880.64        63.50774
881.04        63.89744
881.44        63.78352
881.84        63.09106
882.24        61.99523
882.65        60.86908
883.05        60.27835
883.45        60.36863
883.85        60.97995
884.25        61.83974
884.65        62.47134
885.05        62.71615
885.45        62.71252
885.85        62.61413
886.25        62.66308
886.65        62.92189
887.05        63.27594
887.45         63.6429
887.85        63.90732
888.25        64.01981
888.65        64.03267
889.04         63.9478
889.44        63.78691
889.84        63.55788
890.24        63.25281
890.64        62.93433
891.04        62.71346
891.44         62.6186
891.84        62.64011
892.24        62.69421
892.64         62.6337
893.04        62.44848
893.44        62.20878
893.83        62.03644
894.23        62.08193
894.63        62.39163
895.03        62.86244
895.43        63.42958
895.83         63.9975
896.23        64.48557
896.63        64.89341
897.02        65.07423
897.42        64.83258
897.82        64.17537
898.22        63.21992
898.62        62.21935
899.01        61.54112
899.41        61.30044
899.81        61.40047
900.21        61.72668
900.61         62.0745
901.00        62.35105
901.40        62.58534
901.80        62.77434
902.20        62.91193
902.59        63.00941
902.99        63.05329
903.39        63.01547
903.79        62.86796
904.18        62.62025
904.58        62.29884
904.98        62.06457
905.38        62.15928
905.77        62.61629
906.17        63.38829
906.57        64.18967
906.96        64.54025
907.36        64.31579
907.76        63.65636
908.15        62.95566
908.55        62.82955
908.95        63.41183
909.34        64.50488
909.74        65.64683
910.14        66.16022
910.53        65.84012
910.93        64.95009
911.33        63.79877
911.72        62.84254
912.12        62.30693
912.52        62.06667
912.91        62.05164
913.31         62.1765
913.70        62.39095
914.10        62.69308
914.49        63.13651
914.89        63.70396
915.29        64.37228
915.68        65.11149
916.08        65.66162
916.47        65.69439
916.87        65.18305
917.26        64.21764
917.66         63.2355
918.05         62.7557
918.45        62.88487
918.84        63.52692
919.24        64.28304
919.64        64.56907
920.03        64.24012
920.42        63.46002
920.82        62.63689
921.21        62.34167
921.61        62.69264
922.00        63.53629
922.40        64.51055
922.79         65.1143
923.19        65.14243
923.58        64.77805
923.98        64.26489
924.37        63.89799
924.77        63.78474
925.16        63.79307
925.55        63.85617
925.95         63.8555
926.34        63.76557
926.74        63.62559
927.13         63.4409
927.52        63.13712
927.92        62.76483
928.31        62.33634
928.70        61.95692
929.10        61.75953
929.49        61.76154
929.89        61.88384
930.28        62.16129
930.67        62.54269
931.07        62.95522
931.46        63.45745
931.85         63.8539
932.24         63.8801
932.64        63.54095
933.03        62.89266
933.42        62.26004
933.82        62.10789
934.21        62.52654
934.60        63.41862
934.99        64.46748
935.39        65.09491
935.78         65.1645
936.17        64.75076
936.56        64.14399
936.96        63.79602
937.35        63.82059
937.74        64.08836
938.13        64.32053
938.53        64.10796
938.92        63.39893
939.31        62.39161
939.70        61.41581
940.09        60.92145
940.49        60.97358
940.88         61.4462
941.27        62.14117
941.66        62.68532
942.05        62.93621
942.44        63.01981
942.84        62.98599
943.23        62.90483
943.62        62.82857
944.01        62.68388
944.40        62.59296
944.79         62.7871
945.18        63.27373
945.57        63.97961
945.97        64.58286
946.36        64.62444
946.75        63.97704
947.14        62.86541
947.53        61.62473
947.92         60.7245
948.31        60.30123
948.70        60.22993
949.09         60.4509
949.48        60.84862
949.87        61.34442
950.26        61.96765
950.65        62.60962
951.04        63.08655
951.43        63.33193
951.82        63.33072
952.21        63.17667
952.60        63.05772
952.99         63.0457
953.38        63.13942
953.77        63.23642
954.16        63.17178
954.55        62.90578
954.94        62.43946
955.33         62.0142
955.72        62.03858
956.11        62.58326
956.50        63.55701
956.89        64.41866
957.28        64.26225
957.66        62.94042
958.05        60.83404
958.44        58.73331
958.83        57.76323
959.22        58.13351
959.61        59.51123
960.00        61.28116
960.39        62.28346
960.78        62.12713
961.16        61.17654
961.55         59.9635
961.94         59.1794
962.33        59.03474
962.72        59.33794
963.11        59.89786
963.49        60.40104
963.88        60.63633
964.27         60.7029
964.66        60.82609
965.04        61.36108
965.43        62.31308
965.82        63.60627
966.21        64.74303
966.60        64.81097
966.98        63.60027
967.37        61.53522
967.76        59.43628
968.15        58.31815
968.53         58.3641
968.92        59.33525
969.31        60.68796
969.69        61.32956
970.08        60.84203
970.47        59.60927
970.86        58.34865
971.24        58.06061
971.63        58.95739
972.02        60.76021
972.40        62.87096
972.79        63.86373
973.17        63.34735
973.56        61.79031
973.95        60.02817
974.33         59.1502
974.72        59.38272
975.11        60.37933
975.49        61.66506
975.88        62.27736
976.26        61.94121
976.65         60.9563
977.04        59.75883
977.42        58.95808
977.81         58.7157
978.19        58.83037
978.58         59.2499
978.96        59.86126
979.35         60.5512
979.74        61.36619
980.12        62.23844
980.51        62.78855
980.89        63.03612
981.28        63.03104
981.66        62.90295
982.05        62.84563
982.43        62.94508
982.82        63.10579
983.20        63.53787
983.59        64.50842
983.97        66.06434
984.35        68.05118
984.74        69.79253
985.12        70.39485
985.51        69.59756
985.89        67.76072
986.28        65.59579
986.66        64.08366
987.04        63.56881
987.43         63.7548
987.81        64.45902
988.20         65.1824
988.58        65.68343
988.96        66.00072
989.35        66.08894
989.73        65.86586
990.12        65.33648
990.50        64.56063
990.88          63.484
991.27        62.14348
991.65        60.70238
992.03        59.23851
992.42        58.23271
992.80        58.28285
993.18        59.46607
993.56         61.6762
993.95        64.13495
994.33        65.47064
994.71        65.12736
995.10        63.57013
995.48        61.70688
995.86        61.01077
996.24        61.83167
996.63        63.63974
997.01        65.99267
997.39        67.59093
997.77        67.85047
998.15        67.26974
998.54        66.07716
998.92        64.46548
999.30        62.72928
999.68        60.82678
1000.06        59.32495
1000.45        59.01436
1000.83        60.08316
1001.21        62.43552
1001.59        65.39007
1001.97        67.18473
1002.35        67.15199
1002.73        65.83928
1003.12        64.18269
1003.50        63.32396
1003.88        63.63457
1004.26        64.58308
1004.64        66.09657
1005.02        67.93848
1005.40        69.76056
1005.78        71.76385
1006.16        72.96853
1006.54        71.83217
1006.92        68.41906
1007.30        63.37125
1007.69        58.63158
1008.07        56.83408
1008.45        58.68732
1008.83        63.64682
1009.21        70.21962
1009.59        74.54236
1009.97        74.71003
1010.35        71.80659
1010.73        67.31609
1011.11        63.45039
1011.49        61.00566
1011.86        59.35964
1012.24        58.53112
1012.62        58.58446
1013.00        59.43697
1013.38        61.27911
1013.76        63.81455
1014.14        65.93229
1014.52        66.99716
1014.90        67.04897
1015.28        66.47735
1015.66        66.07343
1016.04         66.0502
1016.41        66.14842
1016.79        66.21503
1017.17        66.08563
1017.55        65.68585
1017.93        65.16357
1018.31         64.5515
1018.69        63.75615
1019.06        62.80997
1019.44        61.80223
1019.82         60.7753
1020.20        59.97131
1020.58        59.53067
1020.95        59.17932
1021.33        59.34951
1021.71        60.50972
1022.09        62.72534
1022.46        66.30308
1022.84        69.90615
1023.22        70.32018
1023.60        66.63098
1023.97        59.88555
1024.35        53.70587
1024.73        52.24877
