SpectraSmart Spectrum 2.9.0.0
--------- Device Information -----------
Spectrum Name :  反射率_0
Saving Time :  2024/04/26 22:58:12
Spectro-Module Model Name : SE2030-DUVN
Spectro-Module Serial Number : OS361AC55029948
Wavelength Start : 200
Wavelength End : 1025
Wavelength Unit : Wavelength(nm)
Spectrum Unit : Reflectance(%)
-----------Spectrum Setting ------------
Integration Time : 20ms
Average : 10
Boxcar : 0
Background removal :  enabled
linearity correction :  enabled
SC :  disabled
Intensity correction :  disabled
DWT denoise :  enabled
savitzky-golay :  disabled
FFT :  disabled
Running average :  disabled
Kalman :  disabled
High pass :  disabled
---------------BEGIN--------------------
Wavelength(nm)             Reflectance(%)
200.29               0
200.75        25.05119
201.21        22.59156
201.67        20.86145
202.13        20.88148
202.58        22.64296
203.04        26.62458
203.50         32.2115
203.96        36.28717
204.42        36.55568
204.88         32.8418
205.34        27.69874
205.80        26.60773
206.26        30.39304
206.72        36.33845
207.18        41.19578
207.64        42.25893
208.10        39.28729
208.55         32.6825
209.01        22.31716
209.47        14.73801
209.93        15.24063
210.39         20.2918
210.85        25.53405
211.31        29.25531
211.77        32.50636
212.23        37.67724
212.69         51.3213
213.14        85.78458
213.60         104.685
214.06        95.41593
214.52        83.41653
214.98        76.01295
215.44        70.83248
215.90        65.24361
216.36        60.01454
216.81        56.67972
217.27        56.04757
217.73         59.1807
218.19        64.97227
218.65        66.43971
219.11        61.80947
219.57        55.47033
220.02        52.55573
220.48        56.72524
220.94        68.32136
221.40        89.35067
221.86        119.2098
222.32        138.4181
222.77         130.503
223.23        108.6912
223.69        87.96318
224.15        76.90386
224.61        73.60384
225.06        73.42999
225.52        75.07417
225.98        77.06643
226.44        78.99654
226.90         81.6861
227.36        83.97185
227.81        83.61556
228.27        80.84175
228.73        76.47071
229.19        72.95486
229.65        73.24677
230.10        77.27639
230.56        83.90044
231.02        90.67503
231.48        93.63443
231.93        91.99239
232.39        87.81776
232.85        83.06132
233.31        80.23431
233.77        79.73421
234.22        80.64236
234.68        82.24481
235.14        83.58781
235.60        84.27536
236.05        84.76703
236.51        84.83158
236.97        84.12347
237.43        82.62334
237.88        80.39041
238.34        77.92394
238.80        76.40884
239.26        76.26559
239.71        77.93446
240.17        80.85651
240.63        83.85478
241.08        86.20122
241.54        87.28692
242.00        88.59745
242.46        93.52612
242.91        104.8499
243.37        124.0899
243.83        150.9788
244.28        170.9336
244.74        164.3938
245.20        133.9146
245.66        99.42806
246.11         76.5015
246.57        65.03226
247.03        59.88655
247.48        58.69231
247.94        58.15615
248.40        57.29254
248.85        57.04465
249.31        56.88544
249.77        55.60366
250.22        52.87341
250.68        48.19565
251.14        42.60054
251.59        40.63581
252.05        44.75575
252.51        52.85545
252.96        60.36622
253.42        63.59264
253.88        63.03992
254.33        60.26886
254.79        58.60352
255.25         60.6949
255.70        66.28645
256.16        74.25749
256.62        81.36223
257.07        82.61817
257.53        79.26866
257.99        74.35297
258.44        70.29936
258.90         69.5049
259.35        70.90703
259.81        73.67901
260.27        76.37025
260.72        77.25696
261.18        76.54507
261.63        74.71368
262.09        73.02859
262.55        72.18795
263.00        72.06947
263.46        72.50922
263.91        72.71278
264.37        72.11307
264.83        70.67222
265.28        68.70364
265.74        67.00661
266.19        66.17793
266.65         66.3466
267.11        67.10841
267.56        67.97041
268.02        68.16572
268.47        67.49216
268.93         66.2823
269.38        64.77213
269.84        63.40637
270.30        62.31071
270.75        61.30444
271.21        60.49635
271.66        59.98089
272.12        59.72298
272.57          59.665
273.03        59.49194
273.48        58.65088
273.94        57.16594
274.39        55.23207
274.85        53.33342
275.31        51.95379
275.76        51.15265
276.22        50.78633
276.67        50.63503
277.13        50.52945
277.58        50.29888
278.04        50.03619
278.49        49.59099
278.95        48.90364
279.40        47.92643
279.86        46.79879
280.31        45.59359
280.77        44.58529
281.22        43.76792
281.68        43.15791
282.13        42.65469
282.59        42.24112
283.04        41.83634
283.50        41.47725
283.95        41.11537
284.41        40.71291
284.86        40.25685
285.32        39.78608
285.77        39.30748
286.22        38.91567
286.68        38.62274
287.13        38.36462
287.59        38.12209
288.04        37.80335
288.50        37.42543
288.95        36.97999
289.41        36.53321
289.86        36.09108
290.32        35.70886
290.77        35.36715
291.22        35.07426
291.68        34.82053
292.13        34.59526
292.59        34.42455
293.04        34.34919
293.50         34.4602
293.95        34.74965
294.40        35.18137
294.86        35.66956
295.31        36.06761
295.77        36.35289
296.22        36.56335
296.68        36.76567
297.13        37.04584
297.58        37.44025
298.04        37.91507
298.49        38.46147
298.95        39.08907
299.40        39.76366
299.85        40.47272
300.31        41.15099
300.76        41.68057
301.21        42.04585
301.67        42.29575
302.12        42.46407
302.58        42.67955
303.03        42.94404
303.48         43.2476
303.94         43.5841
304.39        43.89722
304.84        44.18478
305.30        44.46988
305.75        44.72093
306.20        44.94917
306.66        45.16972
307.11         45.3686
307.57        45.54643
308.02        45.64656
308.47        45.68038
308.93        45.65984
309.38        45.64255
309.83          45.778
310.29        46.07581
310.74        46.48028
311.19        46.82837
311.65        46.85015
312.10        46.49289
312.55        45.85288
313.00         45.1451
313.46        44.68822
313.91        44.54151
314.36        44.62873
314.82        44.78344
315.27        44.74401
315.72        44.43861
316.18        43.96608
316.63        43.46047
317.08        43.14348
317.53        43.06143
317.99        43.12712
318.44         43.2198
318.89        43.13829
319.35        42.83023
319.80        42.36432
320.25        41.84705
320.70        41.44357
321.16        41.19965
321.61         41.0809
322.06        41.00577
322.51        40.84779
322.97        40.56508
323.42        40.19695
323.87        39.82837
324.32        39.60049
324.78        39.52463
325.23         39.5775
325.68        39.60629
326.13         39.3694
326.59        38.82522
327.04        38.08188
327.49        37.32922
327.94        36.86207
328.39        36.74799
328.85        36.88121
329.30        37.16249
329.75        37.33174
330.20        37.29082
330.66        37.09919
331.11        36.82531
331.56        36.55228
332.01        36.31664
332.46         36.0787
332.92        35.81931
333.37        35.57998
333.82        35.35076
334.27         35.1479
334.72        34.97968
335.17        34.84034
335.63        34.72507
336.08        34.65784
336.53        34.61415
336.98        34.56761
337.43        34.50924
337.88        34.42633
338.34        34.35336
338.79        34.39224
339.24        34.53502
339.69        34.74764
340.14        34.91501
340.59         34.8544
341.05        34.54885
341.50        34.07037
341.95        33.55853
342.40        33.22351
342.85        33.12212
343.30        33.18797
343.75        33.35899
344.20        33.53069
344.66        33.65862
345.11        33.77006
345.56        33.83816
346.01        33.82167
346.46        33.72424
346.91        33.55167
347.36        33.36492
347.81        33.27044
348.26         33.2888
348.72        33.39128
349.17         33.5191
349.62        33.58801
350.07        33.57426
350.52        33.51106
350.97        33.41217
351.42        33.30135
351.87         33.1939
352.32        33.07691
352.77        32.98059
353.22        32.95116
353.67        32.98773
354.13        33.07726
354.58        33.15654
355.03        33.11838
355.48        32.94125
355.93        32.66024
356.38        32.35386
356.83        32.13998
357.28          32.043
357.73        32.02488
358.18        32.02438
358.63        31.94279
359.08        31.75407
359.53        31.49183
359.98        31.19904
360.43        30.93632
360.88        30.71515
361.33        30.50989
361.78        30.29634
362.23        30.03994
362.68        29.74043
363.13         29.4283
363.58        29.11707
364.03        28.82039
364.48        28.54627
364.93        28.28383
365.38        28.06691
365.83        27.95179
366.28        27.93804
366.73        28.00406
367.18        28.06314
367.63        27.97966
368.08        27.72877
368.53        27.35148
368.98        26.94303
369.43        26.65837
369.88         26.5375
370.33        26.53582
370.78        26.58078
371.23        26.54958
371.68        26.40595
372.13        26.19069
372.58        25.95322
373.03        25.76972
373.48        25.65939
373.93        25.58807
374.38        25.52504
374.83        25.42802
375.28        25.28274
375.72        25.10139
376.17        24.90845
376.62        24.70462
377.07        24.50045
377.52        24.30131
377.97        24.11828
378.42        23.97499
378.87        23.87446
379.32        23.79879
379.77        23.75252
380.22        23.73977
380.67        23.75015
381.11        23.79165
381.56        23.78835
382.01        23.64125
382.46        23.35115
382.91        22.96934
383.36        22.61548
383.81        22.45539
384.26        22.50874
384.71         22.7141
385.15         22.9744
385.60        23.12469
386.05        23.11011
386.50        22.98316
386.95         22.7798
387.40        22.55988
387.85        22.35733
388.29        22.14421
388.74        21.97579
389.19        21.87797
389.64        21.84699
390.09        21.87063
390.54        21.90911
390.98         21.8853
391.43        21.79638
391.88        21.66736
392.33        21.52331
392.78        21.40141
393.23        21.31367
393.67        21.23472
394.12        21.19468
394.57        21.19808
395.02        21.23864
395.47        21.30623
395.91        21.37074
396.36        21.36676
396.81        21.29486
397.26        21.18212
397.71        21.05508
398.15        20.96714
398.60        20.95576
399.05        20.91412
399.50        20.86609
399.95        21.00281
400.39        21.25202
400.84        21.23235
401.29        20.95716
401.74        20.78211
402.18        20.73128
402.63        20.59036
403.08        20.39344
403.53        20.28584
403.97        20.28062
404.42        20.34618
404.87        20.43022
405.32        20.44344
405.76        20.36311
406.21        20.22373
406.66        20.08552
407.11        20.04612
407.55        20.12907
408.00        20.29201
408.45        20.46488
408.90        20.51464
409.34        20.40567
409.79        20.19079
410.24        19.94877
410.68         19.7819
411.13        19.72234
411.58        19.73924
412.03        19.79548
412.47        19.82901
412.92        19.81056
413.37        19.76524
413.81        19.71697
414.26          19.716
414.71         19.7637
415.15        19.84975
415.60        19.92992
416.05        19.94993
416.49        19.89843
416.94         19.7918
417.39        19.68143
417.83         19.6435
418.28        19.69261
418.73        19.80168
419.17        19.92537
419.62        19.99022
420.07        19.97729
420.51        19.90825
420.96        19.81531
421.41        19.74337
421.85        19.69943
422.30         19.6599
422.74        19.61324
423.19        19.63303
423.64        19.68493
424.08        19.65298
424.53        19.54043
424.98        19.50251
425.42        19.56148
425.87        19.58391
426.31        19.56942
426.76        19.66239
427.21        19.80188
427.65        19.70737
428.10        19.45783
428.54        19.38045
428.99        19.50287
429.44        19.72462
429.88        19.93311
430.33         19.8762
430.77        19.60453
431.22        19.52006
431.66        19.64725
432.11        19.69927
432.56        19.69172
433.00        19.84938
433.45        20.06052
433.89        20.04725
434.34        19.89321
434.78         19.3743
435.23        19.64491
435.67        19.63573
436.12        19.64123
436.57         19.6112
437.01         19.5561
437.46        19.54301
437.90        19.56032
438.35        19.53886
438.79        19.47624
439.24        19.43395
439.68        19.41617
440.13        19.40453
440.57        19.39694
441.02        19.41224
441.46        19.44683
441.91        19.44427
442.35        19.40318
442.80        19.51536
443.24        19.69584
443.69        19.61316
444.13        19.32282
444.58        19.21924
445.02        19.32286
445.47        19.42823
445.91        19.49454
446.36        19.55392
446.80        19.58752
447.24        19.58807
447.69        19.57145
448.13        19.55405
448.58        19.54623
449.02        19.54125
449.47        19.53271
449.91        19.50056
450.36        19.44969
450.80        19.38541
451.25        19.33225
451.69        19.31306
452.13        19.33341
452.58        19.37934
453.02        19.42889
453.47        19.45014
453.91        19.43395
454.36        19.39483
454.80        19.33496
455.24        19.25791
455.69         19.1769
456.13        19.07892
456.58        19.00417
457.02        18.98252
457.46        19.02428
457.91        19.11835
458.35        19.20735
458.79        19.20497
459.24        19.11386
459.68        18.95294
460.13        18.80356
460.57        18.74041
461.01        18.79432
461.46        18.92202
461.90        19.09085
462.34        19.22987
462.79        19.30591
463.23        19.34489
463.68        19.33713
464.12        19.28129
464.56        19.18341
465.01        19.06831
465.45        18.94282
465.89        18.86932
466.34        18.85535
466.78        18.88527
467.22        18.94068
467.67        18.96802
468.11        18.96337
468.55        18.93197
468.99        18.89672
469.44        18.89252
469.88        18.92807
470.32        18.98839
470.77         19.0512
471.21        19.08598
471.65        19.08266
472.10        19.05498
472.54        19.01626
472.98        18.99386
473.42        18.99573
473.87        19.01976
474.31        19.04534
474.75        19.05935
475.20        19.06306
475.64        19.05555
476.08        19.05358
476.52         19.0689
476.97         19.1033
477.41        19.16481
477.85        19.24644
478.29        19.28088
478.74        19.32159
479.18         19.3873
479.62        19.47681
480.06        19.53408
480.50        19.55948
480.95        19.55614
481.39        19.51974
481.83        19.63499
482.27         19.6155
482.72        19.69164
483.16        19.77986
483.60        19.83499
484.04        19.83751
484.48        19.93602
484.93        20.16255
485.37        20.03123
485.81        20.18817
486.25        20.52035
486.69        20.02487
487.14        20.35432
487.58        21.26784
488.02        20.89207
488.46        20.74076
488.90        20.77681
489.34        20.74823
489.79        20.96277
490.23        21.10543
490.67        21.31134
491.11        21.49658
491.55        21.49799
491.99        21.37495
492.43        21.37175
492.88         21.5173
493.32        21.67025
493.76        21.79929
494.20        21.93673
494.64        22.08229
495.08         22.1843
495.52        22.26215
495.96        22.49329
496.41        22.83278
496.85        22.92002
497.29        22.79103
497.73        23.04104
498.17        23.33044
498.61        23.51362
499.05          23.475
499.49         23.4724
499.93        23.47323
500.37        23.59077
500.82        23.78708
501.26        23.93625
501.70        24.02249
502.14        24.13596
502.58        24.27718
503.02        24.39524
503.46        24.48618
503.90        24.56303
504.34        24.62527
504.78        24.67297
505.22        24.70997
505.66        24.73803
506.10         24.7671
506.54        24.81362
506.98        24.88159
507.42        24.96669
507.86        25.06397
508.30        25.16339
508.74        25.25967
509.18        25.35433
509.62        25.44095
510.06         25.5111
510.50         25.5633
510.94        25.59696
511.38        25.62436
511.82        25.66621
512.26        25.72664
512.70        25.80172
513.14        25.87341
513.58         25.9116
514.02        25.91114
514.46        25.88191
514.90        25.84866
515.34        25.85096
515.78        25.89697
516.22        25.97318
516.66        26.05439
517.10        26.10005
517.54        26.10021
517.98         26.0692
518.42        26.02456
518.86        25.99447
519.30        25.98722
519.74        25.99139
520.18        26.00257
520.62        26.01405
521.06        26.02262
521.50        26.03452
521.93        26.04166
522.37        26.02072
522.81        25.97322
523.25        25.90175
523.69         25.8318
524.13        25.80393
524.57        25.82253
525.01        25.87363
525.45        25.92054
525.89        25.90318
526.32        25.80813
526.76         25.6649
527.20         25.5082
527.64        25.39502
528.08        25.33949
528.52        25.31927
528.96        25.32052
529.40        25.32143
529.83        25.31058
530.27        25.29964
530.71        25.26991
531.15        25.19326
531.59        25.07086
532.03         24.9105
532.46        24.75055
532.90        24.67043
533.34        24.67852
533.78        24.73716
534.22        24.80061
534.66        24.82722
535.09        24.78333
535.53        24.63657
535.97        24.43302
536.41        24.30865
536.85        24.28658
537.28        24.30524
537.72        24.35353
538.16        24.43209
538.60         24.5273
539.04        24.63768
539.47        24.73826
539.91        24.80509
540.35        24.83011
540.79         24.8235
541.22        24.80502
541.66        24.81807
542.10         24.8711
542.54        24.95181
542.97        25.05176
543.41        25.16662
543.85        25.28804
544.29        25.42386
544.72        25.55499
545.16        25.66809
545.60        25.75917
546.04        25.83611
546.47        25.93199
546.91        26.09702
547.35        26.33365
547.79        26.62053
548.22        26.91261
548.66         27.1363
549.10        27.30815
549.53        27.43879
549.97         27.5518
550.41        27.62379
550.84        27.69721
551.28        27.83731
551.72        28.02282
552.15        28.24259
552.59        28.52283
553.03        28.44768
553.46        28.85738
553.90        28.98288
554.34        29.07133
554.77        29.13058
555.21        29.19553
555.65        29.29849
556.08        29.43609
556.52         29.5825
556.96        29.71301
557.39        29.87062
557.83        30.02536
558.27        30.01423
558.70        29.88484
559.14        29.89316
559.57        30.03707
560.01        30.15688
560.45        30.23456
560.88        30.33872
561.32         30.4779
561.75        30.59802
562.19        30.70657
562.63        30.81057
563.06        30.90475
563.50         30.9888
563.93        31.03331
564.37        31.08597
564.80        31.15683
565.24        31.14005
565.68        31.00741
566.11        31.41048
566.55        31.22973
566.98        31.37353
567.42        31.53376
567.85        31.72491
568.29         31.9437
568.72         32.2068
569.16        32.54177
569.60         32.7225
570.03         32.8465
570.47        33.06797
570.90        33.45169
571.34        33.03587
571.77         33.4531
572.21        33.60067
572.64        33.57452
573.08        33.76383
573.51        33.88223
573.95        34.11345
574.38        34.34564
574.82        34.70502
575.25        34.36945
575.69        34.33822
576.12        34.39678
576.56        34.39432
576.99        34.37104
577.42        34.49297
577.86        34.48835
578.29          34.908
578.73        34.57481
579.16        34.84161
579.60        34.38896
580.03        34.44614
580.47        34.21566
580.90        34.59831
581.33        34.53499
581.77        34.35642
582.20        33.98787
582.64        34.08886
583.07        33.97345
583.51        33.81686
583.94        33.58638
584.37        33.44108
584.81        33.42611
585.24        33.32153
585.68        33.19643
586.11        32.95658
586.54        32.95548
586.98        32.87846
587.41        32.85189
587.85        32.70722
588.28        32.38455
588.71        32.62366
589.15        32.30157
589.58        32.40155
590.01        32.31346
590.45        32.40344
590.88        32.50667
591.31        32.39817
591.75        32.20615
592.18        32.02678
592.61        31.84661
593.05         32.7983
593.48        32.81749
593.91         32.6986
594.35        32.79278
594.78        32.70607
595.21        32.76477
595.65        33.05147
596.08        33.58114
596.51        33.78969
596.94        33.57867
597.38        33.64024
597.81         33.9622
598.24        34.33722
598.68        34.42245
599.11         34.6648
599.54        35.36561
599.97        35.19234
600.41        35.82207
600.84        35.85904
601.27        36.29708
601.70        36.61283
602.14        36.92535
602.57        37.28387
603.00        37.76916
603.43        37.78449
603.87        38.74868
604.30        39.17085
604.73         39.5632
605.16        39.51325
605.60        40.17968
606.03        40.43983
606.46        40.57119
606.89        41.28802
607.32        41.88215
607.76        42.21898
608.19        42.65751
608.62        42.90236
609.05        43.25572
609.48        43.49381
609.92        44.13147
610.35        44.71902
610.78        44.27876
611.21        44.51889
611.64        44.98433
612.07        45.47336
612.50         45.6681
612.94        45.97643
613.37        46.31751
613.80        46.58837
614.23        46.49175
614.66        46.80193
615.09         47.3837
615.52        47.69432
615.96        47.70411
616.39        47.95048
616.82        48.49803
617.25        48.31659
617.68        48.76242
618.11         48.9996
618.54        49.37304
618.97        49.57819
619.40        49.66541
619.84          49.722
620.27        49.87308
620.70        50.10251
621.13        50.40689
621.56        49.93483
621.99        49.76873
622.42        49.63939
622.85        49.88626
623.28        49.96362
623.71        49.84789
624.14        50.25848
624.57         50.6285
625.00        50.46149
625.43        50.73108
625.86        50.56837
626.29        50.34911
626.72        50.21045
627.15        50.06507
627.58        49.94426
628.01         49.7547
628.44        49.59732
628.87        49.49495
629.30        48.88673
629.73         48.8215
630.16        48.55371
630.59        48.38787
631.02        48.27181
631.45         48.1563
631.88        47.93975
632.31        47.58457
632.74        47.14674
633.17        46.62473
633.60         46.1184
634.03        45.64286
634.46        45.18302
634.89        44.72361
635.32        44.24831
635.75        43.75917
636.18        43.22751
636.61        42.69629
637.04        42.25149
637.47        41.90258
637.89        41.61549
638.32        41.34271
638.75         41.0513
639.18        40.72991
639.61        40.39283
640.04        40.06198
640.47         39.7682
640.90        39.51949
641.33         39.3075
641.76        39.12136
642.18        38.95082
642.61        38.78268
643.04         38.6278
643.47        38.50232
643.90        38.42921
644.33        38.41151
644.76        38.44287
645.18        38.49792
645.61        38.52693
646.04        38.52562
646.47        38.51062
646.90        38.52622
647.33        38.63416
647.75         38.8393
648.18        39.16949
648.61        39.59546
649.04        39.93436
649.47        40.13799
649.89        40.80344
650.32        40.89205
650.75        41.41896
651.18        42.02646
651.61        42.50922
652.03        42.86932
652.46         43.3482
652.89        43.99161
653.32        44.46872
653.74        44.77976
654.17        45.51815
654.60        46.10768
655.03        46.25456
655.46          46.556
655.88        47.14582
656.31        48.42307
656.74        49.89479
657.16        51.12838
657.59        53.06015
658.02        51.03029
658.45        50.93574
658.87        50.53728
659.30        51.11792
659.73        51.15069
660.15        52.24697
660.58        51.75954
661.01         52.0022
661.44        52.36329
661.86        52.53939
662.29        52.52409
662.72        53.09747
663.14        53.24737
663.57        53.50156
664.00        53.62235
664.42        53.92296
664.85        54.42049
665.27        54.96819
665.70        55.43618
666.13        55.72231
666.55        55.79993
666.98        55.64777
667.41         55.3644
667.83        55.46909
668.26        55.43525
668.69        55.68532
669.11        56.00195
669.54        56.29784
669.96        56.54148
670.39         56.7854
670.82        57.03543
671.24        57.20614
671.67        57.32438
672.09        57.51444
672.52        57.77325
672.94        57.94662
673.37        58.03633
673.80        58.12434
674.22         58.2311
674.65        58.31553
675.07        58.39474
675.50        58.47069
675.92         58.5438
676.35        58.59718
676.77        58.62814
677.20        58.66518
677.62        58.73503
678.05        58.80364
678.47        58.85782
678.90        59.19265
679.32        59.26298
679.75         59.4582
680.17        59.60799
680.60        59.74454
681.02        59.87072
681.45        59.97322
681.87        60.08521
682.30        60.24222
682.72        60.44073
683.15        60.59836
683.57        60.71175
684.00        60.77617
684.42        60.83173
684.85        60.96736
685.27        61.18232
685.70        61.43842
686.12         61.6743
686.54        61.82471
686.97        61.86785
687.39        61.83105
687.82        61.74817
688.24        61.69347
688.66        61.69286
689.09        61.73229
689.51        61.81316
689.94        61.91701
690.36        62.04162
690.78        62.14762
691.21        62.26535
691.63        62.48972
692.06        62.77056
692.48        63.03419
692.90        63.07053
693.33        63.09044
693.75        63.01586
694.17        62.98273
694.60        62.81411
695.02        62.68076
695.44        63.06934
695.87        63.56752
696.29        64.13375
696.71        63.95367
697.14        63.23108
697.56        63.13151
697.98        63.62555
698.41         63.9632
698.83        63.71527
699.25        63.84407
699.68        64.16717
700.10        64.33845
700.52         64.3045
700.94        64.18233
701.37         64.0668
701.79        64.10461
702.21        64.32183
702.64        64.64574
703.06         64.9847
703.48        65.18079
703.90        65.19063
704.33        65.06487
704.75        64.87875
705.17        64.74489
705.59        64.71146
706.01        64.75094
706.44        64.84516
706.86        64.99564
707.28        65.17912
707.70        65.35136
708.12        65.52242
708.55          65.793
708.97        66.10812
709.39        66.21708
709.81        66.12712
710.23         66.0965
710.66        66.14326
711.08         66.1335
711.50        66.05885
711.92        65.99546
712.34         65.9556
712.76        65.93568
713.19         65.9284
713.61        65.95458
714.03        66.00318
714.45        66.07768
714.87        66.19587
715.29        66.38622
715.71         66.6401
716.13        66.92641
716.56        67.18085
716.98        67.38786
717.40        67.49209
717.82        67.51263
718.24        67.44071
718.66         67.2645
719.08        67.01652
719.50        66.73129
719.92         66.4987
720.34        66.45098
720.76        66.60949
721.19        66.90779
721.61        67.30724
722.03        67.68592
722.45        67.98072
722.87        68.20629
723.29        68.31262
723.71         68.2219
724.13        67.93326
724.55         67.5242
724.97         67.1343
725.39        66.84031
725.81        66.66798
726.23        67.11602
726.65        67.25762
727.07        67.48704
727.49        67.80131
727.91        68.00938
728.33        68.19915
728.75        68.37959
729.17        68.55956
729.59        68.69653
730.01        68.79053
730.43        68.86776
730.85        68.93267
731.27        68.97519
731.69        68.97878
732.10        68.94571
732.52        68.88462
732.94        68.69137
733.36        68.65555
733.78        68.55303
734.20        68.45474
734.62        68.60846
735.04        69.05858
735.46        68.59113
735.88        69.22116
736.30        69.28011
736.72         69.3902
737.13        69.56739
737.55        69.73395
737.97        69.93091
738.39        70.04665
738.81        69.67786
739.23        69.01151
739.65        68.98289
740.06        69.51754
740.48        69.77476
740.90        69.69927
741.32         69.8098
741.74        70.10488
742.16         70.2985
742.57        70.36895
742.99        70.37831
743.41        70.34216
743.83        70.26881
744.25        70.17374
744.67        70.03941
745.08        69.93375
745.50        69.94506
745.92        70.09156
746.34        70.34049
746.75        70.58915
747.17        70.65618
747.59        70.51855
748.01        70.23752
748.42        69.92045
748.84        69.77957
749.26        69.86903
749.68         70.0043
750.09        70.13834
750.51        70.46905
750.93        70.82573
751.35        70.64783
751.76        70.04704
752.18        69.71916
752.60        69.71492
753.01        69.71674
753.43        69.62761
753.85        69.60268
754.27        69.61524
754.68        69.78727
755.10        69.86037
755.52        69.99014
755.93        70.07995
756.35        70.12852
756.77        70.21135
757.18        70.29379
757.60        70.38401
758.02        70.76444
758.43         71.3164
758.85        70.59267
759.26        71.07845
759.68        70.18097
760.10        69.56256
760.51        70.28479
760.93        71.15922
761.34        70.55273
761.76        71.22851
762.18        71.06982
762.59        71.17922
763.01        71.15665
763.42        71.58267
763.84        71.80641
764.26        71.87533
764.67        71.55202
765.09        71.04041
765.50        70.92303
765.92        71.18428
766.33        71.15829
766.75        70.76952
767.16        70.65045
767.58        70.78867
768.00        70.65538
768.41        70.39982
768.83        70.82336
769.24        71.67091
769.66        71.89456
770.07        71.49453
770.49        70.94218
770.90        70.52032
771.32        71.07848
771.73        72.01975
772.15        72.41138
772.56         72.0663
772.97        71.58595
773.39        71.21216
773.80        71.30769
774.22        71.78773
774.63        72.01549
775.05        71.87038
775.46        71.84779
775.88        71.90778
776.29        71.73569
776.70         71.4266
777.12        71.35048
777.53        71.56463
777.95        71.91204
778.36        72.29556
778.77        72.51494
779.19        72.53548
779.60        72.44706
780.02        72.28692
780.43        72.21106
780.84        72.28728
781.26        72.11623
781.67        71.84158
782.09        72.48444
782.50        73.67146
782.91        73.51655
783.33        72.20761
783.74        71.73066
784.15        72.19957
784.57        72.52536
784.98        72.61972
785.39        72.72854
785.81        72.86927
786.22        73.19772
786.63        73.62479
787.04        73.79388
787.46        73.68856
787.87        73.46137
788.28         73.2514
788.70        73.15644
789.11        73.18217
789.52        73.42506
789.93        73.74628
790.35        73.66496
790.76        73.25053
791.17        73.10139
791.58        73.24866
792.00        73.18724
792.41        72.93147
792.82        72.94178
793.23        73.15895
793.65        72.95687
794.06        72.51617
794.47        72.71273
794.88        73.40708
795.29        73.75906
795.71        73.70969
796.12        73.32746
796.53        73.87166
796.94        73.48013
797.35        72.79176
797.76        73.24015
798.18        74.58875
798.59        75.15751
799.00        74.76391
799.41        74.33752
799.82        74.06105
800.23         73.8388
800.64         73.7393
801.06        73.74162
801.47        73.83612
801.88        73.90923
802.29        73.91985
802.70        73.90089
803.11        73.83033
803.52        73.67178
803.93        73.45296
804.34        73.19285
804.75        72.98547
805.17        73.05251
805.58        73.47359
805.99        73.92224
806.40        74.33167
806.81        75.15105
807.22        76.04255
807.63        75.74783
808.04        74.51452
808.45        73.89112
808.86        74.03953
809.27        74.15986
809.68        74.12457
810.09        74.08933
810.50        74.02237
810.91         73.9029
811.32        73.84003
811.73        73.99503
812.14        74.38563
812.55        74.94654
812.96        75.51516
813.37        75.78785
813.78        75.67239
814.19        75.28148
814.60        74.75177
815.01        74.26347
815.42        73.87617
815.83        73.54247
816.24        73.30276
816.65        73.23459
817.05         73.3604
817.46        73.64514
817.87        74.00348
818.28        74.23978
818.69        74.30619
819.10        74.22418
819.51        74.10699
819.92        74.17318
820.33        74.46598
820.74        74.90065
821.14        75.31968
821.55        75.47086
821.96        75.30082
822.37        74.89818
822.78        74.40244
823.19        74.04713
823.60        73.91527
824.00        73.97069
824.41        74.10056
824.82        74.22419
825.23        74.29403
825.64        74.34589
826.04        74.39105
826.45        74.41424
826.86        74.43777
827.27        74.41225
827.68        74.34723
828.08        74.42719
828.49         74.5501
828.90        74.42186
829.31        74.15358
829.72        74.19138
830.12        74.59862
830.53        75.10819
830.94        75.51479
831.35        75.50458
831.75        75.02213
832.16        74.15416
832.57         73.2381
832.97        72.78284
833.38        72.91143
833.79        73.45153
834.20        74.17157
834.60        74.69872
835.01        74.91936
835.42        74.98425
835.82        74.95975
836.23        74.87439
836.64         74.8004
837.04         74.6721
837.45        74.62125
837.86        74.94525
838.26        75.69575
838.67        76.74955
839.08        77.74908
839.48        77.99924
839.89        77.33898
840.29        76.02698
840.70        74.64963
841.11        73.86422
841.51         73.8413
841.92        74.35896
842.33        75.19113
842.73        75.92845
843.14        76.28756
843.54        76.44362
843.95        76.44905
844.35        76.44945
844.76        76.47442
845.17        76.45709
845.57        76.38647
845.98        76.23525
846.38        76.03165
846.79         75.8007
847.19        75.59301
847.60        75.44972
848.00        75.39007
848.41        75.36445
848.81        75.37547
849.22        75.33652
849.62         75.2708
850.03        75.19839
850.43         75.1134
850.84        74.93098
851.24        74.69978
851.65        74.36736
852.05         74.1702
852.46        74.39085
852.86        75.05287
853.27        76.02292
853.67        76.90154
854.07        77.27725
854.48        77.06001
854.88        76.38876
855.29        75.46861
855.69        74.89104
856.10        74.78532
856.50        74.85493
856.90        75.31935
857.31        75.50418
857.71        75.48515
858.12        75.27541
858.52        75.05241
858.92        74.96901
859.33        75.04461
859.73        75.26657
860.13        75.43468
860.54        75.26005
860.94        74.74082
861.34          73.968
861.75        73.20031
862.15        72.89749
862.55        73.14301
862.96        73.76018
863.36        74.53705
863.76        75.01447
864.17        75.02455
864.57        74.72162
864.97        74.18767
865.38        73.56313
865.78        72.95774
866.18        72.34003
866.58        71.79901
866.99        71.50156
867.39        71.52417
867.79        71.83277
868.19        72.34509
868.60        72.89088
869.00        73.42747
869.40        73.93536
869.80        74.37737
870.21        74.68615
870.61        74.89095
871.01        74.95844
871.41        74.82369
871.81        74.40844
872.22        73.72767
872.62        72.80395
873.02        71.93243
873.42        71.60532
873.82        71.92557
874.22        72.76091
874.63        73.65849
875.03        73.89804
875.43         73.3195
875.83        72.16428
876.23        70.90359
876.63        70.26685
877.03        70.43939
877.44        71.17269
877.84        72.15479
878.24        72.84655
878.64         73.0168
879.04        72.71098
879.44        72.21861
879.84        72.05831
880.24        72.31093
880.64        72.77319
881.04        73.13346
881.44        72.92564
881.84        72.07915
882.24        70.81258
882.65        69.54414
883.05        68.88941
883.45        69.01054
883.85        69.72975
884.25        70.74722
884.65        71.54484
885.05        71.92371
885.45         71.9942
885.85        71.90361
886.25        71.89115
886.65        72.01924
887.05        72.19668
887.45        72.28768
887.85        72.09427
888.25        71.59861
888.65        70.91656
889.04        70.25439
889.44        69.93605
889.84        70.01601
890.24        70.38822
890.64        70.88409
891.04        71.22076
891.44        71.30636
891.84        71.23285
892.24        71.06092
892.64        70.88104
893.04        70.74395
893.44        70.62614
893.83        70.59985
894.23        70.73223
894.63        71.05263
895.03        71.53519
895.43        72.09351
895.83        72.58079
896.23        72.92388
896.63        73.10748
897.02        73.14678
897.42         73.1115
897.82         73.0181
898.22        72.88007
898.62        72.62802
899.01        72.14278
899.41        71.46655
899.81        70.65887
900.21          69.951
900.61        69.70611
901.00        69.98831
901.40        70.66857
901.80        71.47002
902.20        71.93621
902.59        71.95333
902.99        71.64701
903.39        71.18699
903.79        70.86119
904.18         70.7524
904.58        70.75202
904.98        70.85484
905.38        71.07133
905.77         71.3793
906.17        71.82634
906.57         72.2258
906.96        72.25278
907.36        71.84966
907.76        71.12244
908.15        70.45131
908.55        70.42673
908.95        71.16637
909.34        72.48283
909.74         73.8929
910.14        74.68467
910.53        74.61947
910.93        73.93295
911.33         72.9103
911.72        71.98457
912.12        71.39207
912.52        71.03499
912.91        70.84985
913.31        70.76582
913.70        70.75117
914.10        70.80363
914.49        71.06254
914.89        71.63995
915.29        72.53101
915.68        73.66311
916.08        74.61971
916.47        74.81328
916.87        74.16496
917.26        72.86499
917.66        71.49809
918.05        70.78078
918.45        70.88194
918.84        71.64422
919.24        72.65386
919.64        73.30741
920.03        73.40919
920.42        73.09476
920.82        72.68703
921.21        72.63031
921.61        73.00832
922.00        73.70232
922.40        74.36918
922.79        74.59089
923.19        74.22888
923.58        73.48179
923.98        72.67529
924.37         72.1955
924.77        72.15426
925.16        72.38554
925.55        72.73898
925.95        72.93581
926.34        72.89568
926.74        72.69619
927.13        72.35978
927.52        71.84438
927.92        71.24716
928.31        70.59136
928.70        70.04863
929.10        69.85698
929.49        70.04066
929.89        70.45734
930.28        71.11523
930.67        71.88684
931.07        72.64481
931.46         73.4882
931.85        74.06371
932.24        73.87231
932.64        72.92671
933.03        71.36131
933.42        69.87357
933.82         69.4882
934.21        70.39079
934.60        72.34146
934.99        74.59785
935.39        75.79088
935.78        75.55876
936.17        74.19814
936.56        72.43171
936.96        71.41437
937.35         71.4525
937.74        72.18541
938.13         73.0621
938.53        73.23957
938.92        72.52837
939.31        71.29595
939.70        69.99168
940.09        69.21606
940.49        69.09008
940.88        69.43057
941.27        70.04574
941.66        70.59438
942.05        70.93855
942.44        71.21542
942.84        71.44128
943.23        71.62011
943.62        71.77464
944.01        71.81636
944.40        71.87766
944.79        72.22343
945.18        72.85635
945.57        73.68465
945.97        74.31991
946.36        74.20854
946.75        73.22736
947.14        71.67978
947.53         70.0181
947.92        68.86411
948.31         68.3966
948.70         68.4517
949.09        68.93836
949.48        69.68105
949.87        70.54747
950.26        71.54667
950.65        72.51991
951.04        73.20924
951.43        73.52262
951.82        73.46336
952.21        73.11526
952.60        72.66621
952.99        72.23366
953.38        71.85319
953.77        71.55965
954.16        71.39082
954.55        71.34254
954.94        71.35938
955.33        71.53745
955.72        72.01311
956.11        72.75396
956.50         73.7247
956.89         74.4407
957.28        74.11778
957.66        72.66014
958.05        70.41016
958.44        68.18133
958.83        67.13586
959.22        67.48253
959.61        68.89631
960.00        70.70802
960.39        71.65018
960.78        71.30724
961.16        70.06896
961.55        68.55027
961.94        67.54376
962.33        67.27756
962.72        67.53662
963.11        68.06063
963.49        68.41917
963.88        68.37113
964.27        68.07283
964.66        67.86207
965.04        68.24762
965.43        69.25959
965.82        70.78561
966.21        72.23087
966.60        72.47977
966.98        71.25958
967.37        69.07909
967.76        66.86261
968.15        65.76878
968.53        66.01735
968.92        67.30902
969.31        69.07629
969.69        70.16388
970.08         70.0582
970.47        69.12074
970.86        68.00805
971.24         67.6459
971.63        68.24157
972.02        69.53541
972.40        70.97655
972.79        71.25656
973.17        70.12919
973.56        68.11655
973.95        66.10927
974.33        65.23075
974.72        65.68995
975.11        67.11713
975.49        68.99135
975.88         70.2074
976.26        70.39143
976.65        69.81524
977.04        68.83636
977.42        67.98117
977.81        67.41637
978.19         66.9648
978.58        66.71169
978.96        66.78019
979.35        67.12448
979.74        67.75867
980.12         68.5362
980.51        68.91019
980.89         68.8587
981.28        68.48959
981.66        67.99092
982.05        67.63055
982.43        67.49718
982.82        67.46317
983.20         67.7007
983.59        68.39595
983.97        69.63438
984.35        71.37072
984.74        73.00983
985.12        73.78314
985.51         73.4427
985.89        72.19794
986.28        70.85165
986.66          70.577
987.04        71.68159
987.43        73.81071
987.81        76.18642
988.20        77.14038
988.58        76.20923
988.96        73.88048
989.35         71.1183
989.73        69.25413
990.12        68.60325
990.50        68.82959
990.88        69.38237
991.27        69.31889
991.65         68.4025
992.03        67.01702
992.42         65.7511
992.80        65.32861
993.18        65.91808
993.56        67.27597
993.95        68.82794
994.33        69.73242
994.71        69.55646
995.10        68.63564
995.48        67.49963
995.86        67.01683
996.24        67.39835
996.63        68.28606
997.01        69.43276
997.39        69.98454
997.77        69.62668
998.15        68.73071
998.54        67.60981
998.92        66.56586
999.30        65.79025
999.68        65.15604
1000.06        64.85764
1000.45        65.12954
1000.83        66.05688
1001.21        67.66051
1001.59        69.51718
1001.97        70.53328
1002.35        70.35188
1002.73        69.32763
1003.12        68.23331
1003.50        67.96061
1003.88         68.8177
1004.26        70.43535
1004.64        72.58439
1005.02        74.66628
1005.40        76.23085
1005.78        77.48446
1006.16        77.91956
1006.54        76.77721
1006.92        74.21413
1007.30        70.62017
1007.69        67.27877
1008.07        65.82915
1008.45        66.75627
1008.83        69.71042
1009.21        73.78528
1009.59        76.59289
1009.97        76.87881
1010.35         75.2471
1010.73        72.44106
1011.11        69.59888
1011.49        67.24982
1011.86        65.17431
1012.24        63.56548
1012.62        62.61509
1013.00         62.2978
1013.38        62.63983
1013.76        63.55967
1014.14        64.66356
1014.52        65.63454
1014.90        66.37785
1015.28        66.80551
1015.66        66.93812
1016.04         66.8202
1016.41        66.45982
1016.79        65.82751
1017.17        65.01446
1017.55        64.14316
1017.93        63.27101
1018.31        62.66191
1018.69        62.63382
1019.06        63.24878
1019.44        64.50861
1019.82        66.01545
1020.20        66.76984
1020.58         66.3534
1020.95        64.94738
1021.33        63.43106
1021.71        62.72879
1022.09        62.99899
1022.46         64.2012
1022.84        65.58519
1023.22        65.50277
1023.60         63.4768
1023.97        60.02723
1024.35        57.04462
1024.73        56.49491
