SpectraSmart Spectrum 2.9.0.0
--------- Device Information -----------
Spectrum Name :  反射率_0
Saving Time :  2024/04/26 23:00:33
Spectro-Module Model Name : SE2030-DUVN
Spectro-Module Serial Number : OS361AC55029948
Wavelength Start : 200
Wavelength End : 1025
Wavelength Unit : Wavelength(nm)
Spectrum Unit : Reflectance(%)
-----------Spectrum Setting ------------
Integration Time : 20ms
Average : 10
Boxcar : 0
Background removal :  enabled
linearity correction :  enabled
SC :  disabled
Intensity correction :  disabled
DWT denoise :  enabled
savitzky-golay :  disabled
FFT :  disabled
Running average :  disabled
Kalman :  disabled
High pass :  disabled
---------------BEGIN--------------------
Wavelength(nm)             Reflectance(%)
200.29               0
200.75        24.20461
201.21        23.35529
201.67        22.70798
202.13        22.66714
202.58        23.18369
203.04        24.62827
203.50        26.59698
203.96        27.50481
204.42        26.29892
204.88        22.78779
205.34        18.90665
205.80         18.3766
206.26        21.56784
206.72        26.74249
207.18        30.83839
207.64        31.10596
208.10        27.29848
208.55        19.32537
209.01        8.023842
209.47         2.83524
209.93        8.388762
210.39        18.19501
210.85        26.45993
211.31         31.5039
211.77        34.74502
212.23        38.10301
212.69        44.28593
213.14        57.92337
213.60        62.39963
214.06        56.56454
214.52        50.87268
214.98        47.33296
215.44        44.55161
215.90        41.35878
216.36        38.46903
216.81        36.95451
217.27        37.52435
217.73        41.17673
218.19        46.17346
218.65        44.96181
219.11        37.21587
219.57        28.71667
220.02        24.86281
220.48        28.74264
220.94        40.52108
221.40        61.99768
221.86        92.94244
222.32        114.1784
222.77         108.183
223.23         87.4482
223.69        65.92546
224.15         51.5896
224.61        43.60271
225.06        38.58984
225.52        36.21074
225.98        36.22482
226.44        38.09285
226.90        41.88508
227.36        46.10819
227.81        47.97131
228.27        47.12104
228.73        44.37112
229.19        41.83441
229.65        42.09277
230.10         45.2357
230.56        50.34581
231.02        55.41105
231.48        57.21173
231.93        55.24759
232.39        51.22062
232.85        47.14442
233.31        45.58115
233.77        46.80862
234.22        49.89088
234.68        53.54169
235.14        55.86387
235.60        56.24301
236.05        55.25906
236.51        53.41638
236.97        51.86644
237.43        51.17216
237.88        51.00526
238.34          51.113
238.80        51.31818
239.26        51.54563
239.71        52.33976
240.17         53.4243
240.63        54.40438
241.08        55.14928
241.54        55.12889
242.00        55.44167
242.46        58.54527
242.91        66.38371
243.37        80.44896
243.83        100.9872
244.28        117.6557
244.74        116.3122
245.20        98.05332
245.66        76.37744
246.11        62.91813
246.57        58.13459
247.03        57.83053
247.48        60.35384
247.94        62.70344
248.40        63.51442
248.85         63.8054
249.31        63.32252
249.77        60.78817
250.22        55.74279
250.68        47.39672
251.14        36.57566
251.59        29.13016
252.05        29.34744
252.51        35.18765
252.96         41.8136
253.42        44.61745
253.88        43.67268
254.33        40.78035
254.79        38.45166
255.25        38.53196
255.70        40.89746
256.16        44.67068
256.62        48.02825
257.07        48.32173
257.53        46.27112
257.99        43.48443
258.44        41.21752
258.90        40.80428
259.35        41.57795
259.81        43.07561
260.27        44.42426
260.72        44.60929
261.18        43.77591
261.63        42.24798
262.09         40.8126
262.55        39.91701
263.00        39.50274
263.46        39.45748
263.91         39.3189
264.37        38.71664
264.83        37.64889
265.28         36.3105
265.74         35.1962
266.19        34.69524
266.65        34.87037
267.11        35.45581
267.56        36.12413
268.02        36.34858
268.47        35.99295
268.93        35.26604
269.38        34.31849
269.84        33.43025
270.30        32.69233
270.75         32.0043
271.21        31.45189
271.66        31.12606
272.12        31.01202
272.57        31.07212
273.03        31.10582
273.48        30.76794
273.94         30.0512
274.39        29.06225
274.85          28.072
275.31        27.34741
275.76        26.92636
276.22        26.72902
276.67        26.64245
277.13        26.57411
277.58        26.43836
278.04        26.28868
278.49        26.05032
278.95        25.70748
279.40        25.23124
279.86        24.69673
280.31        24.12342
280.77         23.6327
281.22        23.21634
281.68         22.8809
282.13        22.60049
282.59        22.40155
283.04        22.24541
283.50        22.13871
283.95        22.01289
284.41        21.76889
284.86        21.40121
285.32        20.97294
285.77        20.55891
286.22        20.30957
286.68        20.24724
287.13        20.29553
287.59        20.40162
288.04        20.44705
288.50        20.41343
288.95        20.31223
289.41        20.17084
289.86        19.97928
290.32        19.77407
290.77        19.54652
291.22        19.33753
291.68        19.20107
292.13        19.14103
292.59        19.15653
293.04        19.23019
293.50        19.34725
293.95        19.48985
294.40        19.66573
294.86        19.86264
295.31        20.05397
295.77        20.24562
296.22        20.44555
296.68        20.67744
297.13        20.96978
297.58        21.33265
298.04        21.74943
298.49        22.21722
298.95        22.74426
299.40        23.30689
299.85        23.89098
300.31        24.43767
300.76        24.85607
301.21         25.1347
301.67        25.31608
302.12        25.44761
302.58        25.65084
303.03        25.93429
303.48          26.279
303.94        26.65633
304.39        26.99799
304.84        27.29297
305.30        27.57014
305.75        27.81795
306.20        28.06162
306.66        28.31172
307.11        28.54615
307.57        28.76398
308.02        28.93176
308.47        29.05276
308.93        29.13908
309.38         29.2074
309.83         29.3228
310.29        29.49355
310.74        29.69814
311.19        29.87571
311.65        29.92185
312.10        29.81534
312.55        29.59234
313.00        29.34448
313.46        29.20844
313.91        29.20232
314.36        29.29268
314.82        29.39601
315.27        29.38299
315.72        29.21971
316.18        28.95969
316.63         28.6684
317.08        28.45907
317.53        28.35856
317.99        28.32275
318.44        28.31019
318.89         28.2456
319.35        28.10507
319.80        27.91356
320.25        27.69216
320.70        27.47185
321.16        27.26464
321.61        27.07169
322.06        26.88408
322.51        26.69324
322.97        26.49386
323.42        26.29093
323.87         26.1106
324.32        25.99672
324.78        25.94355
325.23        25.95332
325.68         25.9418
326.13        25.77677
326.59        25.43642
327.04        24.97387
327.49         24.5083
327.94        24.22913
328.39         24.1744
328.85        24.27866
329.30        24.45392
329.75        24.49018
330.20        24.32327
330.66        24.01387
331.11        23.65436
331.56        23.37353
332.01        23.21524
332.46        23.13285
332.92        23.08968
333.37        23.06571
333.82        23.02861
334.27        22.99652
334.72        22.95614
335.17          22.877
335.63        22.75472
336.08         22.6081
336.53        22.45745
336.98         22.3511
337.43        22.30235
337.88        22.29163
338.34        22.31435
338.79        22.38226
339.24        22.47574
339.69        22.59236
340.14        22.67398
340.59         22.6298
341.05         22.4551
341.50        22.17559
341.95        21.88014
342.40        21.70659
342.85        21.68682
343.30        21.78115
343.75         21.9176
344.20        21.97701
344.66         21.9277
345.11         21.8039
345.56        21.65313
346.01        21.55019
346.46        21.51929
346.91        21.53829
347.36        21.57643
347.81        21.58979
348.26        21.56923
348.72        21.53335
349.17        21.50998
349.62        21.55226
350.07        21.66518
350.52        21.82327
350.97        21.97643
351.42        22.04708
351.87        22.01647
352.32        21.91119
352.77        21.77108
353.22        21.65479
353.67        21.57949
354.13         21.5292
354.58        21.49099
355.03        21.44854
355.48        21.39553
355.93        21.34222
356.38        21.28859
356.83        21.23016
357.28        21.16571
357.73        21.09178
358.18        21.01105
358.63        20.93252
359.08        20.85728
359.53        20.78056
359.98        20.69579
360.43        20.59176
360.88        20.46397
361.33        20.31569
361.78        20.15002
362.23        19.97288
362.68        19.79288
363.13        19.61728
363.58        19.44989
364.03        19.29348
364.48        19.14956
364.93        19.01571
365.38        18.90547
365.83        18.84009
366.28        18.81792
366.73         18.8283
367.18        18.83325
367.63        18.77452
368.08        18.64142
368.53        18.45165
368.98        18.24508
369.43         18.0874
369.88        17.99488
370.33        17.94695
370.78        17.91792
371.23        17.86275
371.68         17.7706
372.13        17.66498
372.58         17.5534
373.03        17.44622
373.48        17.34813
373.93        17.24367
374.38        17.15802
374.83        17.13517
375.28        17.17139
375.72        17.24523
376.17        17.29541
376.62        17.20618
377.07        16.96644
377.52        16.62048
377.97         16.2606
378.42        16.04029
378.87        15.99902
379.32        16.08492
379.77        16.23126
380.22        16.33791
380.67        16.37148
381.11        16.36411
381.56        16.31331
382.01        16.23415
382.46        16.14041
382.91        16.02743
383.36        15.91279
383.81        15.82425
384.26        15.76441
384.71          15.728
385.15        15.70499
385.60        15.67828
386.05        15.64084
386.50        15.59959
386.95        15.54989
387.40        15.48643
387.85        15.41095
388.29        15.31427
388.74        15.23085
389.19         15.1735
389.64        15.14241
390.09        15.13128
390.54        15.11624
390.98        15.05499
391.43        14.95259
391.88        14.82361
392.33        14.70102
392.78        14.63041
393.23        14.61769
393.67        14.63852
394.12        14.67854
394.57        14.68835
395.02        14.65543
395.47        14.58609
395.91         14.5044
396.36        14.44211
396.81        14.41858
397.26        14.42751
397.71        14.43598
398.15        14.40549
398.60        14.34868
399.05        14.21906
399.50        14.07687
399.95        14.11049
400.39         14.2845
400.84        14.32707
401.29        14.21056
401.74        14.11518
402.18         14.0436
402.63        13.87117
403.08        13.66585
403.53        13.59561
403.97        13.67974
404.42        13.86476
404.87        14.06715
405.32        14.15126
405.76        14.08184
406.21        13.91163
406.66        13.70671
407.11        13.57035
407.55        13.53527
408.00        13.56212
408.45        13.61872
408.90        13.64276
409.34        13.61221
409.79        13.55443
410.24        13.48936
410.68        13.43511
411.13        13.40372
411.58        13.38717
412.03        13.37892
412.47        13.37413
412.92        13.36544
413.37        13.35467
413.81        13.35331
414.26        13.38959
414.71        13.45982
415.15        13.55986
415.60        13.64687
416.05        13.65673
416.49        13.57851
416.94        13.43505
417.39        13.28331
417.83        13.21012
418.28        13.23482
418.73        13.32827
419.17        13.45295
419.62        13.54694
420.07        13.58675
420.51        13.58601
420.96        13.55332
421.41        13.49867
421.85         13.4274
422.30          13.337
422.74        13.23258
423.19        13.18369
423.64        13.17406
424.08        13.11995
424.53         13.0368
424.98        13.05089
425.42        13.17476
425.87        13.30849
426.31        13.41027
426.76        13.51482
427.21        13.56841
427.65        13.40183
428.10        13.10946
428.54        12.97733
428.99        13.04083
429.44         13.2069
429.88        13.39354
430.33        13.42112
430.77        13.30913
431.22        13.33367
431.66         13.4804
432.11        13.48794
432.56        13.35794
433.00         13.2752
433.45        13.22022
433.89        13.07782
434.34        12.96149
434.78        12.78088
435.23          13.211
435.67        13.33961
436.12        13.32959
436.57        13.23585
437.01         13.1062
437.46        13.02847
437.90        13.01748
438.35        13.01068
438.79        12.98828
439.24        12.96545
439.68        12.93907
440.13        12.90887
440.57        12.88546
441.02        12.89785
441.46        12.94567
441.91         12.9791
442.35        12.98621
442.80        13.08242
443.24        13.20846
443.69        13.14803
444.13        12.93905
444.58        12.84868
445.02        12.89314
445.47        12.93527
445.91        12.95772
446.36        12.99688
446.80        13.04155
447.24        13.08188
447.69        13.11425
448.13        13.12564
448.58        13.11792
449.02        13.09469
449.47        13.06266
449.91        13.02689
450.36        12.99597
450.80        12.96772
451.25        12.95496
451.69         12.9688
452.13        13.00973
452.58        13.06981
453.02        13.13025
453.47        13.16294
453.91        13.15986
454.36        13.13053
454.80        13.08162
455.24        13.02376
455.69        12.96901
456.13        12.90847
456.58        12.86389
457.02        12.84612
457.46        12.86197
457.91        12.90625
458.35          12.953
458.79        12.96164
459.24         12.9359
459.68         12.8807
460.13        12.83308
460.57         12.8162
461.01        12.84712
461.46        12.90265
461.90        12.97994
462.34        13.06248
462.79        13.13505
463.23        13.20498
463.68        13.24475
464.12        13.21906
464.56         13.1263
465.01          13.001
465.45         12.8653
465.89         12.7839
466.34        12.76709
466.78        12.79541
467.22         12.8562
467.67        12.91271
468.11        12.95796
468.55        12.99543
468.99        13.02663
469.44        13.05259
469.88        13.07512
470.32        13.08962
470.77        13.09944
471.21         13.1158
471.65        13.13947
472.10         13.1706
472.54        13.20181
472.98        13.22619
473.42        13.24147
473.87        13.25368
474.31        13.25858
474.75        13.26234
475.20        13.27065
475.64        13.27908
476.08         13.2909
476.52        13.30354
476.97        13.31795
477.41        13.34138
477.85         13.3822
478.29        13.43342
478.74        13.50371
479.18         13.6208
479.62        13.75678
480.06        13.84576
480.50        13.87987
480.95        13.86914
481.39        13.82096
481.83        13.88195
482.27        13.85618
482.72        13.90304
483.16        13.96263
483.60        14.00407
484.04        14.00591
484.48        14.07961
484.93        14.27423
485.37        14.19017
485.81        14.23904
486.25        14.62721
486.69         14.2763
487.14        14.26725
487.58        15.14066
488.02        14.96218
488.46        14.71045
488.90        14.95613
489.34        15.06841
489.79        15.31755
490.23        15.34967
490.67        15.49521
491.11        15.69337
491.55        15.69743
491.99        15.56408
492.43        15.55317
492.88        15.69225
493.32        15.84542
493.76        15.98518
494.20        16.13442
494.64        16.28819
495.08        16.41067
495.52        16.50507
495.96        16.68453
496.41        16.91513
496.85        16.93686
497.29        16.80141
497.73        16.98495
498.17        17.24466
498.61        17.46258
499.05         17.5298
499.49        17.59832
499.93        17.63283
500.37        17.73192
500.82        17.87881
501.26        17.99784
501.70        18.08429
502.14        18.19697
502.58        18.34028
503.02        18.48362
503.46         18.6222
503.90        18.76472
504.34        18.89141
504.78        18.96894
505.22        18.99331
505.66        18.97446
506.10         18.9451
506.54        18.95901
506.98        19.02922
507.42        19.14087
507.86        19.26879
508.30        19.36957
508.74        19.42988
509.18        19.46367
509.62        19.48363
510.06        19.51035
510.50        19.55147
510.94        19.59891
511.38        19.65139
511.82        19.70828
512.26        19.76757
512.70        19.83079
513.14        19.89337
513.58        19.94611
514.02         19.9872
514.46        20.01845
514.90        20.04344
515.34        20.06976
515.78        20.09808
516.22         20.1227
516.66        20.14327
517.10        20.15935
517.54        20.16968
517.98        20.17735
518.42        20.17198
518.86         20.1365
519.30        20.07212
519.74        19.98678
520.18        19.90741
520.62        19.87467
521.06        19.89712
521.50        19.96417
521.93        20.04773
522.37        20.09324
522.81        20.08805
523.25        20.04237
523.69        19.98306
524.13        19.95377
524.57         19.9616
525.01           19.99
525.45        20.00809
525.89         19.9671
526.32        19.85869
526.76        19.71242
527.20        19.55981
527.64        19.44971
528.08        19.39521
528.52        19.37682
528.96        19.38674
529.40        19.41257
529.83        19.44317
530.27        19.48362
530.71        19.50616
531.15         19.4683
531.59        19.36657
532.03        19.21313
532.46        19.05164
532.90        18.96631
533.34        18.97068
533.78        19.03061
534.22        19.10219
534.66        19.13986
535.09        19.11334
535.53        19.00028
535.97        18.84362
536.41        18.75899
536.85        18.76603
537.28        18.81476
537.72        18.88231
538.16        18.94692
538.60        18.99575
539.04        19.03554
539.47         19.0721
539.91        19.12513
540.35        19.19457
540.79        19.27533
541.22        19.35403
541.66        19.41853
542.10        19.46464
542.54         19.4981
542.97        19.53603
543.41        19.61222
543.85        19.73013
544.29        19.88265
544.72        20.04076
545.16        20.17414
545.60         20.2725
546.04        20.34795
546.47        20.43078
546.91        20.56602
547.35        20.75788
547.79        20.98797
548.22        21.21696
548.66        21.38223
549.10        21.49725
549.53        21.57248
549.97        21.63771
550.41        21.69125
550.84        21.76921
551.28        21.91883
551.72        22.10704
552.15        22.29847
552.59        22.50955
553.03         22.4218
553.46        22.71696
553.90        22.81892
554.34        22.92764
554.77        23.03647
555.21        23.15759
555.65        23.29183
556.08        23.42805
556.52        23.55436
556.96        23.65371
557.39        23.76447
557.83        23.86717
558.27        23.83119
558.70        23.70494
559.14         23.7085
559.57          23.842
560.01        23.97325
560.45        24.07406
560.88        24.17688
561.32        24.28374
561.75        24.35933
562.19        24.41798
562.63        24.47696
563.06        24.53754
563.50         24.6011
563.93        24.64467
564.37        24.69661
564.80        24.76808
565.24        24.79499
565.68        24.74494
566.11         25.1039
566.55        24.97256
566.98        25.09187
567.42        25.21581
567.85        25.35248
568.29        25.50329
568.72        25.68141
569.16        25.90984
569.60         26.0462
570.03        26.17987
570.47        26.35917
570.90        26.61685
571.34        26.47838
571.77        26.75918
572.21        26.87167
572.64        26.93838
573.08        27.08093
573.51        27.27202
573.95        27.42436
574.38        27.57931
574.82         27.5956
575.25        27.58523
575.69        27.60025
576.12        27.63986
576.56        27.65464
576.99        27.72212
577.42        27.57955
577.86        27.45253
578.29        28.03689
578.73        27.62794
579.16        27.58333
579.60        27.36999
580.03         27.3993
580.47        27.29832
580.90        27.42224
581.33        27.41987
581.77        27.46237
582.20        26.77435
582.64        26.91687
583.07        26.90265
583.51        26.89601
583.94        26.73515
584.37        26.69473
584.81        26.76323
585.24        26.65309
585.68        26.45355
586.11        26.14544
586.54        26.09005
586.98        26.00255
587.41        26.00175
587.85        25.88714
588.28        25.67975
588.71          25.815
589.15        25.77863
589.58        25.72985
590.01          25.925
590.45        25.85015
590.88        25.68922
591.31        25.63244
591.75        25.71658
592.18        25.73202
592.61        25.66644
593.05         25.8764
593.48        26.04636
593.91        25.97916
594.35        25.90904
594.78        25.88952
595.21        26.03207
595.65        26.22723
596.08        26.52111
596.51        26.73865
596.94        26.77286
597.38        26.92543
597.81        27.16746
598.24         27.3203
598.68        27.46703
599.11        27.66274
599.54        28.24874
599.97        28.30057
600.41        28.74524
600.84         28.8355
601.27        29.24709
601.70        29.51878
602.14        29.74735
602.57        30.08819
603.00        30.58263
603.43        30.54155
603.87        31.16166
604.30        31.58982
604.73        31.97387
605.16        32.19346
605.60        32.53115
606.03         32.7507
606.46        32.98279
606.89        33.13656
607.32        33.98188
607.76        34.15275
608.19        34.58891
608.62        34.85192
609.05         35.2577
609.48        35.57788
609.92        36.19939
610.35        36.52328
610.78         36.4215
611.21        36.21481
611.64        36.87426
612.07        37.25288
612.50        37.42113
612.94        37.68207
613.37         37.9688
613.80        38.14398
614.23        38.10418
614.66        38.31493
615.09        38.72676
615.52        39.08564
615.96        39.34155
616.39        39.59985
616.82        39.85941
617.25        40.01327
617.68        40.09648
618.11        40.31999
618.54        40.65984
618.97        40.83779
619.40        40.85565
619.84        41.09761
620.27         41.1886
620.70        41.41758
621.13        41.60121
621.56        41.50924
621.99        41.22863
622.42        41.17778
622.85        41.34837
623.28        41.53979
623.71        41.70494
624.14        41.65117
624.57        41.83258
625.00        41.75993
625.43        41.80669
625.86        41.80439
626.29        41.87639
626.72         41.3922
627.15        41.56057
627.58        41.39314
628.01        41.21275
628.44        40.98286
628.87        40.72041
629.30        40.35472
629.73        39.92514
630.16        39.86645
630.59        39.59616
631.02        39.56139
631.45        39.52358
631.88        39.39801
632.31        39.14784
632.74        38.80286
633.17        38.40089
633.60        37.99068
634.03        37.59777
634.46        37.20916
634.89        36.81942
635.32        36.42941
635.75        36.04182
636.18        35.62458
636.61        35.21004
637.04        34.86369
637.47        34.58799
637.89        34.35719
638.32        34.11324
638.75        33.79853
639.18        33.40431
639.61        32.95667
640.04        32.51508
640.47        32.16806
640.90        31.93665
641.33        31.79762
641.76        31.70744
642.18        31.59723
642.61        31.43775
643.04        31.25388
643.47        31.08058
643.90        30.97369
644.33        30.94473
644.76        30.97218
645.18        31.02281
645.61        31.03891
646.04        31.01517
646.47        30.97672
646.90        30.96022
647.33        31.03257
647.75        31.20323
648.18        31.43415
648.61        31.72294
649.04          32.079
649.47        32.40122
649.89        32.89634
650.32        32.75607
650.75        33.05171
651.18        33.53714
651.61        33.99915
652.03        34.40525
652.46        34.80204
652.89        35.19398
653.32        35.56697
653.74        35.93347
654.17        36.29618
654.60        36.47375
655.03        36.95216
655.46        37.05218
655.88         37.4423
656.31        38.77737
656.74        38.64927
657.16        39.84694
657.59        41.81184
658.02        40.15522
658.45        40.48327
658.87         40.3744
659.30        40.76067
659.73        40.76931
660.15        42.02281
660.58        41.32144
661.01        41.47926
661.44        41.68977
661.86        41.86589
662.29        41.96632
662.72        42.44829
663.14        42.51408
663.57        42.72042
664.00        42.88185
664.42        43.15791
664.85        43.56068
665.27         44.0162
665.70         44.4166
666.13        44.65488
666.55        44.71064
666.98        44.57761
667.41        44.34023
667.83        44.42332
668.26        44.40462
668.69        44.61212
669.11        44.87797
669.54        45.13544
669.96        45.35534
670.39        45.60651
670.82        45.85614
671.24         45.9191
671.67        45.84958
672.09        45.88668
672.52        46.05213
672.94        46.21486
673.37        46.34144
673.80        46.37116
674.22        46.35448
674.65        46.45015
675.07         46.6796
675.50        46.92207
675.92        47.12632
676.35        47.25774
676.77        47.30181
677.20         47.2654
677.62        47.20179
678.05        47.19913
678.47        47.27998
678.90         47.4256
679.32        47.59579
679.75        47.73364
680.17        47.81986
680.60        47.87534
681.02        47.92962
681.45        48.02708
681.87         48.1865
682.30        48.37198
682.72        48.56059
683.15        48.71587
683.57        48.82101
684.00        48.81864
684.42        48.76898
684.85         48.8311
685.27        49.01826
685.70        49.26259
686.12        49.48536
686.54        49.62628
686.97         49.6669
687.39        49.56572
687.82        49.41584
688.24        49.48658
688.66        49.45036
689.09        49.57458
689.51        49.72943
689.94        49.86602
690.36        49.96905
690.78          50.048
691.21        50.12941
691.63         50.2362
692.06        50.37766
692.48        50.55202
692.90        50.71371
693.33        50.79751
693.75        50.79374
694.17        50.69956
694.60         50.6123
695.02        50.70197
695.44        50.97507
695.87        51.36864
696.29        51.75943
696.71        51.82916
697.14        51.61307
697.56        51.47056
697.98        51.49091
698.41        51.54126
698.83        51.63467
699.25        51.91739
699.68        52.27899
700.10        52.49374
700.52        52.49787
700.94        52.37341
701.37         52.2076
701.79         52.1464
702.21        52.22627
702.64        52.38781
703.06        52.59125
703.48        52.76023
703.90        52.86553
704.33        52.93454
704.75        52.97116
705.17        52.97058
705.59        52.94651
706.01        52.90194
706.44        52.86903
706.86        52.92105
707.28        53.06271
707.70        53.26367
708.12        53.50005
708.55         53.7445
708.97        53.96886
709.39        54.12425
709.81        54.20767
710.23         54.2775
710.66        54.33508
711.08        54.35392
711.50        54.32182
711.92        54.25735
712.34        54.17299
712.76        54.07992
713.19        53.99985
713.61        53.99419
714.03        54.06639
714.45        54.21044
714.87        54.40804
715.29        54.63102
715.71        54.85759
716.13        55.07293
716.56        55.27037
716.98         55.4698
717.40        55.62764
717.82        55.82904
718.24        56.02662
718.66        55.68416
719.08         55.5486
719.50        55.09312
719.92        54.68893
720.34         54.5462
720.76        54.71674
721.19        55.10694
721.61        55.61234
722.03        56.02982
722.45        56.27308
722.87        56.38321
723.29        56.37449
723.71         56.2804
724.13         56.1325
724.55        55.92579
724.97        55.70356
725.39        55.55132
725.81        55.49973
726.23        55.52437
726.65        55.60919
727.07        55.84116
727.49        55.99853
727.91         56.2356
728.33        56.47436
728.75        56.69107
729.17        56.86655
729.59        56.99929
730.01        57.06648
730.43        57.03894
730.85        56.92228
731.27        56.72755
731.69        56.52631
732.10        56.43133
732.52        56.46618
732.94         56.6129
733.36        56.80712
733.78        56.86356
734.20         56.6702
734.62        56.55733
735.04        56.65813
735.46        56.16205
735.88        56.76522
736.30         57.0582
736.72        57.46792
737.13         57.8092
737.55        57.98546
737.97        58.19346
738.39        58.34938
738.81        58.01325
739.23        57.35894
739.65        57.26078
740.06         57.6703
740.48        57.83919
740.90        57.72581
741.32        57.80296
741.74        58.06145
742.16        58.22765
742.57        58.27666
742.99        58.26256
743.41        58.22232
743.83        58.20214
744.25        58.21776
744.67        58.24241
745.08        58.28019
745.50        58.31908
745.92        58.36145
746.34        58.41107
746.75        58.45613
747.17        58.46375
747.59        58.43673
748.01         58.3824
748.42        58.32823
748.84        58.33023
749.26        58.39798
749.68        58.47871
750.09        58.54367
750.51        58.62864
750.93        58.68227
751.35        58.55463
751.76        58.29268
752.18         58.1276
752.60        58.07991
753.01        58.05875
753.43         58.0519
753.85        58.03244
754.27        57.98733
754.68        58.07224
755.10        58.32924
755.52        58.07634
755.93         58.4764
756.35         58.5535
756.77        58.69789
757.18        58.79047
757.60        58.82006
758.02        59.11771
758.43        59.58128
758.85        58.83152
759.26        58.73265
759.68        58.30106
760.10        58.41207
760.51        58.78169
760.93        59.34893
761.34        59.22979
761.76         59.2434
762.18        59.12739
762.59        59.22445
763.01        59.41962
763.42        59.70305
763.84        59.82137
764.26        59.75715
764.67          59.658
765.09        59.58236
765.50        59.45011
765.92         59.3126
766.33        59.17315
766.75        59.01147
767.16        58.96713
767.58        59.01342
768.00        59.05639
768.41        59.13903
768.83        59.38593
769.24        59.67604
769.66        59.85403
770.07        59.86666
770.49        59.40835
770.90        58.78949
771.32        59.25216
771.73        60.56646
772.15        61.08456
772.56        60.69081
772.97        60.28025
773.39        60.04649
773.80        59.90972
774.22        59.91636
774.63        60.12541
775.05        60.39117
775.46        60.54224
775.88        60.50269
776.29         60.3459
776.70        60.15968
777.12        60.11139
777.53         60.2436
777.95         60.4509
778.36        60.67279
778.77        60.78306
779.19        60.76731
779.60        60.69789
780.02        60.56035
780.43        60.43157
780.84        60.36369
781.26        59.99324
781.67        59.52947
782.09        60.10301
782.50        61.37692
782.91        61.44714
783.33        60.39593
783.74        60.13436
784.15        60.50394
784.57        60.65278
784.98        60.50683
785.39        60.52179
785.81        60.71521
786.22        61.01998
786.63        61.35429
787.04        61.53228
787.46        61.52837
787.87        61.39835
788.28         61.2435
788.70        61.16244
789.11        61.17309
789.52        61.33495
789.93        61.54289
790.35         61.5274
790.76        61.31883
791.17        61.11698
791.58        61.05007
792.00        61.21614
792.41        61.53658
792.82        61.83856
793.23        61.98428
793.65        61.60049
794.06        60.92878
794.47        60.96781
794.88        61.61786
795.29         61.8281
795.71        61.53008
796.12         61.5074
796.53        61.76834
796.94        61.68117
797.35        61.35381
797.76         61.5802
798.18        62.24601
798.59        62.54939
799.00        62.40544
799.41        62.25016
799.82        62.16483
800.23        62.09525
800.64        62.06987
801.06        62.07061
801.47        62.10967
801.88        62.12508
802.29        62.09736
802.70        62.04041
803.11        61.95778
803.52        61.85499
803.93        61.75867
804.34        61.68073
804.75        61.64334
805.17        61.74445
805.58        62.03558
805.99        62.23645
806.40        62.36433
806.81        63.00486
807.22        63.86879
807.63        63.67469
808.04         62.6148
808.45        62.12615
808.86        62.33674
809.27        62.48906
809.68        62.45267
810.09        62.37268
810.50        62.22007
810.91        61.96252
811.32          61.752
811.73        61.81734
812.14        62.19269
812.55        62.83032
812.96        63.49816
813.37        63.71847
813.78        63.39564
814.19        62.77768
814.60        62.10358
815.01        61.62424
815.42        61.41845
815.83        61.43986
816.24        61.60993
816.65        61.74915
817.05        61.79872
817.46        61.80573
817.87        61.80731
818.28        61.80483
818.69        61.80959
819.10        61.79148
819.51        61.80602
819.92        61.96727
820.33        62.28163
820.74        62.70461
821.14        63.11357
821.55        63.30842
821.96        63.24562
822.37        62.98277
822.78        62.63054
823.19        62.38137
823.60        62.30476
824.00        62.37914
824.41        62.50508
824.82        62.60216
825.23        62.62943
825.64        62.61653
826.04        62.60899
826.45        62.63867
826.86        62.72648
827.27        62.85942
827.68        62.97439
828.08        62.99811
828.49        62.86732
828.90        62.61909
829.31         62.3732
829.72        62.32685
830.12        62.54056
830.53        62.91087
830.94        63.26994
831.35        63.28365
831.75        62.89709
832.16        62.21404
832.57        61.48303
832.97        61.07331
833.38         61.0842
833.79        61.37957
834.20        61.84344
834.60        62.29073
835.01          62.648
835.42        63.00754
835.82        63.31498
836.23        63.40348
836.64        63.27937
837.04        62.93395
837.45        62.60293
837.86        62.74178
838.26         63.4467
838.67        64.55961
839.08        65.65697
839.48         65.9353
839.89        65.20738
840.29         63.7792
840.70        62.28195
841.11        61.44901
841.51         61.4643
841.92        62.08871
842.33         63.0498
842.73        63.85452
843.14        64.20653
843.54        64.28942
843.95        64.21801
844.35        64.22815
844.76        64.36941
845.17        64.54284
845.57        64.65362
845.98        64.54742
846.38        64.21928
846.79        63.73597
847.19        63.24256
847.60        62.93314
848.00        62.86755
848.41        62.96891
848.81        63.14355
849.22         63.1557
849.62        62.98482
850.03        62.69518
850.43        62.39318
850.84        62.18835
851.24        62.15887
851.65        62.20151
852.05        62.38488
852.46        62.72246
852.86         63.1762
853.27         63.7242
853.67        64.14935
854.07        64.25809
854.48        64.00681
854.88        63.46532
855.29        62.78959
855.69        62.39297
856.10        62.34468
856.50        62.62349
856.90        63.00127
857.31         63.1013
857.71        62.86979
858.12        62.34919
858.52        61.79759
858.92        61.54264
859.33        61.65588
859.73         62.0717
860.13        62.51585
860.54        62.55854
860.94        62.14032
861.34        61.39346
861.75         60.6048
862.15        60.27415
862.55        60.51237
862.96        61.13677
863.36        61.94287
863.76        62.50503
864.17         62.6658
864.57        62.57815
864.97        62.31303
865.38        61.99435
865.78        61.70937
866.18        61.39739
866.58        61.13406
866.99        61.06586
867.39        61.23624
867.79        61.61594
868.19        62.06497
868.60        62.32865
869.00        62.36956
869.40        62.21317
869.80        61.97613
870.21        61.89232
870.61        62.08004
871.01        62.41842
871.41        62.71028
871.81        62.67856
872.22        62.27981
872.62        61.60387
873.02        60.89363
873.42        60.55701
873.82        60.70081
874.22        61.19258
874.63        61.76691
875.03         62.0209
875.43        61.83571
875.83        61.34449
876.23        60.75016
876.63        60.36456
877.03        60.27891
877.44        60.36961
877.84         60.5369
878.24         60.6481
878.64        60.60604
879.04        60.31366
879.44        59.94275
879.84        59.87152
880.24        60.12567
880.64        60.53342
881.04        60.85865
881.44        60.75631
881.84        60.16941
882.24        59.25605
882.65        58.30607
883.05        57.75511
883.45        57.73036
883.85        58.10966
884.25        58.75152
884.65        59.39974
885.05        59.92743
885.45        60.37727
885.85        60.73526
886.25        60.99169
886.65        61.15466
887.05        61.20397
887.45        61.14948
887.85         61.0362
888.25        60.88712
888.65        60.70647
889.04        60.53358
889.44        60.44226
889.84        60.43151
890.24        60.49589
890.64        60.56649
891.04         60.5219
891.44        60.34997
891.84        60.10705
892.24        59.88006
892.64        59.79772
893.04         59.8911
893.44        60.11351
893.83        60.44317
894.23        60.79192
894.63         61.1303
895.03        61.45224
895.43         61.7108
895.83        61.84356
896.23        61.82111
896.63        61.62874
897.02        61.30206
897.42        60.93267
897.82        60.56694
898.22         60.2554
898.62        59.94886
899.01        59.54454
899.41        59.06992
899.81        58.55175
900.21        58.20832
900.61        58.38819
901.00        59.11512
901.40        60.23222
901.80         61.3669
902.20        61.92741
902.59        61.78002
902.99        61.10027
903.39        60.18008
903.79        59.51265
904.18        59.25912
904.58        59.27958
904.98        59.50656
905.38         59.8398
905.77         60.2206
906.17        60.71706
906.57        61.18979
906.96        61.38742
907.36        61.25099
907.76        60.83488
908.15        60.40307
908.55        60.37809
908.95        60.85001
909.34        61.69479
909.74        62.57081
910.14        62.99519
910.53        62.80758
910.93        62.18016
911.33        61.33101
911.72        60.58307
912.12        60.11246
912.52        59.84754
912.91        59.70394
913.31        59.56568
913.70        59.40425
914.10        59.23215
914.49        59.21936
914.89          59.559
915.29        60.28053
915.68        61.30389
916.08        62.24817
916.47        62.55522
916.87        62.12871
917.26        61.13121
917.66        60.06248
918.05        59.54422
918.45        59.71596
918.84        60.43497
919.24        61.31786
919.64        61.80842
920.03        61.74191
920.42        61.26461
920.82         60.7052
921.21        60.51224
921.61         60.7803
922.00        61.38755
922.40        62.03745
922.79        62.35439
923.19        62.19585
923.58        61.73032
923.98        61.18877
924.37        60.84006
924.77        60.77693
925.16        60.87824
925.55        61.07047
925.95        61.21724
926.34        61.27263
926.74        61.25911
927.13        61.16664
927.52        60.90536
927.92        60.53011
928.31        60.07435
928.70         59.6436
929.10         59.3758
929.49        59.29169
929.89        59.29266
930.28        59.47845
930.67        59.90979
931.07        60.52419
931.46        61.35641
931.85        62.02723
932.24        61.97015
932.64        61.15305
933.03        59.74602
933.42        58.34912
933.82        57.83941
934.21        58.39279
934.60        59.79269
934.99        61.49715
935.39        62.51236
935.78        62.55716
936.17        61.82755
936.56        60.77892
936.96        60.13356
937.35        60.08589
937.74        60.40595
938.13        60.74289
938.53        60.58133
938.92        59.83518
939.31        58.76221
939.70        57.70099
940.09         57.0951
940.49        57.02536
940.88         57.3646
941.27         57.9636
941.66        58.54272
942.05        58.97745
942.44        59.35684
942.84        59.66929
943.23        59.89019
943.62        60.03098
944.01        60.02543
944.40        59.99468
944.79        60.17622
945.18        60.58819
945.57        61.16288
945.97        61.58655
946.36        61.42146
946.75        60.56255
947.14        59.23698
947.53        57.82837
947.92        56.86385
948.31        56.47779
948.70        56.53519
949.09        56.87416
949.48        57.20329
949.87        57.41029
950.26        57.57717
950.65        57.75542
951.04        58.02815
951.43        58.40398
951.82        58.80022
952.21        59.14979
952.60        59.38053
952.99         59.4781
953.38        59.48597
953.77        59.44137
954.16        59.39984
954.55        59.37595
954.94        59.33062
955.33        59.29676
955.72        59.32743
956.11         59.4209
956.50        59.58714
956.89        59.66482
957.28        59.38118
957.66        58.70648
958.05        57.78212
958.44        56.90634
958.83        56.50912
959.22        56.65038
959.61        57.18722
960.00        57.85022
960.39        58.13593
960.78        57.88959
961.16        57.29179
961.55        56.56519
961.94        55.96014
962.33        55.57933
962.72        55.35936
963.11        55.34691
963.49        55.66346
963.88        56.21856
964.27        56.92395
964.66        57.67527
965.04        58.36618
965.43        58.89822
965.82        59.33466
966.21        59.42107
966.60        58.75084
966.98        57.34103
967.37        55.47272
967.76        53.78372
968.15        53.05274
968.53        53.39005
968.92        54.62129
969.31        56.23805
969.69        57.17087
970.08        56.98855
970.47        56.03127
970.86         54.9218
971.24        54.56422
971.63        55.15815
972.02        56.42047
972.40        57.94387
972.79        58.70551
973.17        58.42509
973.56        57.47499
973.95        56.32133
974.33        55.53002
974.72        55.26011
975.11        55.31136
975.49        55.60612
975.88        55.97035
976.26        56.33801
976.65        56.70908
977.04        57.03199
977.42        57.18135
977.81        57.09944
978.19        56.79372
978.58        56.40697
978.96        56.14627
979.35        56.04853
979.74        56.07224
980.12        56.21022
980.51        56.23181
980.89        56.20115
981.28        56.18362
981.66        56.21712
982.05        56.30197
982.43        56.47264
982.82        56.67904
983.20         57.1272
983.59        58.11643
983.97        59.70044
984.35        61.69297
984.74        63.48858
985.12        64.32578
985.51         63.9441
985.89        62.63602
986.28        60.95959
986.66        59.67049
987.04        59.06455
987.43          58.922
987.81        59.14653
988.20        59.44197
988.58        59.67419
988.96        59.86095
989.35        59.95688
989.73         59.8782
990.12        59.60159
990.50        59.17772
990.88        58.50301
991.27        57.49506
991.65        56.26497
992.03        54.92623
992.42        53.93126
992.80        53.86523
993.18        54.81053
993.56        56.61937
993.95        58.67981
994.33        59.93927
994.71        59.89779
995.10        58.90773
995.48        57.51502
995.86        56.63128
996.24        56.50366
996.63        56.78537
997.01        57.37767
997.39        57.78553
997.77        57.80124
998.15        57.68562
998.54        57.49816
998.92        57.16606
999.30        56.78995
999.68        56.36208
1000.06        56.15529
1000.45        56.55503
1000.83        57.68893
1001.21        59.47224
1001.59        61.56828
1001.97        63.03686
1002.35        63.48751
1002.73        63.23617
1003.12         62.6696
1003.50        62.15535
1003.88        61.92793
1004.26        61.69259
1004.64        61.79652
1005.02        62.87548
1005.40        64.93298
1005.78        67.87514
1006.16        70.34526
1006.54        70.22655
1006.92        67.35539
1007.30        62.50972
1007.69           57.71
1008.07        55.68536
1008.45        57.20025
1008.83        61.68837
1009.21        67.61399
1009.59        71.15053
1009.97         70.5138
1010.35        66.84317
1010.73         61.9796
1011.11        58.53768
1011.49        57.23475
1011.86        57.24948
1012.24         57.9325
1012.62        58.49331
1013.00        58.67474
1013.38        58.70276
1013.76        58.90412
1014.14         59.7695
1014.52        61.32292
1014.90        63.23306
1015.28        64.55506
1015.66        64.12737
1016.04        61.87588
1016.41        58.17558
1016.79        54.26952
1017.17        52.52058
1017.55        53.52854
1017.93        56.45028
1018.31        59.89449
1018.69        61.89408
1019.06        61.97527
1019.44        60.68467
1019.82        58.40437
1020.20        56.26545
1020.58        54.94715
1020.95        53.95068
1021.33        53.51934
1021.71        53.84123
1022.09        54.86198
1022.46         56.9504
1022.84        59.12277
1023.22        58.93578
1023.60        55.77843
1023.97        50.41033
1024.35        45.61884
1024.73        44.55425
