SpectraSmart Spectrum 2.9.0.0
--------- Device Information -----------
Spectrum Name :  反射率_0
Saving Time :  2024/04/26 22:53:55
Spectro-Module Model Name : SE2030-DUVN
Spectro-Module Serial Number : OS361AC55029948
Wavelength Start : 200
Wavelength End : 1025
Wavelength Unit : Wavelength(nm)
Spectrum Unit : Reflectance(%)
-----------Spectrum Setting ------------
Integration Time : 20ms
Average : 10
Boxcar : 0
Background removal :  enabled
linearity correction :  enabled
SC :  disabled
Intensity correction :  disabled
DWT denoise :  enabled
savitzky-golay :  disabled
FFT :  disabled
Running average :  disabled
Kalman :  disabled
High pass :  disabled
---------------BEGIN--------------------
Wavelength(nm)             Reflectance(%)
200.29               0
200.75        64.14063
201.21        59.48633
201.67        56.25735
202.13        55.41705
202.58        56.89913
203.04        61.01508
203.50        68.02869
203.96        76.54395
204.42        84.76281
204.88        92.15414
205.34        97.19208
205.80        98.84303
206.26        97.22655
206.72        92.42122
207.18        87.31692
207.64        84.32287
208.10        83.55193
208.55        85.91856
209.01        89.23583
209.47        87.37197
209.93        80.16137
210.39        72.53786
210.85         69.0715
211.31        72.74853
211.77        85.66376
212.23         116.982
212.69        195.0887
213.14        319.8521
213.60        304.0529
214.06        208.0456
214.52        145.9559
214.98        119.1826
215.44        108.8412
215.90        103.9462
216.36        103.1648
216.81        106.4021
217.27        113.9934
217.73        130.4076
218.19         152.855
218.65        159.7096
219.11        144.8752
219.57        122.8054
220.02        108.8429
220.48        111.8027
220.94        130.8717
221.40        168.1704
221.86        223.5597
222.32        263.4185
222.77        255.6416
223.23        221.6745
223.69        185.3564
224.15        160.4384
224.61        145.9996
225.06        136.3195
225.52        131.5334
225.98        131.3137
226.44        134.7415
226.90        141.6914
227.36        149.8265
227.81        154.5727
228.27        155.1118
228.73        152.5087
229.19        149.5807
229.65        149.8841
230.10        153.5395
230.56         159.405
231.02         164.889
231.48        166.0213
231.93        162.2831
232.39         156.251
232.85        150.3008
233.31        147.5051
233.77        148.1621
234.22        150.9445
234.68        154.7468
235.14        157.9107
235.60        159.7472
236.05        161.0248
236.51        160.9362
236.97         158.491
237.43        153.6485
237.88         146.675
238.34        139.3946
238.80           135.3
239.26        135.5445
239.71        140.9659
240.17        149.7971
240.63        157.0935
241.08        159.6716
241.54        156.5446
242.00        151.6496
242.46        153.7084
242.91        168.6764
243.37         198.868
243.83        244.7783
244.28        283.3611
244.74        280.8248
245.20        238.5778
245.66        187.3774
246.11        153.3103
246.57         136.808
247.03        130.1091
247.48        126.2971
247.94        116.8583
248.40         103.819
248.85        92.40765
249.31        85.22922
249.77        82.55722
250.22        83.50253
250.68        87.27305
251.14         93.5095
251.59        99.57824
252.05        103.2546
252.51        105.6032
252.96        106.2922
253.42        106.2468
253.88        105.8515
254.33        104.3052
254.79        104.6782
255.25        109.3472
255.70        117.6501
256.16        128.7541
256.62        137.7517
257.07        137.2574
257.53        130.0119
257.99        120.9329
258.44        113.8217
258.90        112.3401
259.35        114.7076
259.81        119.5178
260.27        124.5481
260.72        127.1076
261.18        127.3473
261.63        125.7988
262.09        124.1908
262.55        123.3336
263.00        123.0677
263.46         123.335
263.91        123.0966
264.37        121.8264
264.83        119.4981
265.28         116.517
265.74         113.977
266.19        112.5719
266.65        112.5107
267.11        113.2592
267.56        114.2415
268.02        114.5939
268.47         114.022
268.93        112.8817
269.38        111.3225
269.84        109.7177
270.30        108.1879
270.75        106.5973
271.21         105.153
271.66        104.0483
272.12        103.3026
272.57        102.7855
273.03        102.2571
273.48        101.2425
273.94        99.76324
274.39        97.91484
274.85        96.00745
275.31        94.15829
275.76        92.39923
276.22        90.81304
276.67        89.38113
277.13        88.35542
277.58        87.58534
278.04        87.03813
278.49        86.43304
278.95        85.61757
279.40        84.43195
279.86        83.12194
280.31        81.58036
280.77        79.93828
281.22        78.17113
281.68        76.44396
282.13        74.87132
282.59        73.84939
283.04        73.29147
283.50        73.11843
283.95        73.01865
284.41        72.57023
284.86        71.65258
285.32        70.47077
285.77          69.177
286.22        68.12411
286.68        67.38191
287.13        66.77158
287.59        66.22427
288.04        65.53853
288.50         64.7309
288.95        63.82357
289.41        62.92133
289.86        62.01507
290.32        61.19223
290.77        60.39852
291.22          59.679
291.68        59.07028
292.13        58.54427
292.59        58.11752
293.04        57.76748
293.50        57.50576
293.95        57.30225
294.40        57.14637
294.86        57.01402
295.31        56.84653
295.77        56.65045
296.22        56.43489
296.68        56.21914
297.13        55.99814
297.58        55.79388
298.04        55.60379
298.49        55.47692
298.95        55.52155
299.40        55.72533
299.85        56.05462
300.31        56.38911
300.76        56.51184
301.21        56.39425
301.67        56.12189
302.12        55.79148
302.58        55.64545
303.03        55.69272
303.48        55.88495
303.94        56.14127
304.39          56.279
304.84        56.27743
305.30        56.20196
305.75        56.07818
306.20        56.02127
306.66        56.06972
307.11        56.16065
307.57        56.25581
308.02        56.22551
308.47        56.06721
308.93        55.82637
309.38        55.56872
309.83        55.46249
310.29        55.53239
310.74        55.72087
311.19        55.89246
311.65        55.82215
312.10        55.46376
312.55        54.89862
313.00        54.31091
313.46        53.97115
313.91        53.91698
314.36        54.07775
314.82        54.28658
315.27        54.28947
315.72        54.01306
316.18        53.54984
316.63        53.03044
317.08        52.67956
317.53        52.54803
317.99        52.55587
318.44        52.59069
318.89        52.45839
319.35        52.11392
319.80        51.63072
320.25        51.12201
320.70        50.76217
321.16        50.59486
321.61        50.58043
322.06         50.6268
322.51        50.59056
322.97        50.42011
323.42        50.15885
323.87        49.88363
324.32        49.72799
324.78        49.70187
325.23         49.7896
325.68        49.85369
326.13        49.68366
326.59         49.2403
327.04        48.61708
327.49        47.98104
327.94        47.59729
328.39        47.52384
328.85        47.66148
329.30        47.91777
329.75        48.02029
330.20        47.88354
330.66        47.58109
331.11        47.22391
331.56        46.95317
332.01        46.81791
332.46        46.75434
332.92        46.71784
333.37        46.71542
333.82        46.70419
334.27        46.70947
334.72        46.69333
335.17        46.57971
335.63        46.36115
336.08        46.08862
336.53        45.83954
336.98        45.76458
337.43        45.89678
337.88        46.17493
338.34        46.52671
338.79        46.87452
339.24        47.14421
339.69        47.35522
340.14        47.44164
340.59         47.3085
341.05        46.97541
341.50         46.4765
341.95        45.96873
342.40        45.69333
342.85        45.70597
343.30        45.94487
343.75        46.28724
344.20        46.51969
344.66        46.57953
345.11        46.52475
345.56        46.41811
346.01         46.3639
346.46         46.3951
346.91         46.4689
347.36        46.55634
347.81        46.62451
348.26        46.65872
348.72        46.67341
349.17        46.67384
349.62        46.68158
350.07        46.69975
350.52        46.72504
350.97         46.7219
351.42        46.63683
351.87         46.4691
352.32        46.24294
352.77        46.02856
353.22        45.92559
353.67        45.94742
354.13        46.05798
354.58         46.1857
355.03        46.20494
355.48        46.08104
355.93        45.85323
356.38        45.58445
356.83        45.36904
357.28        45.22868
357.73        45.12735
358.18         45.0271
358.63        44.87278
359.08        44.64751
359.53        44.37169
359.98        44.06326
360.43        43.74099
360.88        43.41048
361.33        43.06831
361.78        42.70853
362.23         42.3255
362.68        41.93157
363.13        41.54547
363.58        41.19128
364.03         40.8988
364.48        40.67005
364.93        40.48647
365.38        40.33866
365.83        40.21313
366.28        40.09551
366.73        39.98383
367.18        39.84201
367.63        39.61579
368.08        39.30162
368.53        38.92016
368.98        38.52759
369.43        38.21466
369.88        38.00441
370.33         37.8715
370.78        37.77869
371.23        37.66087
371.68         37.4958
372.13         37.3036
372.58        37.09327
373.03        36.87923
373.48        36.66512
373.93        36.43559
374.38        36.19969
374.83        35.97815
375.28        35.77415
375.72        35.58135
376.17         35.3931
376.62        35.15107
377.07        34.85652
377.52        34.53651
377.97         34.2434
378.42        34.06606
378.87        34.01914
379.32        34.05545
379.77        34.13572
380.22        34.20411
380.67        34.23102
381.11        34.23815
381.56        34.16084
382.01        33.93612
382.46        33.57905
382.91        33.13628
383.36        32.71061
383.81        32.44012
384.26        32.34339
384.71        32.37429
385.15        32.47454
385.60        32.53853
386.05        32.52551
386.50        32.46349
386.95        32.34581
387.40        32.16766
387.85        31.94477
388.29        31.66273
388.74        31.40959
389.19        31.23157
389.64        31.13415
390.09         31.0986
390.54        31.08407
390.98        31.01281
391.43        30.88775
391.88        30.73332
392.33        30.58107
392.78        30.47467
393.23        30.42245
393.67        30.38964
394.12        30.39308
394.57        30.40174
395.02        30.40359
395.47        30.39312
395.91        30.36946
396.36        30.31595
396.81        30.24826
397.26         30.1786
397.71        30.09513
398.15        29.99981
398.60        29.93344
399.05        29.77484
399.50        29.59188
399.95        29.70003
400.39        30.00877
400.84         29.9664
401.29        29.58698
401.74        29.36406
402.18        29.32705
402.63        29.17589
403.08         28.9515
403.53        28.84709
403.97        28.87522
404.42        28.98785
404.87        29.11516
405.32        29.14126
405.76        29.03723
406.21        28.85263
406.66        28.66279
407.11        28.58875
407.55        28.66508
408.00        28.84118
408.45        29.04586
408.90        29.13818
409.34        29.07479
409.79        28.90749
410.24        28.71156
410.68        28.58512
411.13        28.55939
411.58        28.60044
412.03        28.66083
412.47        28.66417
412.92        28.58006
413.37        28.44835
413.81        28.30916
414.26         28.2419
414.71        28.25098
415.15        28.32232
415.60        28.40626
416.05        28.44776
416.49         28.4314
416.94        28.37125
417.39         28.3033
417.83        28.27917
418.28        28.30869
418.73        28.36675
419.17         28.4294
419.62        28.46138
420.07        28.45147
420.51        28.40798
420.96        28.34095
421.41         28.2569
421.85        28.15647
422.30        28.03296
422.74        27.89483
423.19        27.87877
423.64        27.94568
424.08        27.91462
424.53        27.79466
424.98        27.81255
425.42        27.99288
425.87        28.14168
426.31        28.22373
426.76        28.39148
427.21        28.55127
427.65        28.31896
428.10        27.85235
428.54        27.69284
428.99        27.89242
429.44        28.27348
429.88        28.66163
430.33        28.67247
430.77        28.36499
431.22        28.33267
431.66        28.56783
432.11        28.60348
432.56        28.45951
433.00        28.40791
433.45         28.3789
433.89         28.3378
434.34        28.36538
434.78        27.70757
435.23         28.0003
435.67        27.99631
436.12        28.11045
436.57        28.07553
437.01        27.90751
437.46        27.85994
437.90        27.94213
438.35        27.78312
438.79        27.79775
439.24        27.75584
439.68        27.77987
440.13        27.83266
440.57        27.90219
441.02        27.96539
441.46        28.00238
441.91        28.00829
442.35        27.97304
442.80        28.04305
443.24        28.15989
443.69        28.12151
444.13        27.96398
444.58        27.94247
445.02        28.06531
445.47        28.20465
445.91        28.31108
446.36        28.37263
446.80        28.36934
447.24        28.30867
447.69        28.22838
448.13        28.17759
448.58        28.17631
449.02         28.2043
449.47        28.24115
449.91        28.23907
450.36        28.19705
450.80        28.12595
451.25        28.05779
451.69        28.01911
452.13        28.02219
452.58        28.05216
453.02        28.09152
453.47        28.11761
453.91        28.12293
454.36         28.1199
454.80        28.10599
455.24        28.07681
455.69        28.04173
456.13        27.98011
456.58        27.93353
457.02        27.92283
457.46        27.96146
457.91        28.04226
458.35         28.1025
458.79        28.05365
459.24         27.9086
459.68        27.68525
460.13        27.48759
460.57        27.40442
461.01        27.47339
461.46        27.63946
461.90        27.85813
462.34        28.03235
462.79        28.11838
463.23        28.15375
463.68        28.12643
464.12        28.03779
464.56        27.89817
465.01        27.74196
465.45        27.58187
465.89        27.51295
466.34         27.5438
466.78        27.64692
467.22        27.78438
467.67        27.85775
468.11        27.85548
468.55        27.79281
468.99        27.70912
469.44        27.66578
469.88        27.68338
470.32        27.73859
470.77        27.81115
471.21        27.87409
471.65        27.91329
472.10        27.94065
472.54        27.95407
472.98        27.95854
473.42        27.95514
473.87         27.9476
474.31        27.92106
474.75        27.88061
475.20        27.83707
475.64        27.78703
476.08        27.74386
476.52        27.71103
476.97        27.69123
477.41        27.69527
477.85        27.73582
478.29        27.79157
478.74        27.88009
479.18        28.06472
479.62         28.2868
480.06         28.4077
480.50        28.41513
480.95        28.33262
481.39        28.18739
481.83        28.29816
482.27        28.26266
482.72        28.38628
483.16        28.52642
483.60        28.60749
484.04         28.6126
484.48         28.6699
484.93        28.80061
485.37        28.56984
485.81        28.92191
486.25        28.72286
486.69        28.23358
487.14        28.68742
487.58        29.56083
488.02        29.40289
488.46        29.09107
488.90         29.1466
489.34        29.26357
489.79        29.90579
490.23        29.73131
490.67        29.77656
491.11         29.7361
491.55        29.65239
491.99        29.58046
492.43        29.56984
492.88        29.65881
493.32        29.85381
493.76        30.10301
494.20        30.32115
494.64        30.48997
495.08          30.567
495.52        30.59525
495.96          30.827
496.41         31.2039
496.85        31.28382
497.29        31.08068
497.73        31.22802
498.17        31.31519
498.61        31.44339
499.05        31.46181
499.49        31.47031
499.93        31.40774
500.37        31.54886
500.82        31.83296
501.26        32.02906
501.70        32.10948
502.14        32.19949
502.58        32.31677
503.02        32.43248
503.46        32.54851
503.90        32.66521
504.34        32.76636
504.78        32.82989
505.22        32.85238
505.66        32.84272
506.10        32.82062
506.54         32.8172
506.98         32.8427
507.42        32.89083
507.86        32.95508
508.30        33.02299
508.74         33.0895
509.18        33.15843
509.62        33.22924
510.06        33.30082
510.50        33.37225
510.94        33.44052
511.38        33.50607
511.82        33.57106
512.26        33.63582
512.70        33.70061
513.14        33.76231
513.58        33.81581
514.02        33.86033
514.46        33.89582
514.90        33.92829
515.34        33.96854
515.78        34.01551
516.22        34.06185
516.66        34.09648
517.10        34.10118
517.54        34.07443
517.98        34.02928
518.42        33.96994
518.86        33.90322
519.30        33.83599
519.74        33.76455
520.18        33.71484
520.62        33.72557
521.06        33.79966
521.50        33.92911
521.93        34.06118
522.37        34.09632
522.81        34.02148
523.25        33.86425
523.69        33.69859
524.13        33.64228
524.57        33.71494
525.01        33.87068
525.45        34.03904
525.89        34.10558
526.32        34.03728
526.76        33.88796
527.20        33.69165
527.64        33.50372
528.08        33.34963
528.52        33.20998
528.96        33.11008
529.40         33.0902
529.83        33.14693
530.27        33.27308
530.71        33.39982
531.15         33.4171
531.59        33.30238
532.03        33.08397
532.46        32.83305
532.90         32.6881
533.34        32.67522
533.78        32.73911
534.22        32.81433
534.66        32.83989
535.09         32.7709
535.53        32.56674
535.97        32.30624
536.41        32.19399
536.85        32.25932
537.28        32.40961
537.72        32.58707
538.16         32.7248
538.60        32.79351
539.04        32.81472
539.47        32.80671
539.91        32.81838
540.35        32.85669
540.79        32.90752
541.22        32.96175
541.66        33.01922
542.10        33.07364
542.54        33.12929
542.97        33.18505
543.41         33.2507
543.85        33.32392
544.29        33.40851
544.72        33.49174
545.16        33.57554
545.60        33.65699
546.04        33.74429
546.47        33.85996
546.91        34.03432
547.35         34.2637
547.79         34.5294
548.22        34.79838
548.66        35.01443
549.10        35.20429
549.53        35.36779
549.97        35.50663
550.41        35.54571
550.84        35.53198
551.28        35.56785
551.72          35.654
552.15           35.82
552.59        36.11164
553.03         35.9884
553.46        36.49919
553.90        36.64865
554.34        36.74022
554.77        36.79055
555.21        36.84161
555.65        36.93074
556.08        37.05511
556.52         37.1821
556.96        37.28892
557.39        37.44244
557.83         37.6081
558.27        37.58042
558.70        37.41114
559.14        37.40667
559.57        37.55837
560.01        37.66914
560.45         37.7267
560.88        37.81794
561.32        37.95318
561.75        38.10421
562.19        38.26024
562.63        38.30467
563.06        38.27119
563.50        38.37859
563.93        38.56454
564.37        38.65174
564.80        38.65089
565.24        38.59159
565.68        38.42287
566.11        38.86012
566.55        38.52064
566.98        38.51994
567.42        38.52528
567.85        38.72759
568.29        39.08203
568.72        39.35056
569.16        39.57309
569.60         39.7032
570.03        39.87046
570.47        40.08803
570.90        40.42441
571.34        39.94913
571.77        40.57915
572.21        40.61962
572.64         40.5297
573.08        41.06425
573.51        40.83162
573.95        40.95313
574.38         41.0418
574.82        41.48586
575.25         40.9012
575.69        41.18098
576.12        41.49366
576.56        41.32705
576.99        41.38655
577.42         41.2556
577.86        41.37855
578.29        41.96916
578.73        41.76945
579.16        41.64471
579.60        41.19499
580.03        41.21491
580.47        41.20801
580.90        41.22097
581.33        41.45599
581.77        41.30468
582.20        40.91209
582.64        40.79277
583.07        40.67603
583.51        40.71636
583.94        40.88638
584.37         40.8903
584.81        40.70035
585.24        40.44113
585.68        40.19263
586.11        40.12067
586.54        39.98668
586.98        39.81476
587.41        39.49178
587.85        39.92579
588.28        39.73625
588.71        39.71958
589.15        39.55222
589.58        39.90746
590.01        39.74311
590.45        39.57151
590.88        40.04192
591.31        40.05467
591.75        39.69275
592.18        39.58107
592.61        39.70225
593.05         39.8974
593.48        39.87451
593.91        40.09281
594.35        40.06958
594.78        40.03065
595.21        39.93537
595.65        40.05453
596.08        40.47991
596.51        40.75552
596.94        40.74349
597.38        40.87365
597.81        41.06953
598.24        41.65038
598.68        41.72449
599.11        41.86855
599.54        42.42477
599.97        42.35313
600.41        42.72385
600.84        42.70501
601.27         43.2173
601.70        43.45429
602.14        43.86082
602.57        44.21104
603.00        44.70156
603.43        44.46717
603.87        45.25393
604.30        45.73564
604.73        46.36529
605.16        46.06815
605.60        46.57336
606.03        46.66976
606.46        46.87788
606.89        47.39758
607.32        48.45095
607.76        48.49715
608.19        49.04304
608.62        49.22212
609.05        49.38712
609.48        49.63317
609.92        50.50875
610.35         50.7379
610.78        50.40038
611.21        50.58608
611.64         51.0572
612.07        51.57034
612.50        51.73799
612.94        52.04678
613.37        52.39781
613.80        52.53281
614.23        52.38345
614.66        52.65079
615.09        53.27861
615.52        53.60053
615.96        53.52952
616.39        54.02194
616.82        54.29356
617.25        54.11136
617.68        54.32038
618.11        54.64834
618.54        55.29333
618.97        55.49348
619.40        55.29117
619.84        55.51917
620.27        55.67418
620.70        56.00965
621.13         56.2662
621.56        55.98587
621.99        55.44752
622.42        55.40985
622.85        55.95745
623.28        55.99428
623.71        55.91146
624.14        56.27668
624.57        56.52744
625.00        56.21563
625.43        56.51309
625.86        56.39273
626.29        56.30839
626.72        55.95233
627.15        56.09328
627.58        55.93699
628.01        55.76242
628.44        55.70887
628.87        55.65398
629.30        54.96334
629.73        54.70202
630.16         54.8254
630.59        54.34593
631.02        54.27838
631.45        54.18602
631.88        54.01046
632.31         53.7057
632.74        53.31646
633.17        52.88462
633.60        52.44414
634.03        52.01992
634.46         51.6041
634.89        51.18157
635.32        50.73994
635.75        50.28384
636.18        49.77174
636.61        49.26749
637.04        48.89554
637.47          48.668
637.89        48.54034
638.32        48.41492
638.75        48.18202
639.18        47.81401
639.61        47.34757
640.04        46.86918
640.47        46.51156
640.90        46.30544
641.33        46.21904
641.76        46.19102
642.18        46.07732
642.61        45.82701
643.04        45.57896
643.47        45.43077
643.90        45.05802
644.33         45.2435
644.76        45.34147
645.18        45.50394
645.61        45.58462
646.04        45.56358
646.47        45.47444
646.90        45.38135
647.33        45.41568
647.75        45.59381
648.18        45.89402
648.61        46.26612
649.04        46.63744
649.47        46.65137
649.89        47.30594
650.32        47.29956
650.75        47.65496
651.18        48.02026
651.61         48.4973
652.03        49.07484
652.46        49.53464
652.89        49.85379
653.32        50.28803
653.74         50.9092
654.17        50.79667
654.60        51.48088
655.03        51.94598
655.46        51.88555
655.88        52.46057
656.31        53.25013
656.74        53.12515
657.16        55.44564
657.59        57.60384
658.02        55.18661
658.45        56.03984
658.87        55.70375
659.30         56.1867
659.73        56.13557
660.15        57.41177
660.58        56.96209
661.01        57.25837
661.44        57.53162
661.86        57.59421
662.29        57.48204
662.72        58.11495
663.14        58.37806
663.57        58.73118
664.00        58.88134
664.42        59.21696
664.85         59.7449
665.27        60.25907
665.70        60.64017
666.13        60.84194
666.55        60.85301
666.98        60.64103
667.41        60.29321
667.83        60.34088
668.26        60.20182
668.69        60.34541
669.11        60.57673
669.54        60.84196
669.96        61.10942
670.39        61.48709
670.82        61.90659
671.24        61.98614
671.67        61.81597
672.09        61.94798
672.52        62.36168
672.94        62.54135
673.37        62.48566
673.80        62.48851
674.22        62.59764
674.65        62.70972
675.07        62.84433
675.50        63.01924
675.92        63.19848
676.35        63.30921
676.77        63.34277
677.20        63.31467
677.62        63.28194
678.05        63.33971
678.47        63.50346
678.90        63.74538
679.32        64.00603
679.75        64.19495
680.17        64.28329
680.60        64.32989
681.02        64.37202
681.45        64.39875
681.87        64.46895
682.30        64.69697
682.72        65.03999
683.15        65.25651
683.57        65.32856
684.00        65.35275
684.42        65.37748
684.85        65.45296
685.27        65.58746
685.70        65.76575
686.12        65.94595
686.54        66.08646
686.97        66.17097
687.39        66.22165
687.82        66.24809
688.24        66.28465
688.66        66.33929
689.09        66.39973
689.51         66.4827
689.94        66.58524
690.36        66.71259
690.78        66.85037
691.21        66.99731
691.63        67.14218
692.06        67.28342
692.48        67.43341
692.90        67.56187
693.33        67.62647
693.75        67.62188
694.17        67.53157
694.60        67.44601
695.02        67.52161
695.44        67.75951
695.87        68.12204
696.29         68.4792
696.71        68.46165
697.14        68.15371
697.56        68.00292
697.98        68.06525
698.41        68.38129
698.83        68.35439
699.25         68.7198
699.68        69.15784
700.10        69.37327
700.52        69.28838
700.94          69.016
701.37        68.72471
701.79        68.67564
702.21        68.92525
702.64        69.37107
703.06        69.87628
703.48        70.20148
703.90        70.27531
704.33        70.17233
704.75        69.98145
705.17        69.83591
705.59        69.79145
706.01        69.80737
706.44        69.86521
706.86        69.97361
707.28        70.11526
707.70        70.24995
708.12        70.37434
708.55        70.61748
708.97        70.93076
709.39        70.95221
709.81        70.69447
710.23        70.94321
710.66         70.9333
711.08        71.13651
711.50        71.24774
711.92        71.27824
712.34        71.21716
712.76        71.09286
713.19        70.96103
713.61        70.93097
714.03        71.01826
714.45        71.19736
714.87        71.44397
715.29        71.72135
715.71        72.00359
716.13        72.28282
716.56        72.51254
716.98        72.71413
717.40        72.83936
717.82         72.8873
718.24        72.84509
718.66        72.69726
719.08        72.47289
719.50        72.21673
719.92        71.99737
720.34        71.91042
720.76        71.97773
721.19         72.1427
721.61        72.42456
722.03        72.79556
722.45        73.21019
722.87        73.65012
723.29        73.98947
723.71        74.03034
724.13        73.75052
724.55        73.22887
724.97        72.64098
725.39         72.2675
725.81        72.19992
726.23        72.36243
726.65        72.68185
727.07        73.07772
727.49        73.20013
727.91        73.74029
728.33        73.82998
728.75        74.09406
729.17        74.29025
729.59        74.42335
730.01        74.46956
730.43          74.442
730.85        74.36676
731.27        74.18185
731.69        73.96318
732.10        73.98761
732.52        74.20649
732.94        74.20135
733.36        73.99355
733.78         73.9241
734.20        74.03909
734.62        73.86999
735.04        74.39597
735.46        73.68488
735.88        74.35581
736.30        73.82799
736.72        74.71384
737.13        75.04617
737.55        75.25861
737.97        75.52547
738.39         75.7396
738.81        75.40066
739.23        74.69131
739.65        74.62762
740.06         75.1438
740.48        75.38262
740.90        75.29588
741.32        75.42874
741.74        75.77978
742.16        76.03916
742.57        76.17524
742.99         76.2526
743.41        76.27032
743.83        76.20798
744.25        76.08072
744.67        75.88387
745.08        75.70218
745.50        75.65436
745.92        75.76324
746.34        75.97475
746.75        76.20483
747.17        76.27706
747.59        76.16286
748.01        76.00621
748.42        75.83123
748.84        75.55421
749.26        75.28888
749.68        75.29311
750.09        75.33582
750.51        75.86043
750.93        76.52521
751.35        76.43942
751.76        75.72437
752.18         75.4229
752.60        75.57569
753.01        75.63258
753.43        75.56552
753.85        75.47462
754.27        75.32725
754.68        75.83107
755.10        75.65871
755.52        75.81474
755.93        75.89178
756.35         75.9287
756.77        75.97427
757.18        76.06772
757.60        76.26804
758.02         76.5932
758.43        76.80493
758.85        76.61864
759.26        76.93217
759.68         75.5528
760.10        75.11058
760.51        76.60685
760.93        76.54884
761.34        76.50729
761.76        77.16549
762.18         77.3414
762.59        77.60974
763.01        77.73244
763.42        77.80887
763.84        77.81837
764.26        77.75703
764.67        77.51691
765.09        77.19807
765.50        76.95978
765.92        76.90559
766.33        76.89442
766.75        76.77103
767.16        77.15726
767.58        76.90102
768.00        76.72906
768.41         76.4946
768.83        76.87328
769.24        77.64957
769.66        77.87154
770.07        77.54408
770.49        77.16541
770.90        76.98064
771.32        77.48151
771.73        78.45673
772.15        78.83255
772.56        78.53954
772.97        78.11932
773.39        77.78144
773.80        77.75528
774.22        78.01225
774.63        78.23231
775.05        78.28424
775.46        78.36806
775.88        78.42043
776.29        78.30307
776.70        78.09705
777.12          78.063
777.53        78.24692
777.95        78.51488
778.36        78.78239
778.77        78.86642
779.19        78.75269
779.60        78.54291
780.02         78.2778
780.43        78.12121
780.84        78.15271
781.26        77.94048
781.67        77.66158
782.09        78.46684
782.50        79.95539
782.91        79.95874
783.33        78.86044
783.74        78.41113
784.15        78.77394
784.57        78.93383
784.98        78.83846
785.39        78.59746
785.81        78.36472
786.22        78.77168
786.63        79.64839
787.04        80.05764
787.46        79.93413
787.87        79.74563
788.28        79.62864
788.70        79.57528
789.11        79.60759
789.52        79.75992
789.93        79.94924
790.35        80.04084
790.76        80.00429
791.17        79.84126
791.58        79.68633
792.00        79.68314
792.41        79.77606
792.82          80.318
793.23        80.28226
793.65        80.02499
794.06        79.49453
794.47        79.68637
794.88        80.43423
795.29        80.65744
795.71         80.2816
796.12        80.01912
796.53        79.99352
796.94        79.95017
797.35        79.99278
797.76        80.52864
798.18        81.33931
798.59        81.75729
799.00        81.65649
799.41        81.34603
799.82         80.9752
800.23        80.69205
800.64        80.57214
801.06        80.53638
801.47        80.58718
801.88        80.62383
802.29        80.60979
802.70        80.57904
803.11        80.53494
803.52        80.47198
803.93        80.41702
804.34        80.37827
804.75        80.37051
805.17        80.50372
805.58        80.83739
805.99        81.01612
806.40        81.07935
806.81        81.79511
807.22        82.81326
807.63        82.52935
808.04        81.16116
808.45        80.47335
808.86        80.62733
809.27        80.68472
809.68        80.55538
810.09        80.54697
810.50        80.63482
810.91        80.72172
811.32        80.88387
811.73        81.20531
812.14        81.66756
812.55        82.34591
812.96        83.00007
813.37        82.89957
813.78        82.10061
814.19         81.4323
814.60        81.04449
815.01        80.58971
815.42         80.1217
815.83        79.92244
816.24         80.0071
816.65        80.19732
817.05        80.46048
817.46        80.82354
817.87        81.20107
818.28         81.4034
818.69        81.39815
819.10        81.18803
819.51        80.94713
819.92        81.01468
820.33        81.45521
820.74        82.15029
821.14        82.84454
821.55         83.1207
821.96        82.89004
822.37        82.29574
822.78        81.55687
823.19        81.04456
823.60        80.89131
824.00        81.02115
824.41        81.29247
824.82        81.58669
825.23         81.8203
825.64        82.03319
826.04        82.20036
826.45        82.22416
826.86        82.11517
827.27        81.89838
827.68        81.61574
828.08        81.38961
828.49        81.20758
828.90        81.06018
829.31        81.01996
829.72        81.19521
830.12        81.61137
830.53        82.17921
830.94        82.69011
831.35        82.72916
831.75        82.23378
832.16         81.3087
832.57        80.30675
832.97        79.76875
833.38        79.83075
833.79        80.30977
834.20        80.98729
834.60        81.50819
835.01         81.7616
835.42        81.90614
835.82        81.97349
836.23        81.92175
836.64        81.81046
837.04        81.58099
837.45        81.43919
837.86        81.81127
838.26        82.77348
838.67        84.16319
839.08        85.49503
839.48        85.84393
839.89        84.99515
840.29         83.2917
840.70        81.49735
841.11         80.4985
841.51        80.52003
841.92        81.28349
842.33        82.45219
842.73        83.41147
843.14        83.79786
843.54        83.84348
843.95        83.71786
844.35        83.76157
844.76        84.03674
845.17        84.39801
845.57        84.68513
845.98        84.63291
846.38        84.21871
846.79        83.55664
847.19        82.84495
847.60         82.3498
848.00        82.17087
848.41        82.20815
848.81        82.39807
849.22        82.53111
849.62        82.58721
850.03        82.60867
850.43        82.63862
850.84        82.66298
851.24        82.73983
851.65        82.76868
852.05        82.87719
852.46        83.15583
852.86        83.59917
853.27        84.16111
853.67        84.59349
854.07        84.69884
854.48         84.4203
854.88        83.85609
855.29        83.13142
855.69        82.64565
856.10         82.4514
856.50        82.55433
856.90        82.77912
857.31        82.84769
857.71        82.73782
858.12        82.44352
858.52        82.15363
858.92        82.04597
859.33        82.14383
859.73        82.43494
860.13        82.69056
860.54        82.56673
860.94        82.05334
861.34        81.25497
861.75        80.45457
862.15        80.16235
862.55        80.47006
862.96        81.17195
863.36        82.05276
863.76        82.63519
864.17        82.73947
864.57        82.53468
864.97        82.06047
865.38        81.39141
865.78        80.63587
866.18        79.77512
866.58        78.99947
866.99        78.65593
867.39        78.85983
867.79        79.51527
868.19        80.39333
868.60        81.09745
869.00        81.53611
869.40        81.75064
869.80        81.81757
870.21        81.89622
870.61        82.10519
871.01        82.33371
871.41        82.42505
871.81        82.17322
872.22        81.55493
872.62        80.63538
873.02         79.7425
873.42        79.41347
873.82        79.76967
874.22        80.66332
874.63        81.61333
875.03        81.86513
875.43        81.24832
875.83        80.00544
876.23        78.66438
876.63         78.0362
877.03        78.31673
877.44        79.24673
877.84        80.40175
878.24         81.0321
878.64        80.88629
879.04        80.11053
879.44        79.17712
879.84         78.8503
880.24         79.2606
880.64        80.14196
881.04        80.99282
881.44        81.02095
881.84        80.06643
882.24        78.43252
882.65        76.73434
883.05        75.89725
883.45        76.15771
883.85        77.25275
884.25        78.67542
884.65        79.56409
885.05        79.65134
885.45        79.17937
885.85        78.55144
886.25        78.38381
886.65         78.8182
887.05        79.63715
887.45        80.47923
887.85        80.77377
888.25        80.37845
888.65        79.50006
889.04        78.50897
889.44        77.99213
889.84        78.07085
890.24        78.56085
890.64        79.14889
891.04        79.32537
891.44        78.97311
891.84         78.3038
892.24        77.57362
892.64        77.14279
893.04        77.12019
893.44        77.39339
893.83        77.88417
894.23         78.4122
894.63        78.91326
895.03        79.39903
895.43        79.87145
895.83        80.33622
896.23         80.7609
896.63        81.09282
897.02        81.22424
897.42        81.03458
897.82        80.54178
898.22        79.86736
898.62        79.16699
899.01        78.64771
899.41        78.40042
899.81        78.34495
900.21        78.50602
900.61         78.9112
901.00        79.50272
901.40        80.23488
901.80        80.88077
902.20        81.07507
902.59        80.76895
902.99        80.07446
903.39         79.2389
903.79        78.68237
904.18        78.52335
904.58        78.63563
904.98        78.96082
905.38        79.41216
905.77        79.91987
906.17        80.53268
906.57        81.03618
906.96        81.06653
907.36        80.56131
907.76        79.64801
908.15        78.72652
908.55        78.42365
908.95        78.88564
909.34        79.92619
909.74        81.13982
910.14        81.94083
910.53        82.10255
910.93        81.82102
911.33        81.22143
911.72        80.48426
912.12        79.79842
912.52        79.13195
912.91        78.57706
913.31        78.31467
913.70         78.3671
914.10        78.65788
914.49        79.19905
914.89        79.87024
915.29        80.61246
915.68        81.44246
916.08        82.05961
916.47         82.0793
916.87        81.47081
917.26        80.32124
917.66         79.1581
918.05        78.61197
918.45        78.81809
918.84        79.66769
919.24        80.66743
919.64        81.08414
920.03        80.73574
920.42        79.81451
920.82         78.8619
921.21        78.65496
921.61        79.34197
922.00        80.71989
922.40        82.23071
922.79        83.06158
923.19        82.92455
923.58        82.11457
923.98        81.09528
924.37        80.46208
924.77         80.3897
925.16        80.63104
925.55        80.99464
925.95        81.13996
926.34        80.97766
926.74         80.6446
927.13        80.16978
927.52        79.49869
927.92        78.74418
928.31        77.92521
928.70        77.28333
929.10        77.16317
929.49        77.59917
929.89        78.41409
930.28        79.49325
930.67        80.48575
931.07        81.19148
931.46        81.75531
931.85        81.96618
932.24        81.57313
932.64        80.66007
933.03        79.30608
933.42        78.05713
933.82        77.69798
934.21        78.37773
934.60         79.9398
934.99        81.83875
935.39        83.04893
935.78        83.29056
936.17        82.71149
936.56        81.79055
936.96        81.30642
937.35        81.45552
937.74        81.99244
938.13        82.46819
938.53        82.21946
938.92        81.14741
939.31        79.58096
939.70        78.02659
940.09        77.16709
940.49        77.12345
940.88        77.71463
941.27        78.65189
941.66        79.39722
942.05        79.74823
942.44        79.87799
942.84         79.8951
943.23        79.96541
943.62        80.15424
944.01        80.32587
944.40         80.5397
944.79        80.94172
945.18        81.50918
945.57        82.20139
945.97        82.70134
946.36        82.58041
946.75        81.73729
947.14        80.41298
947.53        79.00182
947.92        78.05373
948.31        77.71631
948.70        77.84032
949.09        78.31371
949.48        78.92551
949.87        79.55048
950.26        80.22308
950.65        80.84261
951.04        81.24589
951.43        81.38861
951.82        81.27592
952.21        80.99718
952.60        80.73361
952.99        80.57792
953.38        80.54031
953.77        80.62327
954.16         80.8188
954.55        81.10278
954.94        81.42812
955.33        81.83987
955.72        82.39999
956.11        83.06512
956.50        83.80498
956.89        84.26965
957.28         83.9073
957.66        82.66101
958.05         80.8091
958.44        78.97032
958.83        78.01553
959.22        78.10674
959.61        79.01556
960.00        80.25484
960.39        80.90064
960.78        80.64896
961.16         79.7675
961.55         78.7308
961.94         78.1248
962.33        78.12563
962.72        78.59246
963.11        79.27635
963.49        79.76391
963.88        79.79923
964.27        79.49448
964.66        79.25461
965.04        79.71306
965.43        80.91618
965.82         82.7547
966.21        84.46643
966.60        84.61412
966.98         82.8696
967.37        79.88016
967.76         76.8943
968.15        75.47186
968.53        75.89164
968.92         77.7711
969.31        80.25883
969.69         81.6255
970.08         81.1786
970.47        79.47428
970.86        77.57949
971.24        77.00285
971.63        78.05438
972.02        80.28056
972.40        82.79486
972.79        83.56159
973.17        82.08898
973.56        79.18394
973.95        76.04288
974.33        74.15134
974.72        73.82906
975.11        74.60931
975.49        76.02906
975.88        77.09245
976.26        77.46764
976.65        77.42171
977.04        77.19736
977.42        77.11511
977.81        77.25407
978.19        77.41868
978.58        77.69126
978.96        78.24502
979.35        79.02852
979.74        80.03355
980.12        81.05138
980.51        81.41432
980.89         81.1198
981.28        80.36497
981.66        79.49393
982.05        78.99427
982.43        78.99702
982.82        79.30298
983.20        80.01365
983.59        81.12827
983.97        82.64404
984.35        84.51603
984.74        86.08944
985.12        86.52853
985.51        85.61169
985.89        83.62611
986.28        81.49413
986.66        80.54513
987.04        81.15137
987.43        82.92203
987.81         85.1872
988.20         86.4139
988.58        86.12018
988.96        84.67785
989.35        82.78516
989.73        81.39934
990.12        80.76389
990.50        80.63375
990.88        80.58609
991.27        79.96084
991.65         78.6555
992.03        76.97588
992.42        75.53632
992.80        75.05798
993.18        75.70064
993.56        77.27911
993.95        79.08852
994.33        80.03237
994.71        79.63518
995.10        78.34218
995.48        76.93563
995.86        76.70246
996.24        77.91933
996.63        80.02321
997.01        82.61204
997.39        84.37381
997.77        84.71987
998.15        84.20581
998.54        82.91847
998.92        80.82817
999.30        78.28474
999.68        75.33286
1000.06        73.03612
1000.45        72.90642
1000.83        75.26974
1001.21        79.93175
1001.59        85.51923
1001.97         88.6395
1002.35        88.00323
1002.73        84.62223
1003.12        80.53632
1003.50        78.37804
1003.88        78.86652
1004.26        81.12666
1004.64        84.46548
1005.02         87.3321
1005.40        88.87634
1005.78        89.73658
1006.16         89.6313
1006.54        88.06683
1006.92        85.34126
1007.30        81.68253
1007.69        78.48072
1008.07        77.63201
1008.45        79.64685
1008.83        84.13276
1009.21        89.90704
1009.59        93.80449
1009.97        94.18449
1010.35        91.89172
1010.73        87.87646
1011.11        83.61935
1011.49        79.89614
1011.86        76.45684
1012.24        73.88512
1012.62        72.85117
1013.00        73.36454
1013.38        75.40379
1013.76        78.38485
1014.14        80.59094
1014.52        81.10713
1014.90        80.17061
1015.28        78.49042
1015.66        77.21992
1016.04        76.69187
1016.41        76.65092
1016.79        76.74793
1017.17        76.51649
1017.55        75.85342
1017.93        74.95856
1018.31        74.38008
1018.69        74.83361
1019.06        76.50022
1019.44        79.32257
1019.82        82.37637
1020.20        83.48923
1020.58         81.9129
1020.95        78.28002
1021.33        74.66779
1021.71        73.33829
1022.09        74.65917
1022.46        78.46238
1022.84        83.17502
1023.22        84.97873
1023.60         82.4462
1023.97        76.74975
1024.35        71.38914
1024.73        70.38669
