SpectraSmart Spectrum 2.9.0.0
--------- Device Information -----------
Spectrum Name :  反射率_0
Saving Time :  2024/04/26 23:03:31
Spectro-Module Model Name : SE2030-DUVN
Spectro-Module Serial Number : OS361AC55029948
Wavelength Start : 200
Wavelength End : 1025
Wavelength Unit : Wavelength(nm)
Spectrum Unit : Reflectance(%)
-----------Spectrum Setting ------------
Integration Time : 20ms
Average : 10
Boxcar : 0
Background removal :  enabled
linearity correction :  enabled
SC :  disabled
Intensity correction :  disabled
DWT denoise :  enabled
savitzky-golay :  disabled
FFT :  disabled
Running average :  disabled
Kalman :  disabled
High pass :  disabled
---------------BEGIN--------------------
Wavelength(nm)             Reflectance(%)
200.29               0
200.75        35.07555
201.21        36.97934
201.67        38.37624
202.13        38.50159
202.58        37.25671
203.04        35.25666
203.50        32.83002
203.96        31.10431
204.42        31.14846
204.88        32.72412
205.34         35.9019
205.80        40.34374
206.26        44.89095
206.72        48.67002
207.18        50.86885
207.64        51.03618
208.10        49.32853
208.55        45.98036
209.01        40.12553
209.47        34.25155
209.93        31.90129
210.39        32.41561
210.85        34.38785
211.31        37.39997
211.77        42.42248
212.23        53.06852
212.69         79.1632
213.14        123.7009
213.60        122.3821
214.06        91.41386
214.52        69.90206
214.98        59.55469
215.44        54.16482
215.90        49.87931
216.36        46.95561
216.81        46.38042
217.27        48.84919
217.73        56.11856
218.19        66.31981
218.65        68.24658
219.11        59.32523
219.57        47.28414
220.02        40.11605
220.48        42.07961
220.94        52.69321
221.40        73.15754
221.86        102.3245
222.32        119.6376
222.77        108.8627
223.23        84.65845
223.69        61.81802
224.15        48.20397
224.61        42.11499
225.06        39.41558
225.52        39.16412
225.98        40.61511
226.44        43.14544
226.90        46.98494
227.36        50.53928
227.81        50.89479
228.27        47.96709
228.73        42.93819
229.19          38.205
229.65        36.53036
230.10        38.01684
230.56          41.662
231.02        45.77236
231.48        47.61364
231.93        46.61199
232.39        44.12773
232.85        41.47894
233.31         40.3634
233.77        40.98695
234.22        42.68127
234.68        44.71388
235.14        46.11664
235.60        46.55429
236.05        46.41068
236.51        45.79861
236.97        44.95065
237.43         44.0976
237.88        43.20181
238.34        42.54938
238.80        42.86152
239.26        44.43377
239.71        47.70866
240.17        52.35835
240.63        57.11257
241.08        61.00264
241.54        63.46974
242.00        65.39632
242.46        69.41478
242.91        77.76748
243.37        91.18512
243.83        110.5876
244.28        129.0543
244.74        133.9711
245.20        124.1106
245.66        108.0812
246.11        94.05199
246.57        83.39153
247.03        73.78699
247.48        65.47604
247.94        60.32228
248.40        58.83824
248.85        59.69289
249.31        61.13014
249.77        61.26144
250.22        59.65308
250.68         56.0439
251.14        51.13328
251.59        48.28074
252.05        49.65946
252.51        54.18865
252.96        57.66666
253.42        56.49834
253.88        51.52102
254.33        44.67413
254.79        40.01302
255.25        40.82357
255.70         46.5789
256.16        55.62702
256.62        63.84353
257.07          65.057
257.53        60.58776
257.99        54.25559
258.44        49.16986
258.90        47.97158
259.35        49.52421
259.81        52.57763
260.27        55.44721
260.72        56.10121
261.18        54.72882
261.63        52.19555
262.09         49.7765
262.55        48.31102
263.00        47.73635
263.46        47.72546
263.91         47.7055
264.37        47.24798
264.83        46.28055
265.28        45.02134
265.74        43.88548
266.19        43.09061
266.65        42.72083
267.11        42.56427
267.56        42.46185
268.02        42.17881
268.47        41.65419
268.93        41.01833
269.38        40.28428
269.84        39.51771
270.30        38.74422
270.75        37.92236
271.21        37.20064
271.66        36.75908
272.12        36.59885
272.57        36.62288
273.03        36.58847
273.48         36.0946
273.94        35.13385
274.39        33.85375
274.85         32.5521
275.31        31.50759
275.76        30.77343
276.22        30.27683
276.67        29.93997
277.13        29.73222
277.58        29.56039
278.04        29.45131
278.49         29.2643
278.95        28.89545
279.40        28.29592
279.86        27.57919
280.31        26.80513
280.77         26.1617
281.22        25.65737
281.68        25.28901
282.13         25.0114
282.59        24.83317
283.04        24.70765
283.50        24.64785
283.95        24.59854
284.41        24.48109
284.86        24.27779
285.32          24.029
285.77        23.76687
286.22        23.59475
286.68        23.52927
287.13        23.50967
287.59        23.51208
288.04        23.45946
288.50        23.35262
288.95        23.19322
289.41        23.01164
289.86        22.79263
290.32        22.57622
290.77        22.36234
291.22        22.18983
291.68        22.10219
292.13        22.10663
292.59        22.21316
293.04        22.41997
293.50        22.73794
293.95        23.14878
294.40        23.63968
294.86        24.18098
295.31        24.72336
295.77        25.24914
296.22        25.74681
296.68        26.21894
297.13        26.66393
297.58        27.09127
298.04        27.50782
298.49        27.91407
298.95        28.32599
299.40        28.74469
299.85        29.17433
300.31         29.6262
300.76        30.10638
301.21        30.60854
301.67        31.12883
302.12        31.62183
302.58         32.0746
303.03        32.45254
303.48        32.77774
303.94        33.05576
304.39        33.26648
304.84        33.42642
305.30        33.55087
305.75        33.64979
306.20        33.79092
306.66        33.99003
307.11        34.21515
307.57        34.42869
308.02        34.52557
308.47        34.50001
308.93        34.39019
309.38        34.24619
309.83        34.19112
310.29        34.24697
310.74        34.37029
311.19        34.48625
311.65        34.46852
312.10        34.28729
312.55        33.99094
313.00        33.66495
313.46        33.43266
313.91         33.3113
314.36         33.2696
314.82        33.24625
315.27        33.15408
315.72        32.96469
316.18        32.71478
316.63         32.4378
317.08        32.19909
317.53        32.01094
317.99        31.84208
318.44         31.6661
318.89        31.43272
319.35        31.13328
319.80        30.79414
320.25        30.43989
320.70         30.1049
321.16        29.80391
321.61        29.54097
322.06        29.31699
322.51        29.13622
322.97        28.98847
323.42        28.86616
323.87        28.76361
324.32        28.67833
324.78        28.58723
325.23         28.4981
325.68        28.34518
326.13        28.03642
326.59        27.56807
327.04        26.99188
327.49        26.41192
327.94        25.98798
328.39        25.75322
328.85        25.65392
329.30        25.63947
329.75        25.56205
330.20        25.37595
330.66        25.12283
331.11        24.84629
331.56        24.59628
332.01        24.39014
332.46        24.19355
332.92        24.00577
333.37        23.87406
333.82        23.78905
334.27        23.75765
334.72        23.72305
335.17        23.58342
335.63        23.32111
336.08        22.97585
336.53        22.64249
336.98         22.4902
337.43         22.5528
337.88         22.7683
338.34        23.02325
338.79        23.14691
339.24        23.07137
339.69        22.85291
340.14        22.53712
340.59        22.20361
341.05         21.9048
341.50          21.622
341.95          21.394
342.40        21.27929
342.85         21.2812
343.30        21.38365
343.75        21.53155
344.20        21.62723
344.66        21.64219
345.11        21.59516
345.56        21.50388
346.01        21.40579
346.46        21.31924
346.91        21.23216
347.36        21.15879
347.81        21.12498
348.26        21.13092
348.72        21.17171
349.17        21.21661
349.62        21.22385
350.07        21.18257
350.52         21.1067
350.97        21.00428
351.42        20.89323
351.87        20.78276
352.32        20.66486
352.77        20.55824
353.22        20.48776
353.67          20.455
354.13        20.46223
354.58        20.46517
355.03        20.39452
355.48        20.24108
355.93        20.02538
356.38        19.82273
356.83        19.74714
357.28        19.81301
357.73        19.97962
358.18        20.15288
358.63        20.17894
359.08         20.0231
359.53        19.73952
359.98        19.41475
360.43        19.17777
360.88        19.06028
361.33         19.0193
361.78         19.0104
362.23        18.96383
362.68        18.85969
363.13        18.72893
363.58        18.58579
364.03        18.44683
364.48        18.31981
364.93        18.19311
365.38        18.08077
365.83        18.00937
366.28        17.98234
366.73        17.99616
367.18        18.01584
367.63        17.98548
368.08        17.89208
368.53        17.74436
368.98        17.58773
369.43        17.49635
369.88        17.48426
370.33        17.53213
370.78        17.57437
371.23        17.50282
371.68        17.29704
372.13        16.99452
372.58        16.68522
373.03        16.50984
373.48        16.50055
373.93         16.6131
374.38        16.76143
374.83         16.8081
375.28        16.71475
375.72        16.51695
376.17        16.29161
376.62        16.13249
377.07        16.06464
377.52        16.05952
377.97        16.06487
378.42        16.00199
378.87         15.8557
379.32        15.65441
379.77        15.46393
380.22        15.37556
380.67        15.40286
381.11        15.52195
381.56         15.6441
382.01        15.63461
382.46        15.46779
382.91        15.19822
383.36        14.92554
383.81        14.78712
384.26        14.80601
384.71        14.93412
385.15        15.09891
385.60        15.18412
386.05        15.15171
386.50        15.04004
386.95        14.89028
387.40        14.76643
387.85         14.6877
388.29        14.62029
388.74        14.56719
389.19        14.50135
389.64        14.41501
390.09        14.31801
390.54         14.2117
390.98        14.09279
391.43        13.97748
391.88        13.86939
392.33        13.77654
392.78         13.7095
393.23        13.66854
393.67        13.64094
394.12        13.63784
394.57        13.64851
395.02        13.66638
395.47        13.68533
395.91         13.6953
396.36        13.67177
396.81        13.61979
397.26        13.55046
397.71         13.4719
398.15        13.40447
398.60         13.3706
399.05        13.30951
399.50         13.2417
399.95        13.29364
400.39        13.42187
400.84        13.38407
401.29        13.19302
401.74        13.07889
402.18        13.05673
402.63        12.98951
403.08        12.89215
403.53        12.84739
403.97        12.85844
404.42        12.90276
404.87        12.94648
405.32        12.93241
405.76        12.84821
406.21        12.72159
406.66         12.5892
407.11        12.50965
407.55        12.50026
408.00        12.53467
408.45        12.58974
408.90        12.61805
409.34        12.60095
409.79        12.55525
410.24        12.49093
410.68        12.41573
411.13        12.33867
411.58        12.25524
412.03        12.17126
412.47        12.10319
412.92        12.05519
413.37         12.0308
413.81        12.02505
414.26        12.03829
414.71        12.06214
415.15        12.09473
415.60        12.12621
416.05        12.14913
416.49        12.15886
416.94        12.15436
417.39        12.12944
417.83        12.07547
418.28        11.99399
418.73        11.88935
419.17        11.78672
419.62        11.72606
420.07        11.71597
420.51        11.74218
420.96        11.77903
421.41        11.78273
421.85        11.73923
422.30        11.66068
422.74         11.5619
423.19        11.51812
423.64        11.51758
424.08        11.47882
424.53        11.40215
424.98        11.38096
425.42        11.42501
425.87         11.4573
426.31        11.46319
426.76        11.50328
427.21        11.53723
427.65        11.40998
428.10        11.18742
428.54        11.08872
428.99        11.13754
429.44        11.26639
429.88        11.40096
430.33        11.38259
430.77        11.23293
431.22        11.18453
431.66         11.2508
432.11        11.25707
432.56        11.21134
433.00        11.25574
433.45        11.33078
433.89        11.24978
434.34        11.08814
434.78        10.80442
435.23        11.01719
435.67        11.02295
436.12        10.97866
436.57        10.91047
437.01        10.84173
437.46        10.81827
437.90        10.83883
438.35         10.8564
438.79        10.85518
439.24        10.84762
439.68        10.83072
440.13        10.80187
440.57        10.76105
441.02        10.72236
441.46        10.69066
441.91        10.63513
442.35        10.56993
442.80        10.61719
443.24        10.73089
443.69        10.72581
444.13        10.61036
444.58        10.56817
445.02         10.6022
445.47        10.60892
445.91        10.58624
446.36        10.58399
446.80        10.59937
447.24        10.61787
447.69        10.63193
448.13        10.62426
448.58        10.59478
449.02        10.55055
449.47        10.50124
449.91        10.45612
450.36        10.42371
450.80         10.4018
451.25        10.39532
451.69        10.40634
452.13        10.43293
452.58        10.46839
453.02        10.50598
453.47        10.53683
453.91        10.55563
454.36        10.56577
454.80        10.55507
455.24        10.50369
455.69        10.41874
456.13        10.30525
456.58        10.20579
457.02        10.16563
457.46        10.19703
457.91        10.28138
458.35        10.37916
458.79        10.42733
459.24        10.41846
459.68        10.36406
460.13        10.30087
460.57        10.25582
461.01        10.24738
461.46        10.25585
461.90        10.27864
462.34        10.30241
462.79        10.31779
463.23         10.3332
463.68        10.33907
464.12        10.32524
464.56        10.28892
465.01        10.24629
465.45        10.19235
465.89        10.14927
466.34        10.12115
466.78        10.10209
467.22        10.09564
467.67        10.09797
468.11        10.11363
468.55        10.13869
468.99         10.1712
469.44        10.20624
469.88        10.24079
470.32        10.27294
470.77        10.30028
471.21        10.32296
471.65        10.33942
472.10        10.35195
472.54        10.35799
472.98         10.3588
473.42        10.35672
473.87        10.35717
474.31        10.35906
474.75        10.37058
475.20        10.39539
475.64        10.42625
476.08        10.46415
476.52        10.50451
476.97        10.54517
477.41        10.59151
477.85        10.64069
478.29        10.67273
478.74        10.69415
479.18        10.73334
479.62        10.78639
480.06        10.82977
480.50        10.86433
480.95        10.89134
481.39        10.90196
481.83        10.98794
482.27        10.98985
482.72        11.04367
483.16        11.11084
483.60        11.18146
484.04        11.24645
484.48        11.37751
484.93        11.59821
485.37        11.61659
485.81        11.75939
486.25        12.03322
486.69        11.69711
487.14        11.73697
487.58        12.51577
488.02        12.31503
488.46         12.1324
488.90        12.21631
489.34        12.16023
489.79        12.33401
490.23        12.45095
490.67        12.61417
491.11        12.75787
491.55        12.75041
491.99        12.64886
492.43        12.66706
492.88        12.82848
493.32        13.00494
493.76         13.1684
494.20        13.34105
494.64        13.51537
495.08        13.65736
495.52        13.76324
495.96        13.91932
496.41        14.09818
496.85        14.08886
497.29        13.94695
497.73        14.08612
498.17        14.30869
498.61        14.50978
499.05        14.59651
499.49        14.68923
499.93        14.75422
500.37        14.87828
500.82        15.03156
501.26        15.12478
501.70        15.15241
502.14        15.16973
502.58        15.21587
503.02        15.32312
503.46        15.49726
503.90        15.72816
504.34        15.95274
504.78        16.06456
505.22        16.04189
505.66        15.91963
506.10        15.77027
506.54        15.70998
506.98        15.77013
507.42        15.91682
507.86        16.10335
508.30        16.25157
508.74          16.335
509.18        16.37727
509.62        16.39935
510.06        16.43359
510.50        16.49069
510.94        16.55673
511.38        16.62081
511.82        16.66951
512.26        16.69985
512.70        16.71923
513.14        16.73914
513.58        16.77556
514.02        16.83076
514.46         16.8968
514.90        16.96017
515.34        16.99999
515.78        17.01073
516.22        16.99962
516.66        16.97396
517.10        16.94589
517.54        16.92069
517.98        16.89476
518.42        16.87152
518.86        16.85628
519.30        16.84878
519.74        16.84866
520.18        16.84649
520.62        16.82595
521.06        16.78462
521.50          16.728
521.93        16.66954
522.37        16.62547
522.81        16.60384
523.25        16.59888
523.69        16.60217
524.13        16.60047
524.57        16.58838
525.01        16.56743
525.45        16.54037
525.89        16.51207
526.32        16.48151
526.76        16.45007
527.20        16.41069
527.64          16.355
528.08        16.28342
528.52        16.20083
528.96        16.11975
529.40        16.05841
529.83        16.02065
530.27        16.00264
530.71        15.99165
531.15        15.96814
531.59        15.92776
532.03        15.87596
532.46        15.82109
532.90        15.78788
533.34        15.77743
533.78        15.77231
534.22        15.76268
534.66        15.75379
535.09        15.73097
535.53        15.66346
535.97         15.5661
536.41        15.50205
536.85        15.48084
537.28        15.47387
537.72        15.48157
538.16        15.51525
538.60        15.57156
539.04        15.64525
539.47        15.72502
539.91        15.80337
540.35        15.87377
540.79        15.93929
541.22        15.99871
541.66         16.0574
542.10        16.11584
542.54        16.17317
542.97        16.23591
543.41        16.32086
543.85        16.42832
544.29        16.55639
544.72        16.68822
545.16        16.80955
545.60          16.914
546.04        17.00812
546.47         17.1097
546.91        17.24365
547.35        17.41132
547.79        17.60302
548.22        17.79361
548.66         17.9424
549.10        18.06354
549.53         18.1604
549.97        18.25495
550.41        18.34062
550.84        18.44338
551.28        18.60332
551.72        18.78708
552.15        18.95627
552.59        19.12504
553.03         19.0278
553.46        19.25105
553.90        19.31787
554.34        19.40235
554.77          19.496
555.21        19.61044
555.65        19.74746
556.08        19.89472
556.52        20.03986
556.96        20.15901
557.39        20.27105
557.83        20.35667
558.27        20.30825
558.70        20.17523
559.14        20.15829
559.57        20.26282
560.01        20.37523
560.45        20.46906
560.88        20.56725
561.32        20.67048
561.75        20.74966
562.19        20.82029
562.63        20.90217
563.06        20.99429
563.50        21.09199
563.93        21.16614
564.37        21.22736
564.80        21.28305
565.24        21.28484
565.68        21.21134
566.11        21.48809
566.55        21.35118
566.98        21.43563
567.42        21.53842
567.85        21.67673
568.29        21.85342
568.72        22.07457
569.16        22.34302
569.60        22.53419
570.03        22.72305
570.47        22.90149
570.90        23.09559
571.34        23.12288
571.77        23.34909
572.21        23.47634
572.64        23.59333
573.08        23.73904
573.51        23.92904
573.95         24.0113
574.38        24.03273
574.82         24.2412
575.25        24.15301
575.69        24.17898
576.12        24.19412
576.56        24.19447
576.99        24.24096
577.42        24.33323
577.86        24.54298
578.29        24.70255
578.73        24.63141
579.16        24.47549
579.60        24.18629
580.03        24.14598
580.47        24.06365
580.90        24.31328
581.33        24.31108
581.77        24.37244
582.20        24.11525
582.64        23.99062
583.07        23.91796
583.51        23.69401
583.94        23.41286
584.37        23.30424
584.81         23.3705
585.24        23.29051
585.68        23.13225
586.11        22.85799
586.54        23.00773
586.98        22.94598
587.41         22.8443
587.85        22.77131
588.28          22.508
588.71        22.68279
589.15        22.46503
589.58        22.36187
590.01         22.5012
590.45        22.29264
590.88        22.51729
591.31        22.41856
591.75        22.31505
592.18        22.18033
592.61        21.99719
593.05        22.76902
593.48        22.86895
593.91        22.63883
594.35        22.69703
594.78        22.60274
595.21        22.68556
595.65        22.85271
596.08        23.16497
596.51        23.23624
596.94        23.33193
597.38        23.46937
597.81        23.72639
598.24        24.01167
598.68        24.13493
599.11        24.40593
599.54        25.06715
599.97        24.95107
600.41         25.3444
600.84        25.37065
601.27        25.76302
601.70        26.05818
602.14        26.33286
602.57        26.67334
603.00        27.12282
603.43        27.17883
603.87        27.88585
604.30        28.28427
604.73        28.70489
605.16        28.80548
605.60        29.17933
606.03        29.35948
606.46        29.49486
606.89        30.05376
607.32        30.73433
607.76        30.84029
608.19        31.39504
608.62        31.61485
609.05        31.92857
609.48        32.24594
609.92        32.95179
610.35        33.26064
610.78        33.07132
611.21        33.28027
611.64        33.71952
612.07          34.184
612.50        34.41611
612.94        34.72033
613.37         34.8957
613.80        35.18067
614.23        35.08764
614.66         35.2368
615.09        35.84011
615.52        36.20328
615.96        36.40373
616.39        36.66855
616.82        37.00763
617.25        37.23749
617.68        37.37613
618.11        37.62896
618.54        37.97345
618.97        38.18168
619.40        38.25865
619.84        38.49159
620.27        38.57888
620.70        38.80643
621.13         39.0307
621.56        38.89539
621.99        38.49443
622.42        38.55112
622.85        39.08898
623.28        38.97014
623.71        39.20076
624.14        39.28196
624.57        39.48882
625.00        39.39319
625.43        39.42564
625.86         39.3496
626.29        39.35748
626.72        38.87699
627.15        39.05619
627.58        38.95407
628.01        38.86269
628.44        38.69632
628.87        38.45075
629.30        38.14027
629.73         37.8069
630.16        37.53156
630.59        37.32178
631.02        37.16519
631.45        37.03403
631.88        36.81469
632.31        36.46978
632.74        36.30125
633.17        35.81758
633.60        35.40196
634.03          34.917
634.46        34.40321
634.89        33.90356
635.32        33.37507
635.75         33.0267
636.18         32.6732
636.61         32.3607
637.04        31.97021
637.47        31.66393
637.89        31.29656
638.32        30.90809
638.75        30.51483
639.18        30.12908
639.61        29.74926
640.04        29.39113
640.47        29.08017
640.90        28.82007
641.33        28.60971
641.76        28.43464
642.18         28.2715
642.61        28.10571
643.04        27.95082
643.47         27.8272
643.90         27.7522
644.33        27.72601
644.76        27.80051
645.18         27.8375
645.61        27.87221
646.04        27.86508
646.47        27.83845
646.90        27.82954
647.33        27.89188
647.75        28.03355
648.18        28.27325
648.61          28.594
649.04         28.8563
649.47        29.01973
649.89        29.55467
650.32         29.7001
650.75        30.06752
651.18        30.43613
651.61        30.91524
652.03          31.458
652.46        31.86407
652.89        32.18073
653.32        32.54613
653.74         33.0104
654.17        33.59204
654.60        34.00627
655.03        34.33165
655.46        34.44778
655.88        34.76223
656.31        36.79685
656.74        38.47318
657.16        39.31947
657.59        40.11414
658.02        38.22916
658.45        38.15061
658.87        38.01051
659.30         38.2671
659.73        38.92064
660.15         39.3828
660.58        39.29373
661.01        39.54156
661.44        40.01349
661.86        40.27057
662.29         40.2919
662.72        40.72233
663.14        40.81724
663.57        41.12629
664.00        41.42151
664.42        41.73194
664.85        42.06096
665.27        42.41681
665.70         42.7489
666.13        43.00121
666.55          43.169
666.98        43.22952
667.41        43.20794
667.83        43.42825
668.26        43.45611
668.69        43.63906
669.11        43.85588
669.54        44.10931
669.96        44.39101
670.39        44.75508
670.82        45.14202
671.24        45.30408
671.67        45.28989
672.09        45.39681
672.52        45.64662
672.94        45.86814
673.37        46.02893
673.80        46.09118
674.22        46.10291
674.65        46.20837
675.07        46.43009
675.50        46.65551
675.92        46.84399
676.35        46.97519
676.77         47.0397
677.20        47.04324
677.62        47.03085
678.05        47.07591
678.47        47.19709
678.90        47.37851
679.32        47.58766
679.75        47.78002
680.17        47.93371
680.60        48.06066
681.02         48.1781
681.45        48.29805
681.87        48.43153
682.30        48.59609
682.72        48.77158
683.15        48.81924
683.57        48.77868
684.00        48.83421
684.42        48.99744
684.85        49.13726
685.27        49.25847
685.70        49.43501
686.12        49.61279
686.54        49.77103
686.97        49.93422
687.39        49.69986
687.82        49.88426
688.24        49.96627
688.66        50.14556
689.09        50.19286
689.51        50.12885
689.94        50.15896
690.36        50.29562
690.78        50.34382
691.21        50.34993
691.63        50.59087
692.06        51.00471
692.48        51.23284
692.90        51.24414
693.33         51.2826
693.75        51.34988
694.17        51.26224
694.60        51.11406
695.02         51.1554
695.44        51.39878
695.87        51.77472
696.29        52.17274
696.71        52.26028
697.14        52.08546
697.56        52.07225
697.98        52.26326
698.41        52.39075
698.83        52.45644
699.25        52.67547
699.68        52.95776
700.10        53.09493
700.52        53.04167
700.94        52.87135
701.37        52.70271
701.79        52.73096
702.21        52.99001
702.64        53.40331
703.06        53.84893
703.48        54.11537
703.90        54.14617
704.33        54.00917
704.75         53.8004
705.17        53.66782
705.59        53.66658
706.01        53.75285
706.44         53.8969
706.86        54.07416
707.28         54.2558
707.70        54.42683
708.12        54.58971
708.55        54.79821
708.97        55.01754
709.39        55.08244
709.81        55.01727
710.23        55.02805
710.66        55.13314
711.08        55.23719
711.50         55.2971
711.92        55.31256
712.34        55.29037
712.76        55.22058
713.19        55.12817
713.61        55.16995
714.03        55.37447
714.45        55.37477
714.87        55.71529
715.29        55.94402
715.71        56.21909
716.13         56.3206
716.56        56.58693
716.98        56.74002
717.40        56.83691
717.82        56.95692
718.24        57.09083
718.66        56.78085
719.08        56.73655
719.50        56.44732
719.92        56.20436
720.34         56.1135
720.76        56.20541
721.19        56.41537
721.61        56.71367
722.03          57.023
722.45        57.29286
722.87        57.53075
723.29        57.68185
723.71        57.66216
724.13        57.47188
724.55        57.15116
724.97        56.81623
725.39        56.60933
725.81        56.57215
726.23        56.75092
726.65        57.11375
727.07        57.17289
727.49        57.56529
727.91        57.76954
728.33        57.98087
728.75        58.17261
729.17        58.34075
729.59        58.45633
730.01        58.51804
730.43        58.55809
730.85        58.58218
731.27        58.59131
731.69        58.57144
732.10        58.50027
732.52        58.38287
732.94        58.22399
733.36        58.07646
733.78        57.99466
734.20         58.0055
734.62        58.07015
735.04        58.51922
735.46        58.30739
735.88        58.58943
736.30        58.66824
736.72        58.88584
737.13        59.24406
737.55        59.59282
737.97        59.77048
738.39         59.7147
738.81        59.33103
739.23          58.812
739.65        58.81709
740.06        59.26546
740.48         59.4934
740.90        59.45933
741.32        59.47827
741.74        59.78632
742.16        59.91774
742.57        59.92641
742.99        59.86914
743.41        59.78673
743.83        59.72057
744.25        59.68897
744.67        59.66851
745.08        59.67108
745.50         59.7328
745.92        59.85905
746.34        59.96517
746.75        59.99227
747.17        60.18541
747.59         59.9608
748.01        59.84629
748.42        59.70558
748.84        59.55967
749.26        59.47173
749.68        59.51703
750.09        59.68508
750.51         59.9378
750.93        60.12434
751.35        59.99843
751.76        59.68953
752.18        59.13152
752.60        59.43709
753.01        59.45853
753.43        59.47184
753.85        59.50703
754.27        59.55577
754.68        59.67574
755.10        59.88372
755.52        59.82555
755.93         60.1294
756.35        60.25431
756.77        60.42339
757.18         60.5372
757.60         60.5896
758.02        60.84548
758.43        61.23369
758.85        60.58101
759.26         60.7278
759.68        60.16098
760.10        60.47776
760.51          60.739
760.93        61.12564
761.34         61.1003
761.76        60.83469
762.18         60.9596
762.59        61.47702
763.01        61.61914
763.42        61.40115
763.84        61.33551
764.26        61.46804
764.67        61.38399
765.09        61.17411
765.50        61.20826
765.92        61.42446
766.33         61.3127
766.75        60.85459
767.16        60.58905
767.58        60.56316
768.00        60.53817
768.41        60.57913
768.83        60.89445
769.24        61.32829
769.66        61.62983
770.07        61.69547
770.49        61.21374
770.90         60.4879
771.32        60.73201
771.73         61.7518
772.15        62.09499
772.56        61.70401
772.97        61.21407
773.39        60.75981
773.80        61.25104
774.22        61.08215
774.63        61.40851
775.05        61.61366
775.46        61.75438
775.88        61.75402
776.29        61.58199
776.70        61.34985
777.12        61.27799
777.53        61.41977
777.95        61.65911
778.36        61.92291
778.77        62.05218
779.19        62.02314
779.60        61.94128
780.02        61.81445
780.43         61.6813
780.84        61.62507
781.26        61.44341
781.67        61.27714
782.09        61.91943
782.50        63.03717
782.91        63.05873
783.33        62.11893
783.74        61.80484
784.15        62.18589
784.57        62.46886
784.98        62.56027
785.39        62.38365
785.81        62.09045
786.22        62.40812
786.63        63.18808
787.04        63.48885
787.46        63.25077
787.87        62.95466
788.28        62.76746
788.70        62.66914
789.11        62.67504
789.52        62.96392
789.93        63.35592
790.35        63.19715
790.76        62.60402
791.17        62.42577
791.58        62.72323
792.00        62.84819
792.41        62.77778
792.82        63.01859
793.23         63.4101
793.65        63.21829
794.06        62.68675
794.47        62.71344
794.88        63.09698
795.29        64.12872
795.71        63.20913
796.12        63.13952
796.53        63.22644
796.94        63.07408
797.35        62.77741
797.76        62.97586
798.18        63.56536
798.59        63.82516
799.00        63.67018
799.41        63.46461
799.82        63.30505
800.23        63.20504
800.64        63.20118
801.06        63.25246
801.47        63.34964
801.88        63.39746
802.29        63.36096
802.70        63.25933
803.11         63.1218
803.52         62.9786
803.93        62.87002
804.34        62.85895
804.75        62.92198
805.17        62.99257
805.58        63.17841
805.99        63.37768
806.40        63.61999
806.81         64.5492
807.22        65.71649
807.63        65.29836
808.04        63.60771
808.45        62.83523
808.86        63.18061
809.27        63.45399
809.68        63.49309
810.09        63.59386
810.50        63.69999
810.91        63.72994
811.32         63.7752
811.73        63.94778
812.14        64.25316
812.55        64.74751
812.96        65.26684
813.37        65.24636
813.78        64.73783
814.19         64.4422
814.60        64.38859
815.01        64.11545
815.42         63.6445
815.83        63.27438
816.24        63.06631
816.65        62.96891
817.05        63.00812
817.46        63.17984
817.87        63.43071
818.28        63.62573
818.69        63.73123
819.10        63.75837
819.51        63.75788
819.92        63.85884
820.33        64.08395
820.74        64.31003
821.14        64.47886
821.55        64.65829
821.96        64.75636
822.37        64.46036
822.78        63.88523
823.19        63.55408
823.60        63.55068
824.00         63.6408
824.41        63.73923
824.82        63.90263
825.23        64.09258
825.64        64.29268
826.04        64.47724
826.45         64.5667
826.86        64.56093
827.27        64.48596
827.68        64.36386
828.08        64.26499
828.49         64.1685
828.90        64.07158
829.31        64.03148
829.72        64.13908
830.12        64.41772
830.53         64.7912
830.94        65.11106
831.35        65.07622
831.75        64.64717
832.16        63.91183
832.57        63.11895
832.97        62.64384
833.38        62.58777
833.79        62.81951
834.20        63.22745
834.60        63.62631
835.01        63.94381
835.42        64.27797
835.82        64.56683
836.23        64.62773
836.64        64.46967
837.04        64.09113
837.45        63.75396
837.86        63.95815
838.26        64.80485
838.67        66.11217
839.08        67.41949
839.48        67.85429
839.89        67.19825
840.29        65.77456
840.70         64.2252
841.11        63.29641
841.51        63.18634
841.92        63.65562
842.33        64.46763
842.73          65.197
843.14        65.56805
843.54        65.75427
843.95         65.8322
844.35        65.96963
844.76        66.19538
845.17        66.42715
845.57        66.58339
845.98        66.53577
846.38        66.28363
846.79        65.87045
847.19         65.4421
847.60        65.19773
848.00        65.19531
848.41        65.36498
848.81        65.57846
849.22        65.53904
849.62        65.22112
850.03        64.70356
850.43         64.1765
850.84        63.88111
851.24        63.92704
851.65        64.18341
852.05        64.61239
852.46        65.02951
852.86        65.35308
853.27        65.63226
853.67        65.78266
854.07        65.79817
854.48        65.66862
854.88        65.40635
855.29        65.06647
855.69        64.88554
856.10         64.8659
856.50        65.03364
856.90        65.24094
857.31        65.24934
857.71        65.04706
858.12        64.63007
858.52        64.18642
858.92        63.92736
859.33        63.89689
859.73         64.0807
860.13        64.27773
860.54        64.17182
860.94        63.74217
861.34        63.08783
861.75        62.44872
862.15        62.25071
862.55        62.57253
862.96        63.24062
863.36        64.06643
863.76        64.65132
864.17        64.83801
864.57         64.7602
864.97        64.45757
865.38        64.00725
865.78        63.50072
866.18        62.91769
866.58        62.38192
866.99        62.12297
867.39        62.22017
867.79        62.61393
868.19        63.17618
868.60        63.66986
869.00        64.04211
869.40        64.31356
869.80        64.47935
870.21        64.54314
870.61        64.56626
871.01        64.49422
871.41        64.31219
871.81        64.00614
872.22        63.58667
872.62        63.07615
873.02        62.60093
873.42        62.35888
873.82        62.39763
874.22        62.66162
874.63        62.98364
875.03        63.11083
875.43         62.9647
875.83        62.61999
876.23        62.21999
876.63        61.99117
877.03         61.9998
877.44        62.15777
877.84        62.37973
878.24        62.54882
878.64        62.57195
879.04        62.33155
879.44        62.01843
879.84         62.0391
880.24        62.42165
880.64        63.00385
881.04        63.47599
881.44        63.36561
881.84        62.59797
882.24        61.36398
882.65        60.09806
883.05        59.46433
883.45        59.62902
883.85        60.40212
884.25        61.45528
884.65        62.21424
885.05         62.4842
885.45        62.42682
885.85        62.22154
886.25        62.14943
886.65        62.29158
887.05        62.53035
887.45         62.7778
887.85        62.91402
888.25        62.89565
888.65         62.7809
889.04        62.61231
889.44        62.46649
889.84        62.35426
890.24        62.25217
890.64        62.14072
891.04        61.99461
891.44        61.81921
891.84        61.64945
892.24        61.50348
892.64        61.39577
893.04        61.33944
893.44        61.33323
893.83        61.41961
894.23        61.61637
894.63        61.92871
895.03        62.31736
895.43        62.71532
895.83         63.0208
896.23        63.18903
896.63        63.22923
897.02        63.13945
897.42        62.95411
897.82        62.70051
898.22        62.40525
898.62        62.10715
899.01        61.84932
899.41        61.66869
899.81        61.55369
900.21        61.52986
900.61        61.63142
901.00        61.84024
901.40        62.11747
901.80        62.38038
902.20        62.49486
902.59        62.44362
902.99         62.2764
903.39        62.03464
903.79        61.78968
904.18        61.57393
904.58        61.36275
904.98        61.26474
905.38         61.4525
905.77         61.9291
906.17        62.66174
906.57        63.36617
906.96        63.56302
907.36        63.14846
907.76        62.28682
908.15        61.39077
908.55        61.10389
908.95        61.57841
909.34        62.61012
909.74        63.79564
910.14        64.54228
910.53        64.63195
910.93        64.27611
911.33         63.6266
911.72        62.90411
912.12        62.29141
912.52        61.73862
912.91        61.31814
913.31        61.16894
913.70        61.29802
914.10        61.63359
914.49        62.16078
914.89        62.74493
915.29        63.31813
915.68        63.90094
916.08        64.24783
916.47        64.04138
916.87        63.29261
917.26        62.11831
917.66        60.99284
918.05        60.49158
918.45        60.73077
918.84        61.58549
919.24        62.67391
919.64        63.42455
920.03        63.64513
920.42        63.45244
920.82        63.11972
921.21        63.03216
921.61        63.27338
922.00        63.73698
922.40        64.18199
922.79        64.34574
923.19        64.12527
923.58        63.66636
923.98        63.16177
924.37        62.81211
924.77         62.6932
925.16        62.70901
925.55        62.80289
925.95        62.86473
926.34        62.86113
926.74        62.80112
927.13        62.67289
927.52        62.38796
927.92        61.99767
928.31         61.5354
928.70        61.10116
929.10        60.81911
929.49        60.71289
929.89        60.69926
930.28         60.8846
930.67        61.33707
931.07        62.00352
931.46        62.91553
931.85        63.72231
932.24        63.90446
932.64        63.41544
933.03        62.37965
933.42        61.32501
933.82        61.03035
934.21        61.64644
934.60         62.9852
934.99        64.52451
935.39         65.3128
935.78        65.11246
936.17        64.13144
936.56        62.86967
936.96        62.11074
937.35        62.05816
937.74        62.45912
938.13        62.94171
938.53        62.94521
938.92        62.35093
939.31        61.42195
939.70        60.43499
940.09         59.7471
940.49        59.43222
940.88        59.37889
941.27        59.55748
941.66        59.91381
942.05        60.38405
942.44        60.99879
942.84         61.5976
943.23        61.90683
943.62        61.88287
944.01        61.54927
944.40        61.14618
944.79        61.10635
945.18        61.51084
945.57        62.22367
945.97         62.9012
946.36        63.04612
946.75        62.51345
947.14        61.56153
947.53        60.50484
947.92        59.77209
948.31        59.49651
948.70        59.54653
949.09        59.89888
949.48        60.51205
949.87        61.30073
950.26        62.24221
950.65        63.14411
951.04         63.6892
951.43        63.77986
951.82        63.46451
952.21        62.87609
952.60        62.26711
952.99        61.76825
953.38        61.38372
953.77        61.11936
954.16        60.96606
954.55        60.90702
954.94        60.91673
955.33        61.06972
955.72        61.46869
956.11        62.08312
956.50        62.86765
956.89         63.4524
957.28        63.24584
957.66        62.17124
958.05         60.4959
958.44        58.80819
958.83        57.95012
959.22        58.07681
959.61        58.94488
960.00         60.1179
960.39        60.76585
960.78        60.60341
961.16        59.89148
961.55        58.97345
961.94        58.26778
962.33         57.9209
962.72        57.82357
963.11        57.90685
963.49        58.09969
963.88         58.2813
964.27        58.45617
964.66        58.74739
965.04        59.36314
965.43        60.26376
965.82        61.43464
966.21        62.38798
966.60        62.23213
966.98        60.81098
967.37        58.56088
967.76        56.37577
968.15        55.37229
968.53        55.74226
968.92        57.22294
969.31         59.1992
969.69        60.39111
970.08         60.2719
970.47        59.23909
970.86        58.03762
971.24        57.73986
971.63        58.57938
972.02        60.23198
972.40        62.11021
972.79        62.83809
973.17        62.06641
973.56        60.31364
973.95        58.36361
974.33        57.19104
974.72         57.0093
975.11            57.5
975.49        58.34773
975.88        58.90221
976.26        58.96424
976.65        58.73047
977.04        58.37699
977.42        58.11843
977.81        58.01424
978.19        57.95187
978.58        58.07201
978.96        58.59254
979.35         59.4864
979.74        60.68848
980.12        61.95384
980.51         62.5993
980.89        62.55634
981.28        61.99223
981.66        61.19235
982.05        60.54797
982.43         60.1831
982.82        59.93665
983.20        59.95363
983.59        60.40079
983.97        61.33703
984.35        62.74472
984.74        64.02402
985.12        64.37141
985.51         63.5705
985.89        61.89689
986.28        60.16901
986.66        59.56965
987.04        60.40803
987.43        62.30228
987.81        64.59815
988.20        65.89498
988.58        65.70885
988.96        64.40312
989.35        62.54927
989.73        60.94563
990.12        59.83797
990.50        59.06898
990.88        58.45208
991.27        57.73571
991.65        56.90578
992.03        56.11567
992.42        55.72445
992.80        56.16674
993.18        57.49858
993.56        59.59159
993.95        61.77179
994.33        62.92418
994.71        62.58979
995.10        61.18496
995.48        59.50089
995.86        58.82396
996.24        59.45146
996.63        60.88973
997.01         62.8205
997.39        64.20185
997.77        64.54324
998.15        64.29063
998.54        63.42349
998.92        61.77282
999.30        59.59801
999.68        56.99353
1000.06        54.86447
1000.45        54.49017
1000.83        56.18702
1001.21        59.80314
1001.59        64.32516
1001.97        67.19427
1002.35        67.36156
1002.73          65.478
1003.12        63.06798
1003.50         62.1414
1003.88        63.24933
1004.26        65.72107
1004.64         68.7433
1005.02        70.60094
1005.40        70.54792
1005.78        69.28629
1006.16        67.19877
1006.54        64.81764
1006.92        62.56064
1007.30        60.34819
1007.69        58.76679
1008.07        58.46622
1008.45        59.65678
1008.83        62.26453
1009.21         65.6225
1009.59        67.92257
1009.97        68.20788
1010.35        66.83347
1010.73        64.50475
1011.11        62.33107
1011.49         60.7841
1011.86        59.71502
1012.24        59.07395
1012.62         58.7603
1013.00        58.70892
1013.38        58.89466
1013.76        59.61305
1014.14        61.26957
1014.52        63.71607
1014.90        66.60833
1015.28         68.7605
1015.66        68.71034
1016.04        66.34711
1016.41        62.07421
1016.79        57.29948
1017.17        54.75808
1017.55        55.25024
1017.93        57.95216
1018.31        61.35921
1018.69        63.30198
1019.06        63.25795
1019.44        61.77581
1019.82        59.54895
1020.20        58.26561
1020.58        58.58198
1020.95        59.62194
1021.33        60.85139
1021.71        61.62399
1022.09         61.8334
1022.46        62.00597
1022.84        61.72916
1023.22        60.20879
1023.60        57.56006
1023.97        53.99631
1024.35        51.37052
1024.73        51.72174
