SpectraSmart Spectrum 2.9.0.0
--------- Device Information -----------
Spectrum Name :  反射率_0
Saving Time :  2024/04/26 23:02:55
Spectro-Module Model Name : SE2030-DUVN
Spectro-Module Serial Number : OS361AC55029948
Wavelength Start : 200
Wavelength End : 1025
Wavelength Unit : Wavelength(nm)
Spectrum Unit : Reflectance(%)
-----------Spectrum Setting ------------
Integration Time : 20ms
Average : 10
Boxcar : 0
Background removal :  enabled
linearity correction :  enabled
SC :  disabled
Intensity correction :  disabled
DWT denoise :  enabled
savitzky-golay :  disabled
FFT :  disabled
Running average :  disabled
Kalman :  disabled
High pass :  disabled
---------------BEGIN--------------------
Wavelength(nm)             Reflectance(%)
200.29               0
200.75        31.51774
201.21        33.92893
201.67        36.18635
202.13        36.75422
202.58        35.46502
203.04        33.10741
203.50         30.1834
203.96        28.46064
204.42        29.33552
204.88        32.13547
205.34        36.67339
205.80        42.23991
206.26        47.33231
206.72         51.1729
207.18        52.63709
207.64         50.6882
208.10        45.17339
208.55        35.56419
209.01         21.3075
209.47        10.59276
209.93        10.46393
210.39        16.71608
210.85        23.71219
211.31        29.20678
211.77        34.70556
212.23        44.01855
212.69        66.45997
213.14        111.2549
213.60         122.485
214.06        100.2033
214.52        81.06422
214.98        70.58106
215.44        63.98663
215.90        57.65636
216.36        52.37325
216.81        49.90148
217.27        51.13296
217.73        57.55653
218.19        67.19582
218.65        68.74551
219.11        59.62477
219.57        47.69148
220.02        40.62756
220.48        42.37947
220.94        52.47775
221.40        72.19279
221.86        100.3696
222.32        117.1579
222.77        106.8316
223.23        83.24443
223.69        61.40118
224.15        49.47924
224.61        45.41371
225.06        44.81139
225.52        45.87135
225.98        46.83116
226.44        47.30338
226.90        48.09182
227.36        48.72175
227.81        48.22546
228.27        46.76071
228.73        44.47268
229.19         42.6721
229.65        42.98972
230.10        45.36287
230.56        49.23381
231.02        52.97167
231.48        53.93845
231.93        51.79066
232.39        47.97408
232.85        44.16681
233.31        42.53992
233.77        43.30038
234.22        45.61013
234.68        48.45457
235.14        50.37572
235.60        50.85312
236.05        50.36097
236.51        49.01652
236.97        47.16264
237.43        45.15185
237.88        42.97219
238.34        41.02245
238.80        40.11353
239.26        40.57639
239.71        42.91859
240.17        47.01194
240.63        52.00132
241.08        57.13935
241.54        61.68493
242.00        66.42401
242.46        74.03983
242.91        87.18262
243.37         107.753
243.83        135.6201
244.28        156.8788
244.74         152.561
245.20        124.1809
245.66        92.92198
246.11         76.5506
246.57        74.87532
247.03        82.27413
247.48         91.5333
247.94         90.5438
248.40        80.15865
248.85        67.79422
249.31        57.79401
249.77        51.54184
250.22        47.82064
250.68        44.82587
251.14        42.08626
251.59        39.80939
252.05         38.8638
252.51        40.00816
252.96         41.2398
253.42        40.57347
253.88        38.28251
254.33         34.9118
254.79         33.0523
255.25        34.89255
255.70        39.99984
256.16        47.30247
256.62         53.4607
257.07        53.55667
257.53         48.9925
257.99        43.03286
258.44        38.33287
258.90        37.08934
259.35        38.31438
259.81        40.93898
260.27        43.50481
260.72        44.24272
261.18        43.26637
261.63        41.29332
262.09        39.43016
262.55        38.45447
263.00        38.29043
263.46        38.60414
263.91        38.81784
264.37        38.42453
264.83        37.38578
265.28        35.97924
265.74        34.66663
266.19        33.77013
266.65        33.38356
267.11        33.28754
267.56        33.31604
268.02        33.20821
268.47        32.89361
268.93        32.49946
269.38        32.02975
269.84        31.53125
270.30         31.0111
270.75        30.40188
271.21        29.84792
271.66        29.53763
272.12         29.4806
272.57        29.61814
273.03        29.65797
273.48        29.12655
273.94        28.02615
274.39        26.53799
274.85        25.12959
275.31        24.33425
275.76        24.20064
276.22        24.52971
276.67        24.97699
277.13        25.11284
277.58        24.79953
278.04        24.20921
278.49        23.46269
278.95         22.8269
279.40        22.33773
279.86        21.96826
280.31        21.61601
280.77        21.22153
281.22        20.75324
281.68        20.29427
282.13        19.90407
282.59        19.71137
283.04        19.69578
283.50         19.8059
283.95         19.9271
284.41        19.88788
284.86        19.65025
285.32        19.29636
285.77        18.89767
286.22        18.59704
286.68        18.42812
287.13        18.32255
287.59        18.26898
288.04        18.21817
288.50        18.16648
288.95        18.11392
289.41        18.05107
289.86        17.91215
290.32        17.72174
290.77        17.49495
291.22        17.29799
291.68        17.22316
292.13        17.28268
292.59        17.45551
293.04        17.70612
293.50        17.99284
293.95        18.28327
294.40        18.58435
294.86        18.87911
295.31        19.13839
295.77         19.3636
296.22        19.55667
296.68        19.74333
297.13        19.95663
297.58        20.21631
298.04        20.52435
298.49         20.8772
298.95        21.27658
299.40        21.70964
299.85        22.16735
300.31        22.63767
300.76        23.10142
301.21        23.54085
301.67        23.95523
302.12        24.30437
302.58        24.57713
303.03        24.75646
303.48        24.87149
303.94        24.95146
304.39        25.01884
304.84        25.09385
305.30        25.18021
305.75        25.27234
306.20        25.40123
306.66        25.56906
307.11        25.75599
307.57        25.92558
308.02         25.9894
308.47         25.9409
308.93        25.80838
309.38        25.64314
309.83        25.56126
310.29        25.58442
310.74        25.67702
311.19        25.76527
311.65        25.72407
312.10         25.5285
312.55        25.22742
313.00        24.91322
313.46        24.72059
313.91         24.6675
314.36        24.71207
314.82        24.77971
315.27        24.75776
315.72         24.6111
316.18        24.38425
316.63        24.11599
317.08        23.87572
317.53        23.68522
317.99        23.51925
318.44        23.36897
318.89        23.21384
319.35        23.04765
319.80        22.87936
320.25        22.71492
320.70        22.55998
321.16        22.41236
321.61        22.27364
322.06        22.12738
322.51        21.95224
322.97         21.7412
323.42         21.5026
323.87        21.26462
324.32        21.07606
324.78        20.94085
325.23        20.86118
325.68        20.78166
326.13        20.61487
326.59        20.34627
327.04        20.01362
327.49        19.69404
327.94        19.50945
328.39         19.4803
328.85        19.55771
329.30        19.67677
329.75        19.68406
330.20        19.53324
330.66        19.26739
331.11        18.95552
331.56        18.69366
332.01        18.51537
332.46        18.38754
332.92        18.28749
333.37        18.21013
333.82        18.13298
334.27        18.06724
334.72        17.99695
335.17        17.88798
335.63        17.73512
336.08        17.55961
336.53        17.37919
336.98        17.23398
337.43        17.13763
337.88        17.07358
338.34        17.05062
338.79        17.09793
339.24        17.20195
339.69        17.35252
340.14        17.47886
340.59        17.46911
341.05        17.30999
341.50        17.03295
341.95        16.72756
342.40        16.53437
342.85        16.48719
343.30        16.54361
343.75        16.63971
344.20        16.67035
344.66        16.60696
345.11        16.48333
345.56        16.33493
346.01        16.21444
346.46         16.1452
346.91        16.11622
347.36        16.11393
347.81        16.12204
348.26          16.134
348.72        16.15007
349.17        16.18913
349.62        16.28941
350.07         16.4465
350.52         16.6414
350.97        16.80029
351.42         16.8087
351.87        16.65138
352.32        16.37268
352.77         16.0702
353.22        15.88792
353.67        15.85848
354.13        15.94302
354.58        16.07205
355.03        16.13301
355.48        16.09143
355.93        15.98477
356.38         15.8565
356.83        15.76981
357.28        15.74006
357.73        15.74008
358.18        15.74222
358.63        15.70855
359.08        15.62694
359.53        15.51061
359.98        15.37933
360.43        15.25803
360.88        15.15303
361.33        15.05995
361.78        14.96016
362.23        14.82544
362.68         14.6573
363.13        14.47206
363.58        14.30574
364.03        14.21107
364.48        14.19575
364.93        14.23867
365.38        14.30418
365.83        14.33418
366.28        14.30947
366.73        14.24533
367.18        14.15448
367.63        14.05937
368.08        13.96915
368.53        13.87504
368.98        13.78356
369.43        13.70588
369.88         13.6439
370.33        13.60041
370.78        13.56083
371.23        13.49834
371.68        13.40802
372.13         13.2956
372.58        13.18619
373.03        13.12027
373.48        13.10395
373.93        13.12315
374.38        13.14325
374.83        13.10952
375.28        13.01118
375.72        12.86438
376.17        12.71241
376.62        12.60314
377.07        12.54867
377.52        12.53236
377.97        12.53434
378.42        12.52304
378.87        12.48871
379.32         12.4427
379.77        12.39292
380.22        12.34941
380.67        12.31379
381.11        12.28165
381.56        12.24448
382.01        12.20402
382.46        12.16104
382.91        12.11914
383.36          12.075
383.81        12.02083
384.26        11.95567
384.71        11.88229
385.15        11.80953
385.60        11.75838
386.05        11.73231
386.50        11.72525
386.95        11.72597
387.40        11.71762
387.85        11.69448
388.29         11.6531
388.74        11.61221
389.19        11.57182
389.64        11.53279
390.09        11.49339
390.54         11.4482
390.98        11.38709
391.43        11.31928
391.88        11.24902
392.33        11.18986
392.78        11.15923
393.23        11.15817
393.67        11.17451
394.12        11.20353
394.57        11.21629
395.02         11.2055
395.47        11.17142
395.91        11.12999
396.36        11.10112
396.81        11.09621
397.26        11.10981
397.71         11.1153
398.15        11.08052
398.60        11.01763
399.05        10.89637
399.50        10.76326
399.95        10.76196
400.39        10.86656
400.84        10.86833
401.29         10.7612
401.74        10.70479
402.18        10.70242
402.63        10.65191
403.08        10.57274
403.53        10.54397
403.97        10.57195
404.42         10.6312
404.87        10.69135
405.32        10.70353
405.76        10.65418
406.21        10.56495
406.66        10.46394
407.11         10.3957
407.55        10.37427
408.00        10.38111
408.45        10.39496
408.90         10.3741
409.34        10.30844
409.79        10.21698
410.24        10.12372
410.68        10.05581
411.13        10.02203
411.58        10.01026
412.03        10.00698
412.47        9.991996
412.92        9.955958
413.37        9.910117
413.81         9.86116
414.26        9.824597
414.71         9.79996
415.15        9.783091
415.60        9.768192
416.05        9.753235
416.49        9.737686
416.94        9.722606
417.39        9.706925
417.83        9.687344
418.28         9.66294
418.73        9.634062
419.17        9.607191
419.62          9.5931
420.07        9.593542
420.51        9.601777
420.96        9.610905
421.41        9.608667
421.85        9.588144
422.30        9.551476
422.74        9.499629
423.19         9.47834
423.64        9.475282
424.08         9.43197
424.53        9.354259
424.98        9.328803
425.42        9.367222
425.87        9.400576
426.31        9.420226
426.76        9.482615
427.21        9.553195
427.65        9.501976
428.10        9.363091
428.54        9.288834
428.99        9.296439
429.44        9.340145
429.88        9.385216
430.33        9.343338
430.77        9.239664
431.22        9.250356
431.66         9.36569
432.11        9.403926
432.56        9.360768
433.00        9.365294
433.45         9.38089
433.89        9.278148
434.34        9.130816
434.78        8.895479
435.23        9.075276
435.67        9.082332
436.12        9.043437
436.57        8.985826
437.01        8.927976
437.46         8.90522
437.90        8.916925
438.35        8.922648
438.79        8.917285
439.24        8.923359
439.68        8.939536
440.13        8.960612
440.57        8.971739
441.02        8.957927
441.46        8.920496
441.91        8.846503
442.35         8.76691
442.80        8.809493
443.24        8.940031
443.69        8.990387
444.13        8.958876
444.58        8.988519
445.02        9.073981
445.47        9.131746
445.91        9.140938
446.36        9.114887
446.80        9.053276
447.24         8.95754
447.69        8.862161
448.13        8.816745
448.58        8.834466
449.02        8.899656
449.47        8.986037
449.91        9.045988
450.36        9.066678
450.80        9.059079
451.25        9.036633
451.69        9.017013
452.13        9.006012
452.58        8.994011
453.02        8.976732
453.47        8.950518
453.91        8.915802
454.36        8.881111
454.80         8.84448
455.24        8.798821
455.69        8.748857
456.13        8.689959
456.58        8.648411
457.02        8.648319
457.46        8.694921
457.91        8.777185
458.35        8.854697
458.79        8.863576
459.24        8.802737
459.68        8.688747
460.13        8.578037
460.57        8.529756
461.01        8.563994
461.46         8.65069
461.90        8.763074
462.34        8.845594
462.79        8.876009
463.23        8.875485
463.68        8.845038
464.12         8.79387
464.56        8.730451
465.01        8.663503
465.45        8.599854
465.89        8.574737
466.34        8.590144
466.78        8.635818
467.22        8.694547
467.67        8.725108
468.11        8.720622
468.55        8.689079
468.99        8.646073
469.44        8.616499
469.88        8.608668
470.32        8.614385
470.77        8.630244
471.21        8.653388
471.65        8.679135
472.10        8.710677
472.54        8.739424
472.98        8.755537
473.42        8.757215
473.87        8.749164
474.31        8.733397
474.75        8.723469
475.20        8.724737
475.64        8.730367
476.08        8.740055
476.52        8.747506
476.97         8.75223
477.41        8.762546
477.85         8.78117
478.29        8.798628
478.74        8.822165
479.18        8.871756
479.62        8.941428
480.06         9.00859
480.50        9.069241
480.95        9.119416
481.39        9.147413
481.83        9.228746
482.27        9.228405
482.72        9.256742
483.16        9.284158
483.60        9.316042
484.04        9.335538
484.48        9.416228
484.93        9.610962
485.37        9.618232
485.81        9.591822
486.25         10.0873
486.69         9.37945
487.14         9.25625
487.58        10.28562
488.02        10.24148
488.46        9.992437
488.90         9.96276
489.34        9.883851
489.79        10.08307
490.23         10.2974
490.67        10.47682
491.11        10.55733
491.55        10.52559
491.99         10.4401
492.43        10.44862
492.88        10.57268
493.32        10.71118
493.76        10.84212
494.20        10.98787
494.64         11.1414
495.08        11.27163
495.52        11.36805
495.96         11.4915
496.41        11.61778
496.85        11.57753
497.29        11.42839
497.73        11.52617
498.17         11.7136
498.61        11.90165
499.05        12.00716
499.49        12.11705
499.93        12.19811
500.37        12.32197
500.82        12.46834
501.26        12.57028
501.70        12.62315
502.14        12.67027
502.58        12.73116
503.02        12.81279
503.46        12.91865
503.90        13.04835
504.34        13.17309
504.78        13.24286
505.22        13.24852
505.66        13.20711
506.10         13.1546
506.54        13.14862
506.98        13.20391
507.42        13.30243
507.86        13.42033
508.30        13.51749
508.74        13.58009
509.18        13.62064
509.62        13.64631
510.06        13.66904
510.50          13.694
510.94        13.71481
511.38        13.73634
511.82        13.76721
512.26        13.81014
512.70        13.86881
513.14        13.93196
513.58        13.97963
514.02        14.00756
514.46        14.01632
514.90         14.0291
515.34        14.08435
515.78        14.18506
516.22        14.31676
516.66         14.4345
517.10        14.46765
517.54        14.40375
517.98        14.26749
518.42        14.11154
518.86         14.0199
519.30        14.01486
519.74        14.07223
520.18        14.15345
520.62        14.19636
521.06        14.18403
521.50        14.13737
521.93        14.08096
522.37        14.04794
522.81        14.05066
523.25        14.07329
523.69         14.1008
524.13        14.11368
524.57        14.10396
525.01        14.07586
525.45        14.03582
525.89        13.99308
526.32        13.94989
526.76        13.90933
527.20        13.86118
527.64        13.79119
528.08          13.701
528.52        13.59852
528.96        13.50877
529.40        13.46907
529.83        13.48425
530.27        13.54089
530.71        13.60682
531.15        13.63168
531.59        13.60192
532.03        13.53083
532.46        13.43981
532.90        13.37374
533.34        13.34202
533.78        13.32494
534.22        13.30838
534.66        13.28737
535.09         13.2481
535.53        13.16964
535.97        13.07216
536.41        13.01915
536.85        13.01911
537.28        13.04193
537.72        13.07721
538.16        13.11794
538.60        13.15699
539.04        13.19538
539.47        13.23029
539.91        13.26634
540.35        13.30175
540.79        13.33565
541.22        13.36845
541.66        13.40652
542.10        13.45065
542.54        13.50279
542.97        13.56207
543.41        13.63138
543.85        13.71013
544.29        13.79906
544.72         13.8977
545.16        14.01581
545.60        14.15035
546.04        14.29891
546.47        14.45584
546.91        14.60855
547.35        14.75003
547.79        14.88228
548.22        15.00429
548.66        15.11296
549.10        15.22792
549.53        15.34272
549.97        15.46155
550.41          15.555
550.84        15.63914
551.28        15.75711
551.72        15.89211
552.15        16.02926
552.59        16.18412
553.03        16.12314
553.46        16.33548
553.90        16.40612
554.34        16.47951
554.77        16.55426
555.21        16.63976
555.65        16.73603
556.08        16.83558
556.52        16.92947
556.96        17.00874
557.39        17.10653
557.83        17.20828
558.27        17.21637
558.70        17.15687
559.14        17.17547
559.57        17.26983
560.01        17.34929
560.45        17.40118
560.88        17.46058
561.32        17.53334
561.75        17.59154
562.19        17.64374
562.63        17.69965
563.06        17.75782
563.50        17.81816
563.93        17.86448
564.37        17.91721
564.80         17.9842
565.24        18.02009
565.68        17.99412
566.11        18.24923
566.55        18.13224
566.98        18.18534
567.42        18.24858
567.85        18.35691
568.29        18.51507
568.72         18.7207
569.16        18.96048
569.60        19.10486
570.03        19.21872
570.47        19.30989
570.90        19.41313
571.34        19.40628
571.77        19.58412
572.21        19.68003
572.64        19.76951
573.08        19.93596
573.51        20.18053
573.95         20.3029
574.38        20.29477
574.82        20.53041
575.25        20.17822
575.69        20.27367
576.12        20.49128
576.56        20.62975
576.99        20.81197
577.42        20.65939
577.86        20.47992
578.29        20.92757
578.73        20.48765
579.16        20.52693
579.60        20.52786
580.03        20.62055
580.47        20.50251
580.90        20.47703
581.33        20.40285
581.77         20.4224
582.20        20.23263
582.64        20.00926
583.07        19.98731
583.51        19.91629
583.94        19.92963
584.37        19.85399
584.81        19.68053
585.24         19.5518
585.68        19.44132
586.11        19.26431
586.54        19.42836
586.98        19.39888
587.41        19.30857
587.85        19.17197
588.28        19.04833
588.71        18.94932
589.15         19.0586
589.58        18.84486
590.01        19.09048
590.45        19.02771
590.88        18.90664
591.31         18.8316
591.75          18.899
592.18        18.94471
592.61        18.83443
593.05        19.51468
593.48        19.28035
593.91        18.92171
594.35         19.0527
594.78        19.08703
595.21        19.30659
595.65        19.41075
596.08        19.48278
596.51        19.63412
596.94        19.78378
597.38        19.95972
597.81         20.1326
598.24        20.29106
598.68        20.46885
599.11        20.61715
599.54          21.078
599.97        20.91656
600.41        21.42307
600.84        21.50337
601.27        21.83388
601.70        22.09195
602.14        22.35555
602.57        22.72953
603.00        23.21611
603.43         23.2694
603.87        23.79243
604.30        24.12283
604.73        24.38828
605.16         24.6391
605.60        24.98161
606.03        25.22882
606.46         25.4591
606.89         25.6311
607.32        26.51411
607.76        26.72028
608.19        27.08397
608.62        27.28659
609.05        27.62007
609.48        27.91148
609.92        28.49219
610.35        28.91266
610.78         29.0002
611.21         29.0755
611.64        29.57905
612.07        29.90435
612.50        30.04284
612.94        30.28177
613.37        30.58207
613.80        30.83169
614.23        30.88061
614.66        31.16269
615.09        31.59119
615.52        31.83947
615.96        31.92353
616.39         32.1335
616.82        32.48937
617.25        32.78699
617.68        33.12633
618.11        33.33533
618.54        33.46924
618.97        33.68674
619.40        33.99306
619.84        34.15364
620.27         34.2628
620.70        34.39732
621.13        34.57264
621.56        34.53625
621.99         34.4747
622.42        34.51624
622.85        34.68781
623.28        34.83089
623.71        34.95732
624.14        34.95279
624.57        35.23099
625.00         35.3124
625.43        35.28842
625.86        35.25627
626.29        35.27344
626.72        34.87271
627.15        35.00648
627.58        34.88788
628.01        34.76756
628.44        34.58527
628.87        34.34215
629.30        34.04735
629.73        33.73526
630.16        33.48162
630.59         33.2964
631.02        33.15324
631.45        33.01095
631.88        32.80344
632.31        32.50934
632.74        32.14648
633.17         31.7351
633.60        31.31028
634.03          30.889
634.46        30.46291
634.89        30.03448
635.32        29.61426
635.75        29.20696
636.18        28.78563
636.61        28.36632
637.04        27.98508
637.47        27.64177
637.89        27.32115
638.32        26.99688
638.75        26.65633
639.18        26.29987
639.61         25.9374
640.04        25.59226
640.47        25.29641
640.90        25.05588
641.33        24.86278
641.76        24.69873
642.18        24.53713
642.61        24.36456
643.04        24.19223
643.47        24.03978
643.90         23.9377
644.33        23.89199
644.76        23.89342
645.18        23.91717
645.61        23.91969
646.04        23.89344
646.47        23.85075
646.90         23.8296
647.33        23.88342
647.75        24.02169
648.18        24.26403
648.61        24.57234
649.04        24.80623
649.47        24.93152
649.89        25.30732
650.32        25.33242
650.75        25.73671
651.18         26.2766
651.61        26.75032
652.03        27.11875
652.46        27.41401
652.89        27.71178
653.32        28.12224
653.74        28.58991
654.17        29.13213
654.60        29.22442
655.03        29.47554
655.46        29.91023
655.88        30.45813
656.31        31.34062
656.74        31.51502
657.16        32.60288
657.59        33.88068
658.02        32.75054
658.45          33.172
658.87        33.42191
659.30         33.5645
659.73        34.14544
660.15        34.64026
660.58        34.28081
661.01        34.63817
661.44        35.36101
661.86        35.58005
662.29        35.32434
662.72        35.73526
663.14        36.13008
663.57        36.43861
664.00        36.49493
664.42        36.75527
664.85        37.24044
665.27        37.75626
665.70        38.19909
666.13        38.49905
666.55        38.62838
666.98        38.58938
667.41        38.46304
667.83        38.59021
668.26         38.6046
668.69        38.93723
669.11        39.19894
669.54         39.5088
669.96         39.7738
670.39          40.017
670.82        40.25432
671.24        40.49423
671.67        40.73501
672.09        40.95191
672.52        41.14103
672.94         41.2788
673.37        41.37184
673.80        41.43036
674.22        41.48597
674.65        41.56356
675.07        41.68427
675.50        41.83307
675.92        41.99755
676.35        42.14801
676.77        42.27736
677.20        42.39252
677.62        42.50234
678.05        42.61992
678.47        42.74731
678.90        42.88047
679.32        43.01294
679.75        43.14468
680.17        43.27243
680.60        43.39966
681.02         43.5262
681.45        43.65587
681.87        43.79684
682.30        43.91531
682.72        44.02405
683.15        44.17359
683.57        44.34633
684.00        44.40694
684.42        44.38489
684.85        44.44694
685.27        44.60067
685.70         44.7654
686.12        44.91541
686.54        45.05886
686.97        45.18406
687.39        45.28945
687.82        45.37872
688.24        45.47177
688.66         45.5731
689.09        45.67655
689.51        45.77818
689.94        45.86805
690.36        45.94711
690.78        45.95961
691.21        45.95799
691.63        46.10526
692.06        46.38184
692.48        46.60839
692.90        46.72764
693.33        46.79524
693.75        46.79677
694.17         46.6493
694.60        46.47721
695.02        46.50537
695.44        46.74912
695.87        47.21949
696.29        47.75926
696.71        47.76595
697.14        47.41972
697.56        47.42774
697.98        47.83502
698.41        48.07225
698.83        48.13334
699.25        48.39895
699.68        48.78029
700.10        48.98172
700.52        48.95329
700.94        48.79654
701.37        48.62441
701.79        48.62281
702.21        48.83213
702.64        49.17879
703.06        49.57573
703.48        49.87042
703.90        50.01413
704.33        50.05381
704.75        50.03417
705.17        50.02034
705.59         50.0436
706.01        50.08348
706.44        50.14641
706.86        50.25613
707.28        50.40246
707.70        50.59354
708.12        50.81439
708.55        51.00092
708.97        51.15526
709.39         51.3362
709.81        51.52225
710.23        51.63892
710.66        51.67592
711.08        51.67864
711.50        51.65984
711.92        51.64483
712.34        51.64966
712.76        51.67807
713.19        51.71952
713.61        51.78169
714.03        51.85458
714.45        51.94809
714.87        52.07333
715.29        52.24854
715.71         52.4692
716.13        52.70889
716.56        52.93776
716.98        53.17934
717.40        53.39085
717.82        53.57011
718.24        53.66584
718.66        53.59936
719.08        53.38216
719.50        53.06639
719.92        52.76284
720.34        52.63768
720.76        52.73041
721.19         52.9772
721.61        53.33893
722.03        53.70236
722.45         54.0095
722.87        54.27633
723.29        54.46168
723.71         54.5047
724.13        54.40768
724.55        54.19232
724.97        53.94263
725.39        53.79649
725.81        53.79644
726.23        53.91825
726.65        54.12433
727.07         54.3397
727.49        54.53761
727.91        54.72758
728.33        54.90877
728.75        55.06708
729.17        55.19437
729.59        55.30499
730.01        55.38212
730.43        55.35042
730.85        55.24898
731.27        55.20515
731.69        55.28133
732.10        55.27551
732.52        55.20491
732.94         55.1745
733.36        55.20584
733.78         55.1736
734.20        55.06691
734.62        55.12726
735.04        55.42441
735.46        55.02314
735.88         55.5625
736.30        55.73058
736.72         56.0016
737.13        56.26994
737.55        56.46692
737.97        56.75698
738.39        57.01836
738.81        56.79612
739.23         56.2932
739.65        56.30132
740.06        56.67654
740.48        57.22862
740.90        56.96568
741.32        56.55107
741.74        56.88143
742.16        56.93102
742.57         57.0401
742.99         57.2157
743.41        57.40544
743.83        57.46075
744.25        57.35396
744.67        57.12704
745.08        56.89199
745.50        56.81783
745.92        56.95234
746.34        57.23616
746.75        57.55895
747.17        57.73137
747.59        57.70961
748.01        57.55182
748.42        57.34542
748.84        57.23173
749.26        57.25051
749.68        57.34684
750.09        57.46714
750.51        57.54639
750.93        57.55307
751.35        57.49642
751.76        57.39676
752.18          57.313
752.60         57.2463
753.01        57.19856
753.43        57.17861
753.85         57.1251
754.27        57.02615
754.68        57.22446
755.10        57.39323
755.52        57.20651
755.93        57.36715
756.35        57.46763
756.77         57.7675
757.18        57.96919
757.60        58.05604
758.02        58.43208
758.43        58.97825
758.85        58.39361
759.26        58.38811
759.68        57.86715
760.10        57.48549
760.51        57.91895
760.93        59.03349
761.34        58.62667
761.76        58.80307
762.18        58.58167
762.59        58.69319
763.01        58.72176
763.42        58.73081
763.84        58.80494
764.26         58.9205
764.67        58.95263
765.09        58.95113
765.50        59.01102
765.92        59.10551
766.33        59.08627
766.75        58.91815
767.16        58.57301
767.58        58.13636
768.00        58.19911
768.41        58.80328
768.83        58.62926
769.24        59.01324
769.66         59.0604
770.07        59.15864
770.49        58.82726
770.90         58.3237
771.32        58.67779
771.73        59.68456
772.15        60.08941
772.56        59.82411
772.97        59.28345
773.39        59.13301
773.80        59.06089
774.22        59.19677
774.63        59.40871
775.05        59.59519
775.46        59.68454
775.88        59.57963
776.29        59.83722
776.70        59.47363
777.12        59.52036
777.53        59.70064
777.95        59.93153
778.36        60.15559
778.77         60.2721
779.19        60.28201
779.60        60.24369
780.02        60.13895
780.43         60.0298
780.84        59.96329
781.26        59.60048
781.67        59.16073
782.09        59.72366
782.50        60.97583
782.91        61.15512
783.33        60.30496
783.74        60.02389
784.15        60.36835
784.57        60.37518
784.98        60.10011
785.39         60.0845
785.81        60.35543
786.22        60.76641
786.63        61.18587
787.04        61.40298
787.46        61.37817
787.87        61.16574
788.28        60.90979
788.70        60.79533
789.11        60.85011
789.52        61.07517
789.93        61.34696
790.35        61.39186
790.76        61.19456
791.17        60.94513
791.58         60.7753
792.00        60.68197
792.41        60.70433
792.82        61.08141
793.23        61.59613
793.65        61.40993
794.06        60.74965
794.47        60.75327
794.88        61.26113
795.29         61.9738
795.71        61.25467
796.12        61.12207
796.53        61.19643
796.94         61.2079
797.35        61.21037
797.76        61.56028
798.18        62.11502
798.59        62.36861
799.00        62.23851
799.41        61.94217
799.82        61.63116
800.23        61.48931
800.64        61.57892
801.06        61.81595
801.47        62.11794
801.88        62.26622
802.29        62.19175
802.70        61.94683
803.11        61.63535
803.52        61.42746
803.93        61.40077
804.34        61.52646
804.75        61.70657
805.17         61.8935
805.58        62.10904
805.99        61.97038
806.40        61.65953
806.81        62.41601
807.22        63.83544
807.63        63.69283
808.04        62.20367
808.45        61.61804
808.86        62.08665
809.27         62.3597
809.68        62.28316
810.09        62.21325
810.50        62.12547
810.91        61.93026
811.32        61.75466
811.73        61.79729
812.14        62.09099
812.55        62.58967
812.96        63.12911
813.37        63.38594
813.78        63.26539
814.19        62.88002
814.60        62.39372
815.01        62.02783
815.42        61.84188
815.83        61.77692
816.24        61.79136
816.65        61.80784
817.05        61.80568
817.46        61.79992
817.87        61.82687
818.28        61.88771
818.69        61.98186
819.10        62.08161
819.51        62.20147
819.92        62.37697
820.33        62.59689
820.74        62.84191
821.14        63.03782
821.55        63.06326
821.96        62.90511
822.37         62.6101
822.78         62.2825
823.19        62.09816
823.60        62.11619
824.00         62.3167
824.41        62.59428
824.82        62.85604
825.23        63.04298
825.64        63.16566
826.04        63.24434
826.45         63.2809
826.86        63.29346
827.27        63.28632
827.68        63.21454
828.08        63.03817
828.49        62.71707
828.90        62.28988
829.31        61.91381
829.72        61.83513
830.12        62.12563
830.53        62.68455
830.94        63.27361
831.35        63.43362
831.75        63.06955
832.16          62.292
832.57        61.45445
832.97        61.10195
833.38        61.36066
833.79        62.04287
834.20        62.85982
834.60         63.3585
835.01        63.41838
835.42        63.21219
835.82        62.91262
836.23        62.74306
836.64        62.81606
837.04        63.01587
837.45        63.32696
837.86        63.79671
838.26        64.41251
838.67        65.12656
839.08        65.72663
839.48         65.7912
839.89        65.23627
840.29        64.21601
840.70        63.16806
841.11        62.56599
841.51        62.53608
841.92        62.93671
842.33        63.58298
842.73        64.13374
843.14        64.36497
843.54        64.41395
843.95        64.38553
844.35        64.50476
844.76         64.7992
845.17        65.17063
845.57        65.48533
845.98        65.51546
846.38        65.23338
846.79        64.72056
847.19        64.13148
847.60        63.68399
848.00        63.46119
848.41        63.38963
848.81        63.42067
849.22        63.39176
849.62        63.29288
850.03        63.16077
850.43        63.05051
850.84        62.98299
851.24        63.00458
851.65        63.03443
852.05        63.13229
852.46        63.30676
852.86        63.54594
853.27        63.84406
853.67          64.057
854.07        64.08832
854.48        63.90625
854.88        63.55991
855.29        63.13721
855.69        62.91959
856.10         62.9291
856.50        63.17154
856.90        63.47691
857.31        63.57409
857.71        63.43918
858.12        63.07933
858.52         62.6986
858.92        62.53582
859.33        62.64187
859.73         62.9893
860.13        63.35378
860.54        63.38657
860.94        63.04718
861.34        62.42569
861.75        61.78379
862.15        61.58335
862.55        61.91418
862.96        62.61396
863.36        63.43053
863.76        63.85754
864.17        63.73927
864.57        63.25619
864.97        62.61177
865.38        62.13522
865.78        61.95412
866.18        61.95907
866.58        62.07844
866.99        62.18807
867.39         62.2594
867.79        62.34998
868.19        62.46716
868.60        62.57989
869.00        62.70893
869.40         62.8091
869.80        62.91331
870.21        63.09249
870.61        63.39169
871.01        63.73488
871.41        63.96085
871.81        63.84524
872.22        63.35928
872.62        62.56221
873.02        61.70038
873.42        61.19761
873.82        61.17591
874.22        61.53328
874.63        61.98765
875.03          62.095
875.43        61.74437
875.83        61.08738
876.23        60.41019
876.63        60.15208
877.03        60.41412
877.44        61.01858
877.84        61.73297
878.24        62.19304
878.64        62.22773
879.04        61.80457
879.44        61.20264
879.84        60.96053
880.24        61.15975
880.64        61.60098
881.04        61.99354
881.44        61.90258
881.84        61.24715
882.24        60.20484
882.65        59.15475
883.05        58.66669
883.45        58.87493
883.85        59.60453
884.25        60.53605
884.65        61.12168
885.05          61.194
885.45         60.9236
885.85        60.51989
886.25        60.30824
886.65        60.37418
887.05        60.57941
887.45        60.83712
887.85        61.01977
888.25         61.0721
888.65        61.06588
889.04        60.96934
889.44        60.74248
889.84        60.39425
890.24        59.93876
890.64        59.51961
891.04        59.38184
891.44        59.57074
891.84        60.01283
892.24        60.52781
892.64        60.83261
893.04         60.8714
893.44        60.73865
893.83        60.58069
894.23        60.59382
894.63        60.84578
895.03        61.22758
895.43        61.66507
895.83        62.05151
896.23        62.31705
896.63        62.48133
897.02        62.46207
897.42        62.15294
897.82        61.57338
898.22        60.81346
898.62        60.03073
899.01        59.44803
899.41        59.15032
899.81        59.07876
900.21        59.21496
900.61        59.51331
901.00        59.91938
901.40        60.41497
901.80        60.89441
902.20        61.19044
902.59        61.27095
902.99        61.16204
903.39        60.93468
903.79        60.72494
904.18        60.57324
904.58        60.44414
904.98         60.3798
905.38        60.44211
905.77        60.63527
906.17        60.98747
906.57        61.32577
906.96        61.35741
907.36        61.02049
907.76        60.39474
908.15        59.82639
908.55        59.85085
908.95        60.56793
909.34        61.81739
909.74        63.09931
910.14        63.66427
910.53        63.30186
910.93        62.27862
911.33        61.00808
911.72        60.12509
912.12        59.86644
912.52        60.03135
912.91        60.40562
913.31        60.68258
913.70        60.76452
914.10        60.72669
914.49        60.71499
914.89        60.87725
915.29        61.26298
915.68        61.80538
916.08        62.25844
916.47        62.30322
916.87        61.89881
917.26         61.1416
917.66        60.40159
918.05        60.09649
918.45        60.31923
918.84        60.99885
919.24        61.78872
919.64        62.20245
920.03        62.10769
920.42        61.60462
920.82        61.07164
921.21        61.04726
921.61        61.62638
922.00        62.67297
922.40        63.74009
922.79        64.17755
923.19        63.78925
923.58        62.84417
923.98        61.77946
924.37        61.16619
924.77        61.15974
925.16        61.53886
925.55        62.10939
925.95        62.52045
926.34        62.64527
926.74        62.57944
927.13        62.33622
927.52        61.85836
927.92        61.24137
928.31        60.51544
928.70        59.85328
929.10        59.50471
929.49        59.50524
929.89        59.72086
930.28        60.19509
930.67        60.87304
931.07        61.64524
931.46         62.5839
931.85        63.28115
932.24        63.13598
932.64        62.13306
933.03        60.44608
933.42        58.80677
933.82        58.29564
934.21         59.1196
934.60        61.01828
934.99        63.26554
935.39        64.52477
935.78        64.41724
936.17        63.22857
936.56        61.63434
936.96        60.71354
937.35        60.75504
937.74        61.42944
938.13        62.19892
938.53        62.24471
938.92        61.40499
939.31        60.03871
939.70         58.6514
940.09        57.93166
940.49        58.00288
940.88        58.64183
941.27        59.54815
941.66        60.18144
942.05        60.35019
942.44          60.263
942.84        60.03361
943.23        59.82003
943.62        59.71222
944.01        59.59788
944.40        59.62751
944.79        60.08641
945.18        60.96813
945.57        62.17582
945.97        63.26706
946.36        63.56414
946.75        62.89267
947.14        61.55639
947.53        60.01256
947.92        58.91754
948.31        58.46161
948.70        58.45673
949.09        58.83654
949.48        59.47256
949.87        60.24422
950.26        61.17147
950.65        62.03886
951.04        62.47946
951.43        62.40157
951.82         61.8677
952.21        61.08733
952.60        60.44656
952.99        60.09589
953.38        59.98182
953.77        60.03918
954.16        60.14855
954.55        60.25047
954.94        60.34703
955.33        60.49474
955.72        60.77093
956.11         61.1576
956.50        61.61966
956.89        61.87357
957.28        61.47999
957.66        60.40208
958.05        58.86958
958.44        57.39497
958.83        56.69557
959.22        56.90353
959.61        57.83028
960.00        59.05214
960.39        59.76415
960.78        59.68539
961.16        59.02253
961.55        58.18854
961.94        57.72687
962.33        57.78786
962.72        58.24739
963.11        58.81983
963.49        59.01336
963.88        58.62766
964.27        57.84404
964.66        57.15467
965.04        57.29053
965.43        58.33614
965.82        60.14068
966.21        62.02013
966.60         62.6458
966.98        61.62994
967.37        59.49478
967.76        57.21239
968.15         56.0117
968.53        56.13452
968.92        57.28622
969.31        58.84193
969.69        59.56227
970.08        58.99192
970.47         57.5709
970.86        56.15946
971.24        55.95977
971.63         57.2007
972.02        59.52023
972.40        62.13256
972.79        63.23638
973.17        62.34095
973.56        60.11353
973.95        57.55634
974.33        55.94039
974.72        55.55872
975.11        56.00326
975.49        56.97026
975.88        57.82896
976.26        58.32634
976.65         58.6295
977.04        58.76098
977.42        58.69586
977.81        58.44173
978.19        57.94749
978.58        57.45662
978.96        57.36947
979.35        57.75081
979.74        58.52359
980.12        59.50165
980.51        60.09494
980.89        60.24362
981.28        60.08445
981.66        59.82313
982.05        59.73074
982.43        59.90316
982.82        60.21046
983.20         60.7472
983.59        61.59617
983.97        62.77401
984.35         64.2125
984.74        65.44002
985.12        65.90589
985.51        65.41896
985.89        64.17876
986.28         62.7337
986.66        61.83189
987.04        61.72998
987.43        62.22235
987.81        62.99506
988.20         63.3289
988.58        63.00821
988.96         62.1819
989.35        61.22192
989.73        60.63884
990.12         60.5354
990.50        60.82778
990.88        61.07974
991.27        60.58753
991.65        59.25893
992.03        57.36805
992.42        55.72363
992.80        55.40802
993.18         56.6135
993.56        59.08943
993.95        61.85759
994.33        63.17516
994.71        62.39123
995.10        60.14374
995.48        57.59926
995.86        56.55021
996.24        57.42952
996.63        59.64839
997.01        62.58044
997.39        64.57606
997.77        64.88144
998.15        64.03065
998.54        62.49414
998.92         60.8289
999.30        59.39478
999.68        58.08303
1000.06        57.08427
1000.45        56.63589
1000.83        56.82915
1001.21        57.63956
1001.59        59.02987
1001.97        60.63063
1002.35        62.16616
1002.73          63.671
1003.12        64.87751
1003.50        65.34859
1003.88        65.16623
1004.26        64.16851
1004.64        63.07742
1005.02        63.38099
1005.40        65.41032
1005.78        68.82997
1006.16        71.89619
1006.54        71.85742
1006.92        68.44083
1007.30        62.75823
1007.69        57.08808
1008.07        54.47424
1008.45        55.78637
1008.83        60.31159
1009.21        66.61191
1009.59        71.03631
1009.97        71.66897
1010.35        69.45152
1010.73        65.69842
1011.11         62.3582
1011.49        60.15156
1011.86        58.58931
1012.24         57.4883
1012.62        56.59867
1013.00        55.81667
1013.38        55.29105
1013.76        55.36707
1014.14        56.55979
1014.52        58.84607
1014.90        61.76696
1015.28        64.38147
1015.66        65.62435
1016.04        65.34016
1016.41        63.79282
1016.79        61.50765
1017.17        59.63818
1017.55        58.63193
1017.93        58.20807
1018.31        58.13069
1018.69         57.9524
1019.06        57.57447
1019.44          57.336
1019.82        57.15709
1020.20        56.85099
1020.58        56.40131
1020.95        55.56707
1021.33        55.18456
1021.71        56.30575
1022.09        59.09429
1022.46        63.77821
1022.84        68.70834
1023.22        69.76994
1023.60        65.67257
1023.97        57.78473
1024.35        50.35147
1024.73        48.25464
