SpectraSmart Spectrum 2.9.0.0
--------- Device Information -----------
Spectrum Name :  反射率_0
Saving Time :  2024/04/26 22:54:36
Spectro-Module Model Name : SE2030-DUVN
Spectro-Module Serial Number : OS361AC55029948
Wavelength Start : 200
Wavelength End : 1025
Wavelength Unit : Wavelength(nm)
Spectrum Unit : Reflectance(%)
-----------Spectrum Setting ------------
Integration Time : 20ms
Average : 10
Boxcar : 0
Background removal :  enabled
linearity correction :  enabled
SC :  disabled
Intensity correction :  disabled
DWT denoise :  enabled
savitzky-golay :  disabled
FFT :  disabled
Running average :  disabled
Kalman :  disabled
High pass :  disabled
---------------BEGIN--------------------
Wavelength(nm)             Reflectance(%)
200.29               0
200.75        52.59177
201.21        51.80482
201.67        51.83433
202.13        52.78833
202.58        54.66299
203.04        57.92387
203.50         63.1012
203.96        69.90771
204.42         77.2874
204.88         84.5979
205.34        89.34914
205.80        88.70746
206.26        82.98151
206.72        73.87735
207.18        65.39462
207.64        60.33932
208.10        58.54454
208.55        60.20386
209.01        63.78795
209.47        64.31774
209.93        60.53506
210.39        55.84616
210.85        53.91816
211.31        57.56406
211.77        68.82115
212.23        95.38157
212.69        160.8685
213.14        264.3517
213.60        249.2297
214.06        168.4236
214.52        116.7768
214.98        94.84257
215.44        86.78619
215.90        83.37363
216.36        83.71619
216.81        88.09571
217.27        96.99275
217.73        114.6183
218.19        137.7993
218.65        143.8806
219.11        126.9615
219.57        102.9156
220.02        87.31258
220.48         88.1161
220.94        104.1005
221.40        136.8116
221.86        186.6167
222.32        224.4829
222.77        221.2601
223.23        194.7684
223.69        165.0107
224.15        143.9667
224.61        131.3639
225.06        122.3581
225.52        117.8964
225.98         118.626
226.44        123.6536
226.90        132.5401
227.36         142.251
227.81        147.0388
228.27             146
228.73        140.9108
229.19         135.475
229.65        134.1188
230.10        137.0736
230.56        142.9352
231.02        148.7826
231.48        150.1239
231.93         146.319
232.39        140.0335
232.85        133.9975
233.31        131.7154
233.77        133.4846
234.22        137.8144
234.68        143.0517
235.14        146.6796
235.60        147.7946
236.05        147.2925
236.51        145.0967
236.97        141.7191
237.43        137.6986
237.88        132.9932
238.34        128.4219
238.80        125.7173
239.26        125.3917
239.71        128.2881
240.17        133.3107
240.63        137.8811
241.08        140.4165
241.54        139.9889
242.00        138.8419
242.46        142.0302
242.91        153.3816
243.37        174.1339
243.83        204.7304
244.28        230.4323
244.74        228.7344
245.20        200.2982
245.66        165.3286
246.11        140.7204
246.57        126.8934
247.03         118.698
247.48        112.1396
247.94        103.0772
248.40        93.47063
248.85        86.13213
249.31        81.65958
249.77        79.06778
250.22        77.45496
250.68        75.88265
251.14        75.27788
251.59        78.07904
252.05        84.63828
252.51        93.72523
252.96        100.1486
253.42        100.2191
253.88        95.38393
254.33        87.66901
254.79        82.97873
255.25        86.37352
255.70         96.9483
256.16        112.2155
256.62        125.7315
257.07        127.6339
257.53        120.3658
257.99        110.3553
258.44        102.1135
258.90        99.57916
259.35        101.1322
259.81        105.1514
260.27        109.7502
260.72         112.707
261.18        113.9446
261.63        113.7067
262.09        113.2101
262.55        112.8217
263.00        112.4477
263.46        112.2645
263.91           111.5
264.37        109.8935
264.83        107.5051
265.28        104.6372
265.74        102.3223
266.19        101.2626
266.65         101.608
267.11         102.814
267.56        104.2352
268.02        104.8669
268.47        104.3872
268.93        103.2111
269.38         101.493
269.84        99.61399
270.30         97.7451
270.75         95.7607
271.21        94.04427
271.66        93.06533
272.12        92.85758
272.57        93.20187
273.03        93.56351
273.48        92.99496
273.94        91.41931
274.39        89.11301
274.85        86.65472
275.31        84.56448
275.76        82.95637
276.22          81.754
276.67        80.79899
277.13        80.12118
277.58        79.52448
278.04        79.04697
278.49        78.47425
278.95        77.71653
279.40        76.64655
279.86        75.47138
280.31        74.06915
280.77        72.53489
281.22        70.85217
281.68        69.18513
282.13        67.69601
282.59        66.82016
283.04        66.48077
283.50        66.57506
283.95        66.73233
284.41        66.42513
284.86        65.51678
285.32        64.24536
285.77        62.84241
286.22        61.76337
286.68        61.09555
287.13        60.62729
287.59        60.23691
288.04        59.65015
288.50        58.86151
288.95        57.93194
289.41        56.98567
289.86        56.05192
290.32         55.2257
290.77        54.44305
291.22        53.75117
291.68        53.19822
292.13         52.7512
292.59        52.41298
293.04        52.14137
293.50        51.90786
293.95        51.68184
294.40        51.48238
294.86        51.28685
295.31         51.0433
295.77         50.7699
296.22        50.46882
296.68        50.23178
297.13        50.16734
297.58        50.30119
298.04        50.59641
298.49        50.94432
298.95         51.2029
299.40        51.31328
299.85        51.30873
300.31        51.26585
300.76        51.28008
301.21        51.38016
301.67        51.55078
302.12        51.68415
302.58        51.70319
303.03        51.56564
303.48        51.34527
303.94        51.15676
304.39        51.10947
304.84        51.23699
305.30        51.49225
305.75        51.75813
306.20        51.93134
306.66        51.99387
307.11        51.96644
307.57        51.88474
308.02        51.73183
308.47        51.54014
308.93        51.31281
309.38        51.10114
309.83        51.05278
310.29        51.18107
310.74        51.44061
311.19        51.68558
311.65        51.66837
312.10        51.33567
312.55        50.76647
313.00        50.15365
313.46        49.78596
313.91        49.70714
314.36        49.84381
314.82        50.02068
315.27        49.96736
315.72        49.61415
316.18        49.06648
316.63        48.47783
317.08         48.1027
317.53        47.99744
317.99        48.06965
318.44        48.19096
318.89        48.14272
319.35        47.86547
319.80        47.43235
320.25        46.94981
320.70        46.58362
321.16        46.37919
321.61         46.3015
322.06         46.2685
322.51        46.15396
322.97        45.91843
323.42         45.6074
323.87        45.30972
324.32         45.1731
324.78        45.20926
325.23         45.3931
325.68        45.57027
326.13        45.49789
326.59        45.11983
327.04        44.52881
327.49        43.89383
327.94        43.48634
328.39        43.36964
328.85        43.44767
329.30        43.62917
329.75        43.65539
330.20        43.45145
330.66        43.09713
331.11        42.71458
331.56        42.45932
332.01        42.38322
332.46        42.42298
332.92        42.51601
333.37         42.6296
333.82        42.70842
334.27        42.77637
334.72        42.81721
335.17         42.7968
335.63        42.71246
336.08        42.59516
336.53        42.47994
336.98        42.44857
337.43        42.52081
337.88        42.66243
338.34         42.8492
338.79        43.08104
339.24        43.31341
339.69        43.54431
340.14        43.69137
340.59        43.62831
341.05        43.35752
341.50        42.92426
341.95        42.46759
342.40        42.19953
342.85        42.17556
343.30        42.34111
343.75        42.60598
344.20        42.81605
344.66        42.91935
345.11        42.95012
345.56        42.94555
346.01        42.96598
346.46        43.03211
346.91        43.12423
347.36        43.20322
347.81        43.22071
348.26        43.16847
348.72        43.05927
349.17        42.96115
349.62        42.99558
350.07        43.17633
350.52        43.46941
350.97        43.73104
351.42         43.7313
351.87        43.43415
352.32        42.92112
352.77        42.38362
353.22        42.10283
353.67        42.13414
354.13        42.39117
354.58        42.70946
355.03        42.80851
355.48        42.61389
355.93        42.21931
356.38        41.77362
356.83        41.49641
357.28        41.43603
357.73        41.51098
358.18        41.61105
358.63        41.56655
359.08        41.32994
359.53        40.96186
359.98        40.54138
360.43        40.17667
360.88        39.89622
361.33        39.66776
361.78         39.4431
362.23        39.15128
362.68        38.78585
363.13        38.38544
363.58        38.00937
364.03        37.74034
364.48        37.59115
364.93        37.52448
365.38        37.49031
365.83        37.41125
366.28        37.26036
366.73         37.0596
367.18        36.81926
367.63        36.55659
368.08        36.28381
368.53        35.99621
368.98        35.71336
369.43        35.46786
369.88        35.26567
370.33        35.10122
370.78        34.95414
371.23         34.7872
371.68        34.59053
372.13        34.37524
372.58        34.15402
373.03        33.94711
373.48        33.75917
373.93         33.5793
374.38        33.40322
374.83        33.22813
375.28        33.04977
375.72        32.86041
376.17        32.67373
376.62        32.46788
377.07         32.2466
377.52        32.02606
377.97        31.81407
378.42        31.62813
378.87        31.47526
379.32        31.33876
379.77        31.24349
380.22        31.22567
380.67        31.27529
381.11        31.38646
381.56        31.44743
382.01        31.30769
382.46         30.9515
382.91        30.44853
383.36        29.93926
383.81        29.61364
384.26          29.505
384.71        29.55823
385.15        29.68394
385.60        29.72842
386.05        29.64622
386.50        29.48436
386.95        29.29925
387.40        29.17864
387.85        29.13974
388.29         29.1213
388.74        29.11995
389.19        29.06676
389.64         28.9487
390.09        28.78732
390.54        28.60082
390.98        28.41173
391.43        28.25341
391.88        28.11851
392.33        28.01006
392.78        27.93066
393.23        27.87649
393.67        27.83205
394.12        27.81588
394.57        27.79949
395.02        27.77415
395.47        27.73205
395.91        27.67698
396.36        27.60584
396.81        27.53469
397.26        27.46835
397.71        27.39374
398.15        27.30801
398.60        27.24587
399.05        27.10131
399.50        26.92542
399.95          26.988
400.39        27.20684
400.84        27.08766
401.29        26.67327
401.74        26.45756
402.18        26.47653
402.63        26.44297
403.08        26.35948
403.53        26.34783
403.97        26.40287
404.42        26.49317
404.87        26.56881
405.32         26.5487
405.76        26.41576
406.21        26.20772
406.66        25.99297
407.11        25.88098
407.55        25.90447
408.00        26.02497
408.45        26.17795
408.90         26.2335
409.34        26.15378
409.79        25.98379
410.24        25.80279
410.68        25.71604
411.13        25.75203
411.58        25.87632
412.03        26.01682
412.47        26.05242
412.92        25.94465
413.37        25.74565
413.81        25.53592
414.26        25.45264
414.71        25.51014
415.15        25.67353
415.60         25.8591
416.05        25.94541
416.49        25.89834
416.94        25.76031
417.39        25.59184
417.83        25.48155
418.28         25.4557
418.73         25.4784
419.17        25.54003
419.62        25.62733
420.07        25.72501
420.51        25.83236
420.96        25.91643
421.41        25.91785
421.85        25.82346
422.30        25.64319
422.74        25.42678
423.19        25.36282
423.64        25.43059
424.08        25.45157
424.53        25.39799
424.98        25.41557
425.42        25.51293
425.87         25.5338
426.31        25.49596
426.76        25.61194
427.21        25.81243
427.65        25.72584
428.10         25.4362
428.54        25.34627
428.99        25.48789
429.44        25.73372
429.88        25.97115
430.33        25.92147
430.77        25.65032
431.22        25.66574
431.66        25.94552
432.11        26.01209
432.56        25.85607
433.00         25.8434
433.45        25.90358
433.89        25.69317
434.34        25.36349
434.78        25.04558
435.23        25.48516
435.67        25.62673
436.12        25.62724
436.57        25.52359
437.01        25.36508
437.46        25.28833
437.90         25.3066
438.35        25.30354
438.79        25.26583
439.24         25.2625
439.68        25.29244
440.13        25.33965
440.57        25.39136
441.02        25.45096
441.46        25.50901
441.91        25.49491
442.35        25.42395
442.80        25.57531
443.24        25.84136
443.69        25.77724
444.13        25.43793
444.58        25.31313
445.02         25.4233
445.47        25.50773
445.91          25.527
446.36        25.54362
446.80        25.54218
447.24        25.51342
447.69        25.47403
448.13        25.43831
448.58        25.41941
449.02        25.41062
449.47        25.41677
449.91        25.43066
450.36        25.45644
450.80         25.4875
451.25         25.5276
451.69        25.56395
452.13        25.59554
452.58        25.61742
453.02        25.62366
453.47        25.61046
453.91        25.57834
454.36        25.53613
454.80        25.47914
455.24         25.3996
455.69        25.30943
456.13        25.19765
456.58        25.11415
457.02        25.09248
457.46        25.14635
457.91        25.26272
458.35        25.37209
458.79        25.37359
459.24        25.27151
459.68        25.08513
460.13        24.91572
460.57         24.8546
461.01        24.93974
461.46        25.11857
461.90        25.34371
462.34        25.51659
462.79        25.59307
463.23         25.6059
463.68          25.558
464.12        25.47276
464.56        25.36264
465.01        25.25536
465.45        25.13258
465.89        25.03848
466.34        24.97944
466.78        24.94457
467.22         24.9466
467.67        24.97921
468.11        25.05136
468.55         25.1494
468.99        25.25002
469.44        25.31455
469.88        25.33414
470.32        25.31146
470.77        25.26907
471.21        25.25083
471.65        25.26473
472.10        25.30253
472.54        25.33545
472.98        25.32612
473.42        25.26981
473.87        25.19227
474.31         25.1083
474.75        25.06234
475.20        25.06929
475.64        25.10342
476.08        25.15591
476.52        25.20047
476.97        25.22737
477.41        25.25592
477.85        25.28913
478.29        25.29419
478.74        25.29291
479.18        25.35216
479.62        25.45341
480.06        25.52201
480.50        25.55692
480.95        25.57676
481.39        25.57256
481.83        25.75342
482.27        25.72713
482.72        25.88821
483.16          25.961
483.60         26.0162
484.04        25.96224
484.48        26.11076
484.93        26.46599
485.37        26.01024
485.81        25.69475
486.25        26.16063
486.69        26.07487
487.14        26.33701
487.58        26.97926
488.02        27.10074
488.46         26.3605
488.90        26.50579
489.34        26.60677
489.79        26.96218
490.23        27.15067
490.67        27.23957
491.11        27.22059
491.55        27.13553
491.99        27.05341
492.43        27.02932
492.88        27.08953
493.32        27.21791
493.76         27.3965
494.20         27.5848
494.64          27.768
495.08        27.97977
495.52        28.17481
495.96        28.26764
496.41        28.27549
496.85        28.23559
497.29         28.1846
497.73        28.42986
498.17        28.56654
498.61        28.74886
499.05        28.82916
499.49        28.89458
499.93        28.88595
500.37        29.03609
500.82        29.28676
501.26        29.43661
501.70        29.46624
502.14         29.4943
502.58        29.54883
503.02        29.61741
503.46        29.70671
503.90        29.81886
504.34        29.92893
504.78        29.99548
505.22        30.01134
505.66        29.99197
506.10        29.96632
506.54        29.98066
506.98        30.04691
507.42        30.14872
507.86        30.27065
508.30        30.38764
508.74        30.48719
509.18        30.57411
509.62        30.64308
510.06        30.68637
510.50         30.7051
510.94        30.70182
511.38          30.689
511.82        30.68733
512.26        30.70552
512.70        30.74344
513.14        30.79698
513.58        30.85737
514.02        30.91946
514.46        30.97999
514.90        31.04316
515.34         31.1162
515.78        31.19578
516.22        31.27701
516.66        31.33532
517.10        31.33308
517.54        31.26865
517.98        31.15927
518.42        31.04456
518.86        30.98792
519.30        31.00308
519.74        31.06688
520.18        31.15227
520.62        31.21459
521.06         31.2393
521.50        31.24439
521.93        31.22681
522.37        31.17121
522.81        31.08809
523.25        30.97905
523.69        30.88382
524.13        30.86606
524.57        30.93157
525.01        31.05669
525.45         31.1869
525.89        31.23158
526.32        31.16556
526.76        31.02734
527.20        30.85252
527.64        30.70163
528.08         30.5957
528.52        30.51479
528.96        30.46107
529.40        30.43744
529.83        30.43742
530.27        30.46723
530.71        30.49338
531.15        30.46311
531.59         30.3674
532.03        30.21604
532.46         30.0514
532.90        29.96408
533.34        29.96501
533.78         30.0127
534.22        30.05411
534.66        30.04334
535.09        29.94524
535.53        29.72252
535.97        29.44649
536.41        29.30409
536.85        29.32374
537.28        29.42125
537.72        29.55793
538.16        29.69322
538.60        29.80037
539.04        29.89107
539.47        29.95183
539.91        29.98085
540.35        29.97826
540.79         29.9485
541.22         29.9179
541.66        29.94175
542.10        30.02846
542.54        30.16404
542.97        30.32387
543.41        30.47933
543.85        30.61425
544.29        30.73971
544.72        30.84914
545.16        30.95457
545.60        31.05334
546.04        31.14298
546.47        31.24049
546.91        31.36913
547.35         31.5301
547.79         31.7224
548.22        31.91383
548.66        32.04625
549.10        32.14933
549.53        32.22301
549.97        32.30925
550.41        32.40337
550.84        32.54982
551.28         32.8159
551.72        33.12302
552.15        33.37317
552.59        33.58388
553.03        33.29453
553.46        33.55753
553.90        33.57857
554.34        33.67054
554.77        33.80891
555.21        33.98247
555.65        34.14995
556.08        34.28197
556.52        34.36433
556.96        34.40737
557.39        34.52891
557.83        34.70726
558.27        34.72466
558.70        34.60866
559.14        34.61884
559.57        34.74365
560.01         34.8155
560.45        34.83217
560.88        34.89742
561.32        35.02888
561.75        35.15644
562.19        35.28318
562.63        35.40842
563.06        35.51941
563.50        35.61925
563.93        35.67305
564.37        35.71906
564.80        35.77484
565.24         35.7531
565.68        35.59852
566.11        36.00223
566.55        35.67991
566.98        35.68678
567.42        35.71306
567.85        35.86927
568.29        36.14974
568.72        36.47405
569.16        36.82902
569.60        37.03894
570.03        37.16859
570.47        37.29232
570.90        37.48628
571.34        37.24068
571.77        37.53154
572.21        37.88662
572.64        37.79771
573.08        38.19427
573.51        38.05974
573.95        38.12121
574.38        38.24622
574.82         38.3859
575.25        38.22799
575.69        38.42192
576.12        38.86131
576.56        38.64921
576.99        38.59583
577.42        38.65942
577.86        38.95825
578.29        39.09182
578.73        38.93156
579.16        39.02787
579.60        38.64621
580.03        38.74292
580.47         38.5621
580.90        38.94541
581.33         38.8056
581.77        38.93093
582.20        38.39176
582.64        38.63209
583.07        38.40417
583.51        38.09447
583.94        37.83392
584.37        37.89427
584.81        37.95696
585.24        37.90452
585.68        37.62178
586.11        37.60286
586.54        37.47695
586.98        37.13527
587.41        37.05096
587.85         37.1371
588.28        36.79394
588.71        36.95282
589.15        36.66967
589.58        36.77336
590.01        36.74432
590.45        36.70358
590.88        37.11101
591.31        37.09181
591.75         36.9073
592.18        36.83401
592.61        36.90112
593.05        37.28167
593.48         37.5985
593.91        37.19429
594.35        37.47994
594.78        37.03141
595.21        36.96642
595.65        37.23866
596.08        38.06711
596.51        38.04721
596.94        38.06559
597.38        38.11823
597.81        38.48233
598.24        38.82185
598.68        38.69637
599.11        39.14605
599.54        39.76355
599.97        39.68401
600.41        40.06259
600.84        40.03493
601.27        40.57297
601.70        40.75984
602.14        41.10626
602.57        41.44197
603.00        42.04753
603.43        41.89868
603.87        42.49613
604.30        43.30714
604.73        43.81486
605.16         43.7788
605.60        43.81638
606.03        43.99473
606.46         44.5149
606.89        45.01172
607.32        45.61346
607.76        45.88704
608.19        46.42619
608.62        46.70139
609.05        46.98187
609.48        47.31709
609.92        48.26373
610.35        48.42521
610.78        47.79839
611.21        48.21204
611.64        48.47547
612.07        49.09101
612.50        49.35915
612.94        49.70755
613.37        50.02622
613.80        50.03333
614.23        49.88126
614.66         50.1245
615.09        50.73773
615.52        51.16911
615.96        51.36251
616.39        51.63634
616.82         51.9847
617.25        52.18764
617.68        52.29279
618.11        52.49456
618.54        52.77727
618.97        53.07429
619.40        53.37756
619.84        53.32528
620.27        53.41405
620.70          53.578
621.13        53.87757
621.56        53.70515
621.99         53.1755
622.42        53.12626
622.85        53.58743
623.28        53.64474
623.71        53.75227
624.14        53.86915
624.57        54.33842
625.00        53.96923
625.43         54.2341
625.86        54.07278
626.29        53.97814
626.72        53.49284
627.15        53.57129
627.58        53.43858
628.01        53.27568
628.44        53.06827
628.87        52.84373
629.30        52.18566
629.73        52.53104
630.16        52.36798
630.59        52.11367
631.02        51.91871
631.45        51.77812
631.88        51.55723
632.31        51.22903
632.74        50.84265
633.17        50.40788
633.60        49.94595
634.03        49.47572
634.46        48.99522
634.89        48.52028
635.32        48.08619
635.75        47.70314
636.18        47.31334
636.61        46.93144
637.04        46.60583
637.47        46.33009
637.89        46.07843
638.32        45.80272
638.75        45.47468
639.18        45.09138
639.61        44.67122
640.04        44.25187
640.47        43.88911
640.90        43.59789
641.33         43.3645
641.76        43.17773
642.18        43.02245
642.61        42.87911
643.04        42.76251
643.47        42.66683
643.90        42.58084
644.33        42.50293
644.76        42.43299
645.18        42.38721
645.61        42.38391
646.04        42.43378
646.47        42.53405
646.90        42.67293
647.33        42.82737
647.75        42.97733
648.18        43.15485
648.61        43.39221
649.04        43.63312
649.47        43.81804
649.89         44.4937
650.32        44.49644
650.75        44.87331
651.18        45.28792
651.61        45.75499
652.03        46.26229
652.46        46.73361
652.89        47.17498
653.32         47.5882
653.74        48.02885
654.17        48.27738
654.60        49.09492
655.03        49.20403
655.46        49.15926
655.88        49.58108
656.31        50.62761
656.74        51.27538
657.16        53.69047
657.59        55.76632
658.02        52.85082
658.45        53.52328
658.87        53.49349
659.30        53.66152
659.73        53.92795
660.15        54.90781
660.58         54.3776
661.01        54.64388
661.44        55.03226
661.86        55.10388
662.29        54.86749
662.72        55.36978
663.14        55.55509
663.57         55.8003
664.00        55.86048
664.42        56.16639
664.85        56.72729
665.27        57.35958
665.70        57.91133
666.13        58.20129
666.55         58.1797
666.98        58.09937
667.41        57.62304
667.83        57.70663
668.26        57.67654
668.69        57.97585
669.11        58.35056
669.54        58.68159
669.96        58.93291
670.39        59.13533
670.82        59.32758
671.24        59.54096
671.67        59.77934
672.09        60.00083
672.52         60.2009
672.94        60.35535
673.37         60.4652
673.80        60.52214
674.22        60.56453
674.65        60.63589
675.07        60.76549
675.50         60.9233
675.92        61.09897
676.35          61.266
676.77        61.41582
677.20        61.55587
677.62        61.70108
678.05        61.84102
678.47         62.0294
678.90        62.22198
679.32        62.40437
679.75        62.54205
680.17        62.62735
680.60        62.67337
681.02        62.72495
681.45        62.85491
681.87        63.08899
682.30        63.37833
682.72        63.67883
683.15        63.92162
683.57        64.07409
684.00        64.05041
684.42        63.94498
684.85        64.01302
685.27        64.28127
685.70        64.62397
686.12        64.93358
686.54        65.15099
686.97        65.25539
687.39        65.04838
687.82        65.02047
688.24        64.93519
688.66        64.95985
689.09        65.02364
689.51        65.14682
689.94        65.38561
690.36        65.69776
690.78        65.92815
691.21        66.07484
691.63        66.25085
692.06        66.45795
692.48        66.62985
692.90        66.73551
693.33        66.77405
693.75        66.74566
694.17        66.62609
694.60        66.52706
695.02        66.62099
695.44        66.91155
695.87        67.40259
696.29        67.92762
696.71        67.93183
697.14        67.51073
697.56        67.37798
697.98        67.61377
698.41        67.78442
698.83        67.89246
699.25        68.27578
699.68        68.77814
700.10        69.02125
700.52        68.92415
700.94        68.61814
701.37        68.28059
701.79        68.20287
702.21        68.44827
702.64        68.90204
703.06        69.42981
703.48         69.7965
703.90        69.92788
704.33        69.90086
704.75        69.78047
705.17        69.66035
705.59        69.59235
706.01         69.5478
706.44        69.55097
706.86         69.6787
707.28        69.92228
707.70        70.22315
708.12        70.54053
708.55        70.88305
708.97        71.18299
709.39        71.23659
709.81        71.08781
710.23        71.03648
710.66         71.1185
711.08        71.19394
711.50        71.22135
711.92        71.22278
712.34        71.19865
712.76        71.16392
713.19        71.13626
713.61        71.17826
714.03        71.28867
714.45        71.45705
714.87        71.67822
715.29         71.9484
715.71        72.25018
716.13        72.55897
716.56        72.82797
716.98        73.07927
717.40        73.25974
717.82        73.37388
718.24        73.38079
718.66        73.21883
719.08        72.91423
719.50         72.5259
719.92         72.1796
720.34        72.05939
720.76        72.20071
721.19        72.52795
721.61        73.01476
722.03        73.46505
722.45        73.78754
722.87        74.17029
723.29        74.58855
723.71        74.13284
724.13        74.19843
724.55        73.70815
724.97        73.22298
725.39        72.95766
725.81        72.99062
726.23        73.23499
726.65        73.57164
727.07         73.9808
727.49        74.14149
727.91        74.34248
728.33        74.53638
728.75        74.74913
729.17        74.99196
729.59        75.22836
730.01        75.37354
730.43        75.43118
730.85        75.41834
731.27        74.95338
731.69        74.57063
732.10        74.71519
732.52        74.58071
732.94        74.64694
733.36        74.61977
733.78        74.61315
734.20        74.60566
734.62        74.49963
735.04        74.95228
735.46        74.38196
735.88        75.16291
736.30        75.42629
736.72        75.79166
737.13        76.12334
737.55        76.29288
737.97        76.49022
738.39          76.627
738.81         76.0377
739.23        75.25638
739.65         75.2709
740.06        76.02973
740.48        76.41792
740.90        76.36757
741.32        76.35032
741.74         76.7566
742.16        76.98654
742.57        77.12196
742.99        77.28464
743.41        77.41337
743.83        77.22106
744.25        76.78903
744.67        76.53072
745.08        76.52589
745.50        76.53704
745.92        76.58111
746.34         76.8246
746.75        77.17589
747.17        77.36208
747.59        77.35243
748.01        77.23666
748.42        77.06223
748.84        76.97066
749.26        77.00945
749.68        76.93706
750.09        76.82289
750.51        77.20913
750.93        77.86863
751.35        77.84055
751.76        77.21632
752.18        76.76522
752.60        76.92625
753.01        76.82794
753.43        76.59038
753.85        76.50113
754.27        76.58249
754.68        76.81767
755.10        77.12707
755.52        77.25999
755.93        77.23162
756.35        77.34294
756.77         77.6178
757.18        77.80495
757.60        77.92113
758.02        78.19977
758.43        78.43646
758.85        78.37498
759.26        77.97443
759.68        77.33555
760.10        76.62507
760.51         77.5491
760.93        78.36801
761.34        78.41109
761.76        78.94881
762.18        78.60136
762.59        78.19364
763.01        78.40947
763.42        79.26452
763.84        79.67291
764.26        79.42583
764.67        79.24096
765.09        78.34859
765.50        78.28157
765.92        78.70885
766.33        78.86281
766.75        78.58897
767.16          78.469
767.58        78.50945
768.00        78.29886
768.41        78.04866
768.83        78.54572
769.24        79.45429
769.66        79.83979
770.07        79.21192
770.49        78.49117
770.90         77.9504
771.32        78.62303
771.73         80.1759
772.15        80.80385
772.56        80.38132
772.97        79.81165
773.39        79.34798
773.80        79.43448
774.22        79.53678
774.63        79.68034
775.05        79.59737
775.46        79.61861
775.88        79.68932
776.29        79.61128
776.70        79.46384
777.12         79.5181
777.53        79.81388
777.95        80.20845
778.36        80.59785
778.77        80.77034
779.19        80.70102
779.60        80.49027
780.02        80.20943
780.43        80.06499
780.84        80.14263
781.26        80.03056
781.67        79.86031
782.09        80.62554
782.50        81.92113
782.91        81.84743
783.33        80.60217
783.74        80.10225
784.15        80.42618
784.57        80.77395
784.98        81.05518
785.39        80.59828
785.81        80.17207
786.22        80.96976
786.63        81.73264
787.04        82.25822
787.46        82.09778
787.87        81.89137
788.28        81.77715
788.70        81.69147
789.11        81.66521
789.52         81.8289
789.93        82.06075
790.35        81.96798
790.76         81.6077
791.17         81.4109
791.58        81.48688
792.00         81.5897
792.41        81.65615
792.82        82.09284
793.23        82.28513
793.65        81.89413
794.06        81.09315
794.47        81.10294
794.88        81.75303
795.29        82.45322
795.71         81.8423
796.12        81.83595
796.53        82.10018
796.94        82.14294
797.35        82.02278
797.76        82.29869
798.18        82.85521
798.59        83.10123
799.00        82.95989
799.41        82.72631
799.82        82.52222
800.23        82.43557
800.64        82.50842
801.06        82.67171
801.47        82.87792
801.88        82.94435
802.29        82.81183
802.70         82.5173
803.11        82.14127
803.52        81.81629
803.93        81.62645
804.34        81.58421
804.75        81.62814
805.17         81.7795
805.58        82.09022
805.99        82.11261
806.40         81.8467
806.81         83.0845
807.22         85.1721
807.63        85.05133
808.04        83.03902
808.45        82.29008
808.86        83.02521
809.27        83.49075
809.68         83.4606
810.09        83.41164
810.50        83.30251
810.91        83.01833
811.32        82.74087
811.73        82.74756
812.14        83.08619
812.55        83.70301
812.96         84.3791
813.37        84.65182
813.78        84.41457
814.19        83.89761
814.60        83.29128
815.01        82.79028
815.42        82.46553
815.83        82.27488
816.24        82.21149
816.65        82.24529
817.05        82.36459
817.46        82.56561
817.87        82.80287
818.28        82.93408
818.69         82.9344
819.10        82.81335
819.51        82.69426
819.92        82.81185
820.33        83.20898
820.74        83.79823
821.14        84.39896
821.55        84.71842
821.96        84.68822
822.37        84.39438
822.78        83.98264
823.19        83.70344
823.60        83.64191
824.00        83.75932
824.41        83.91355
824.82        83.99529
825.23        83.95167
825.64        83.83404
826.04        83.70005
826.45        83.58192
826.86        83.51834
827.27        83.50471
827.68        83.50966
828.08        83.51449
828.49        83.45943
828.90        83.37759
829.31        83.35715
829.72        83.54327
830.12        83.97718
830.53        84.52716
830.94        85.03743
831.35        85.19207
831.75         84.9298
832.16        84.32902
832.57        83.58831
832.97         82.9962
833.38          82.662
833.79         82.5061
834.20         82.5182
834.60        82.66777
835.01        82.92686
835.42         83.3571
835.82        83.86764
836.23        84.18993
836.64        84.29413
837.04        84.18782
837.45        84.08945
837.86        84.45305
838.26        85.37552
838.67        86.65434
839.08        87.86232
839.48         88.1963
839.89        87.45776
840.29        85.95861
840.70        84.35706
841.11        83.37154
841.51        83.20569
841.92        83.63985
842.33        84.43591
842.73        85.16824
843.14        85.53746
843.54        85.71033
843.95        85.80619
844.35        86.08423
844.76        86.56329
845.17         87.1273
845.57         87.5535
845.98        87.47244
846.38        86.85634
846.79        85.84235
847.19        84.76513
847.60        84.11915
848.00        84.05246
848.41        84.40147
848.81        84.95916
849.22        85.26426
849.62        85.22735
850.03        84.96665
850.43         84.6375
850.84         84.4054
851.24        84.38925
851.65        84.43282
852.05        84.61736
852.46        84.95214
852.86        85.39671
853.27        85.93343
853.67        86.33138
854.07        86.41094
854.48        86.12226
854.88        85.56325
855.29        84.83332
855.69        84.29871
856.10        84.00858
856.50        83.97614
856.90        84.10349
857.31        84.23957
857.71        84.38134
858.12        84.48191
858.52        84.59158
858.92        84.65311
859.33        84.63094
859.73        84.58168
860.13        84.42196
860.54        84.05663
860.94         83.5553
861.34         82.9571
861.75         82.4433
862.15        82.35664
862.55        82.72932
862.96        83.39541
863.36        84.20223
863.76        84.77142
864.17        84.94756
864.57        84.86382
864.97        84.47752
865.38         83.7413
865.78        82.75082
866.18        81.53983
866.58        80.41879
866.99        79.94336
867.39        80.27757
867.79         81.2398
868.19        82.49153
868.60        83.47014
869.00         84.0401
869.40        84.31097
869.80         84.3374
870.21        84.25417
870.61        84.20335
871.01        84.05586
871.41        83.83356
871.81        83.58685
872.22        83.31493
872.62        83.03976
873.02        82.78375
873.42        82.54383
873.82        82.32736
874.22         82.1477
874.63        81.97662
875.03        81.78504
875.43        81.55934
875.83        81.31579
876.23        81.11832
876.63        81.06098
877.03         81.1662
877.44        81.38995
877.84        81.68104
878.24        81.92318
878.64        82.03875
879.04        81.94666
879.44        81.79093
879.84        81.86035
880.24        82.16888
880.64         82.6095
881.04         82.9032
881.44        82.61078
881.84        81.67902
882.24        80.30138
882.65        78.89135
883.05        78.07079
883.45        78.00545
883.85         78.5289
884.25        79.36197
884.65        80.00799
885.05        80.28989
885.45         80.3405
885.85        80.28754
886.25        80.33593
886.65        80.54229
887.05        80.80428
887.45        81.05651
887.85        81.21686
888.25        81.25603
888.65         81.2246
889.04        81.14015
889.44        81.05223
889.84        80.96141
890.24        80.83971
890.64        80.71435
891.04         80.6386
891.44        80.61446
891.84        80.64185
892.24        80.63789
892.64        80.45654
893.04        80.10959
893.44        79.69428
893.83        79.36813
894.23        79.32922
894.63         79.6457
895.03        80.18914
895.43        80.92242
895.83        81.79031
896.23        82.68444
896.63        83.56756
897.02         84.1438
897.42         83.9856
897.82          83.072
898.22        81.61666
898.62        80.04369
899.01        78.97941
899.41        78.61594
899.81        78.77031
900.21        79.27572
900.61          79.834
901.00        80.30018
901.40        80.73213
901.80        81.05975
902.20        81.16338
902.59        81.04771
902.99        80.72324
903.39        80.28761
903.79        79.92956
904.18        79.71097
904.58        79.60104
904.98        79.65529
905.38        79.95152
905.77        80.47459
906.17        81.22182
906.57        81.95078
906.96        82.25364
907.36        82.02811
907.76        81.39516
908.15        80.72573
908.55        80.60131
908.95        81.15038
909.34        82.19047
909.74        83.29553
910.14        83.86208
910.53        83.69202
910.93        83.02168
911.33        82.07275
911.72        81.16451
912.12        80.51199
912.52        80.03454
912.91        79.75768
913.31        79.75564
913.70        80.01186
914.10        80.47727
914.49        81.13916
914.89        81.84101
915.29         82.5195
915.68        83.17804
916.08        83.59958
916.47        83.55024
916.87        83.03225
917.26         82.1066
917.66        81.16558
918.05        80.63251
918.45         80.6127
918.84        81.05147
919.24         81.6345
919.64        81.94497
920.03        81.87413
920.42        81.51189
920.82         81.1568
921.21        81.21425
921.61        81.74529
922.00        82.64997
922.40        83.58376
922.79        84.12782
923.19        84.10205
923.58        83.65715
923.98         83.0618
924.37        82.62546
924.77        82.46269
925.16        82.44821
925.55        82.47498
925.95        82.34199
926.34        82.02477
926.74        81.59088
927.13         81.1233
927.52        80.66051
927.92        80.29065
928.31        79.99696
928.70        79.82137
929.10        79.79439
929.49        79.89904
929.89        80.04774
930.28        80.35562
930.67        80.88454
931.07        81.57021
931.46        82.45161
931.85         83.1451
932.24        83.10121
932.64        82.29889
933.03        80.89604
933.42        79.52063
933.82        79.07913
934.21        79.75113
934.60        81.32755
934.99        83.19812
935.39        84.24154
935.78        84.17352
936.17        83.21215
936.56         81.9372
936.96        81.26691
937.35        81.43545
937.74         82.1459
938.13        82.90599
938.53        82.97886
938.92        82.20932
939.31        80.92101
939.70        79.56589
940.09        78.75307
940.49         78.5985
940.88        78.94514
941.27        79.56877
941.66        80.05747
942.05        80.27303
942.44        80.38406
942.84        80.49074
943.23        80.73101
943.62        81.14697
944.01         81.5907
944.40        82.11137
944.79        82.83932
945.18        83.72479
945.57         84.7085
945.97        85.38241
946.36        85.18736
946.75        84.01028
947.14        82.15133
947.53        80.16523
947.92        78.82166
948.31        78.32455
948.70        78.49577
949.09        79.10945
949.48         79.7487
949.87        80.23328
950.26        80.64314
950.65        81.03522
951.04        81.50842
951.43        82.05656
951.82        82.57783
952.21         82.9067
952.60          82.829
952.99        82.35538
953.38        81.63189
953.77        80.91267
954.16        80.58183
954.55        80.72518
954.94        81.19129
955.33         81.8772
955.72        82.57671
956.11        83.15993
956.50        83.69845
956.89        83.94219
957.28        83.49242
957.66        82.34693
958.05        80.71928
958.44        79.18025
958.83        78.55624
959.22        78.98917
959.61        80.25764
960.00        81.87128
960.39        82.87754
960.78        82.93367
961.16        82.28397
961.55        81.36742
961.94        80.73434
962.33        80.56413
962.72        80.72582
963.11         81.0326
963.49        81.20283
963.88        81.04271
964.27        80.66222
964.66        80.40649
965.04        80.79518
965.43        81.84709
965.82        83.48544
966.21        85.02222
966.60        85.16106
966.98        83.59872
967.37        80.90083
967.76        78.20646
968.15        76.95559
968.53        77.39612
968.92        79.16515
969.31         81.4467
969.69        82.58823
970.08         81.9572
970.47        80.14275
970.86        78.17264
971.24        77.47791
971.63        78.37337
972.02        80.42984
972.40        82.93972
972.79        84.18052
973.17        83.64993
973.56        81.93135
973.95        79.87718
974.33        78.57028
974.72        78.25755
975.11        78.57309
975.49        79.16012
975.88        79.27013
976.26        78.74745
976.65        77.85057
977.04         76.8972
977.42        76.28463
977.81        76.09111
978.19        76.13055
978.58        76.41676
978.96        76.96873
979.35        77.68105
979.74        78.57226
980.12         79.4163
980.51        79.54691
980.89        78.99593
981.28        77.97094
981.66         76.9187
982.05          76.479
982.43         76.8046
982.82        77.65652
983.20        79.03352
983.59        80.72141
983.97        82.61714
984.35        84.71161
984.74        86.36947
985.12        86.81799
985.51        85.86638
985.89        83.76495
986.28        81.49434
986.66        80.47594
987.04        81.10741
987.43        83.02374
987.81        85.46233
988.20        86.69253
988.58        86.19923
988.96        84.41515
989.35        82.24908
989.73        80.97204
990.12        80.86475
990.50        81.57282
990.88        82.41867
991.27        82.26334
991.65        80.87673
992.03        78.75429
992.42        76.73911
992.80        75.87033
993.18        76.39686
993.56         78.0061
993.95        80.01275
994.33        81.35334
994.71         81.4681
995.10        80.76174
995.48        79.76378
995.86        79.38185
996.24        79.82958
996.63        80.62865
997.01        81.62582
997.39        82.11804
997.77        81.82636
998.15        81.16463
998.54        80.15124
998.92        78.59749
999.30        76.72765
999.68        74.64376
1000.06          73.131
1000.45        73.28445
1000.83        75.37299
1001.21        79.22587
1001.59        83.88199
1001.97        86.90127
1002.35        87.24992
1002.73        85.55585
1003.12        83.17384
1003.50        81.82838
1003.88        82.06483
1004.26        83.28437
1004.64         85.0515
1005.02        86.43245
1005.40         86.9396
1005.78        87.03167
1006.16        86.56091
1006.54        85.20496
1006.92        83.17311
1007.30        80.66812
1007.69        78.54841
1008.07        77.88316
1008.45        78.99049
1008.83        81.53163
1009.21        84.89678
1009.59        87.41171
1009.97        88.07285
1010.35        87.31999
1010.73        85.20267
1011.11        81.87529
1011.49        77.90972
1011.86        73.60135
1012.24        70.05742
1012.62        68.63094
1013.00        69.50401
1013.38        72.40467
1013.76        76.67503
1014.14        80.32393
1014.52        82.11124
1014.90        82.26788
1015.28        81.24483
1015.66        79.90054
1016.04         78.6085
1016.41         77.1908
1016.79        75.68256
1017.17        74.40646
1017.55        73.50845
1017.93        72.95065
1018.31        72.97735
1018.69          73.835
1019.06        75.54286
1019.44        78.19302
1019.82        80.74997
1020.20        80.90044
1020.58        78.04488
1020.95         72.9833
1021.33        68.16712
1021.71        66.24642
1022.09        67.57658
1022.46        71.88282
1022.84        77.45119
1023.22        79.93158
1023.60         77.6127
1023.97         71.8205
1024.35        66.11723
1024.73        64.62368
