SpectraSmart Spectrum 2.9.0.0
--------- Device Information -----------
Spectrum Name :  反射率_0
Saving Time :  2024/04/26 22:53:11
Spectro-Module Model Name : SE2030-DUVN
Spectro-Module Serial Number : OS361AC55029948
Wavelength Start : 200
Wavelength End : 1025
Wavelength Unit : Wavelength(nm)
Spectrum Unit : Reflectance(%)
-----------Spectrum Setting ------------
Integration Time : 20ms
Average : 10
Boxcar : 0
Background removal :  enabled
linearity correction :  enabled
SC :  disabled
Intensity correction :  disabled
DWT denoise :  enabled
savitzky-golay :  disabled
FFT :  disabled
Running average :  disabled
Kalman :  disabled
High pass :  disabled
---------------BEGIN--------------------
Wavelength(nm)             Reflectance(%)
200.29               0
200.75        44.52035
201.21        47.92104
201.67        51.41589
202.13         53.2302
202.58         53.2584
203.04        52.48784
203.50        51.80943
203.96        53.17313
204.42        57.76138
204.88         64.9243
205.34        72.62893
205.80        77.57549
206.26        78.50615
206.72        76.00455
207.18        72.63132
207.64        70.68647
208.10         70.4093
208.55        72.31445
209.01        74.06441
209.47        70.16606
209.93        61.59986
210.39        53.66001
210.85        49.88285
211.31        51.96703
211.77        61.21106
212.23        84.40165
212.69        144.5183
213.14        249.7235
213.60        253.3657
214.06        185.0188
214.52        136.2042
214.98        112.8756
215.44        101.3019
215.90        92.65649
216.36        86.62621
216.81        84.38874
217.27        86.57946
217.73         95.9566
218.19        110.6425
218.65        115.7919
219.11        106.6984
219.57        92.73767
220.02        84.27084
220.48        87.71181
220.94        102.7873
221.40        131.3738
221.86        172.7292
222.32        200.2171
222.77        190.3289
223.23        160.8761
223.69        131.5378
224.15         113.354
224.61        104.5896
225.06        100.0023
225.52        98.49627
225.98        98.63555
226.44        99.79704
226.90        102.4948
227.36        105.5583
227.81        106.6825
228.27        105.7255
228.73        103.1436
229.19        100.8448
229.65        101.2325
230.10        104.2567
230.56        109.0947
231.02        113.6426
231.48        114.6057
231.93         111.554
232.39        106.5244
232.85        101.4655
233.31        98.89489
233.77        99.09575
234.22        101.0548
234.68        103.9112
235.14        106.4299
235.60        108.0968
236.05        109.4698
236.51        110.0336
236.97        109.0623
237.43        106.4587
237.88         102.338
238.34        97.87921
238.80        95.45345
239.26         95.9103
239.71        99.95664
240.17        106.4196
240.63         111.978
241.08        114.5043
241.54        113.1228
242.00         111.106
242.46        115.8158
242.91         132.433
243.37        163.9241
243.83         210.028
244.28        245.6882
244.74         237.197
245.20        188.1623
245.66        132.3784
246.11        97.25212
246.57        82.76053
247.03        80.78899
247.48         84.9491
247.94        85.44889
248.40        81.14812
248.85        76.17838
249.31        73.41691
249.77         74.3313
250.22        78.71562
250.68        85.89193
251.14        94.37386
251.59        98.38962
252.05         95.0507
252.51        88.08039
252.96          80.215
253.42        74.27416
253.88         70.5612
254.33        67.79645
254.79        67.76571
255.25        71.74049
255.70         78.9606
256.16        88.67912
256.62         96.8503
257.07        97.31992
257.53        91.96389
257.99        84.71401
258.44        78.77486
258.90         77.1043
259.35        78.38526
259.81        81.50482
260.27        84.70844
260.72        85.89874
261.18        85.26595
261.63        83.39022
262.09        81.70663
262.55        81.02874
263.00        81.20114
263.46        81.99516
263.91        82.49025
264.37        82.02567
264.83        80.54895
265.28        78.43746
265.74        76.57944
266.19         75.6257
266.65        75.74136
267.11        76.49234
267.56         77.3887
268.02        77.67653
268.47        77.13763
268.93        76.09678
269.38         74.7512
269.84        73.49666
270.30        72.44315
270.75        71.42364
271.21        70.56153
271.66        69.96389
272.12        69.61419
272.57        69.44876
273.03        69.18472
273.48        68.31377
273.94        66.86295
274.39        64.98515
274.85        63.13288
275.31        61.71722
275.76        60.78231
276.22        60.23355
276.67        59.84138
277.13        59.45368
277.58        58.90453
278.04        58.29288
278.49        57.53365
278.95        56.68309
279.40        55.69216
279.86        54.68155
280.31        53.58927
280.77        52.52147
281.22        51.44635
281.68        50.45676
282.13        49.58658
282.59        49.03028
283.04        48.71778
283.50        48.61205
283.95        48.51012
284.41        48.13913
284.86        47.43412
285.32        46.53015
285.77        45.56695
286.22        44.83437
286.68        44.38239
287.13        44.07583
287.59        43.81678
288.04        43.38636
288.50        42.78216
288.95        42.04855
289.41        41.30843
289.86        40.63349
290.32         40.0975
290.77        39.63824
291.22        39.24718
291.68        38.89395
292.13        38.54599
292.59        38.23103
293.04         37.9606
293.50        37.78265
293.95        37.68899
294.40        37.66593
294.86        37.66763
295.31        37.61153
295.77        37.49549
296.22        37.33891
296.68        37.20728
297.13        37.17762
297.58        37.27586
298.04        37.47625
298.49         37.7317
298.95        37.98959
299.40        38.21704
299.85        38.42854
300.31        38.63357
300.76        38.83117
301.21        39.02525
301.67        39.22135
302.12        39.38745
302.58        39.54686
303.03        39.67253
303.48        39.78266
303.94         39.8969
304.39        40.00214
304.84        40.11019
305.30        40.23147
305.75        40.33086
306.20        40.41431
306.66        40.49429
307.11        40.56095
307.57        40.62981
308.02         40.6685
308.47        40.68879
308.93        40.70021
309.38        40.71905
309.83        40.82637
310.29        41.02453
310.74        41.27592
311.19        41.49616
311.65        41.54327
312.10        41.38404
312.55        41.06818
313.00        40.69971
313.46        40.43277
313.91        40.29493
314.36        40.25771
314.82        40.25261
315.27        40.17962
315.72        40.00599
316.18        39.77158
316.63        39.52638
317.08        39.36253
317.53        39.29518
317.99        39.28668
318.44        39.26833
318.89        39.12053
319.35        38.82064
319.80        38.40972
320.25        37.97875
320.70        37.67237
321.16         37.5219
321.61        37.49478
322.06        37.50328
322.51        37.40541
322.97        37.15734
323.42        36.80756
323.87        36.43283
324.32        36.16289
324.78         36.0189
325.23        35.98166
325.68        35.95683
326.13        35.79962
326.59        35.47815
327.04         35.0571
327.49        34.63534
327.94        34.36902
328.39        34.28928
328.85        34.32836
329.30        34.43072
329.75        34.42839
330.20        34.27087
330.66        34.00412
331.11        33.70018
331.56        33.44719
332.01        33.27533
332.46        33.14428
332.92        33.02845
333.37        32.94206
333.82         32.8598
334.27        32.80066
334.72        32.73096
335.17        32.58506
335.63        32.35662
336.08        32.08424
336.53        31.83932
336.98        31.75628
337.43        31.86007
337.88        32.09328
338.34        32.37704
338.79        32.60895
339.24         32.7251
339.69        32.75806
340.14        32.67984
340.59        32.45348
341.05        32.11217
341.50         31.6778
341.95        31.27442
342.40        31.09196
342.85        31.16556
343.30        31.43677
343.75        31.79491
344.20        32.04905
344.66        32.13802
345.11        32.11049
345.56        32.00206
346.01        31.87627
346.46        31.76872
346.91        31.66307
347.36        31.58177
347.81        31.56779
348.26        31.62261
348.72        31.73233
349.17        31.86759
349.62        31.98927
350.07        32.07589
350.52        32.13529
350.97        32.12886
351.42        32.00264
351.87        31.76004
352.32        31.42347
352.77        31.08363
353.22        30.87042
353.67        30.81083
354.13        30.88035
354.58        30.98872
355.03        30.98211
355.48        30.82221
355.93         30.5481
356.38        30.27068
356.83        30.15809
357.28        30.23302
357.73        30.43297
358.18        30.61604
358.63        30.55632
359.08         30.2107
359.53        29.66691
359.98        29.07742
360.43        28.66443
360.88        28.47985
361.33        28.45312
361.78        28.48803
362.23        28.43236
362.68        28.24142
363.13        27.96651
363.58        27.66064
364.03         27.3995
364.48         27.2044
364.93        27.04659
365.38        26.89588
365.83        26.71162
366.28        26.48741
366.73        26.24478
367.18        26.01739
367.63        25.85164
368.08        25.75449
368.53        25.70617
368.98        25.67154
369.43        25.59542
369.88        25.46267
370.33        25.28971
370.78        25.09673
371.23        24.92153
371.68        24.77587
372.13        24.64226
372.58        24.51948
373.03        24.40511
373.48         24.2935
373.93        24.19127
374.38        24.07104
374.83         23.8885
375.28         23.6426
375.72        23.34303
376.17        23.06132
376.62        22.87561
377.07        22.80107
377.52        22.81567
377.97        22.85725
378.42        22.82617
378.87        22.69815
379.32        22.49858
379.77        22.29407
380.22        22.18209
380.67        22.17813
381.11        22.25874
381.56         22.3319
382.01        22.26796
382.46        22.04646
382.91        21.72571
383.36        21.41024
383.81        21.24149
384.26        21.24029
384.71        21.35491
385.15         21.5075
385.60        21.57102
386.05        21.50614
386.50        21.35634
386.95        21.16409
387.40         20.9952
387.85        20.87469
388.29        20.76898
388.74        20.69862
389.19        20.64499
389.64        20.60065
390.09        20.56818
390.54        20.54032
390.98        20.49667
391.43        20.44544
391.88        20.38821
392.33        20.32718
392.78        20.26671
393.23        20.21041
393.67        20.14898
394.12        20.10997
394.57        20.09425
395.02        20.10035
395.47         20.1182
395.91        20.14256
396.36        20.15207
396.81        20.15067
397.26        20.14584
397.71        20.12553
398.15        20.08606
398.60        20.05364
399.05         19.9466
399.50        19.81228
399.95        19.86518
400.39        20.04653
400.84        19.98888
401.29        19.70486
401.74        19.52666
402.18        19.47657
402.63        19.35888
403.08         19.2045
403.53        19.14579
403.97        19.19129
404.42        19.30538
404.87        19.43736
405.32          19.503
405.76        19.47803
406.21        19.39448
406.66        19.29952
407.11        19.27131
407.55        19.33299
408.00        19.45044
408.45        19.57783
408.90        19.62545
409.34        19.56656
409.79         19.4355
410.24        19.28522
410.68        19.18207
411.13        19.14897
411.58        19.16776
412.03        19.20291
412.47        19.19654
412.92        19.12812
413.37        19.02349
413.81        18.92738
414.26        18.91851
414.71        19.00285
415.15         19.1657
415.60        19.33839
416.05        19.41879
416.49        19.37969
416.94        19.24639
417.39        19.09869
417.83        19.05936
418.28        19.15315
418.73        19.33921
419.17        19.53839
419.62        19.62424
420.07         19.5675
420.51         19.4088
420.96        19.22305
421.41        19.11856
421.85        19.11543
422.30        19.17078
422.74        19.22915
423.19        19.29951
423.64        19.33572
424.08        19.24048
424.53        19.06114
424.98        19.02425
425.42        19.16746
425.87         19.3336
426.31        19.46446
426.76        19.61521
427.21        19.70638
427.65        19.49147
428.10        19.10364
428.54        18.94787
428.99        19.07207
429.44        19.34678
429.88        19.63699
430.33        19.65984
430.77        19.44557
431.22        19.39751
431.66        19.53553
432.11        19.56253
432.56        19.49368
433.00          19.565
433.45        19.67602
433.89        19.55292
434.34        19.31106
434.78         18.7962
435.23        19.11485
435.67        19.15389
436.12        19.18903
436.57        19.20983
437.01          19.215
437.46        19.23176
437.90        19.24516
438.35        19.19978
438.79        19.10974
439.24        19.06211
439.68        19.06917
440.13        19.10386
440.57        19.16282
441.02         19.2599
441.46         19.3797
441.91        19.45977
442.35        19.48313
442.80        19.62127
443.24        19.78995
443.69        19.67029
444.13        19.32527
444.58        19.15825
445.02        19.19656
445.47        19.23534
445.91        19.25081
446.36        19.29663
446.80        19.35463
447.24        19.41297
447.69        19.45406
448.13        19.43935
448.58         19.3716
449.02        19.26426
449.47        19.15178
449.91        19.07964
450.36        19.06741
450.80         19.0962
451.25        19.16102
451.69        19.24039
452.13        19.32309
452.58        19.40537
453.02        19.46963
453.47        19.49083
453.91        19.46495
454.36        19.40547
454.80        19.31635
455.24        19.20624
455.69        19.09347
456.13        18.96815
456.58        18.88177
457.02        18.87843
457.46        18.96756
457.91        19.13084
458.35        19.29053
458.79        19.32808
459.24        19.23804
459.68        19.04777
460.13        18.85513
460.57        18.75953
461.01        18.79823
461.46        18.92191
461.90        19.08835
462.34        19.21066
462.79         19.2528
463.23        19.24833
463.68        19.20178
464.12          19.133
464.56        19.05209
465.01        18.97499
465.45        18.89277
465.89        18.84791
466.34        18.84416
466.78        18.87075
467.22        18.92015
467.67        18.95701
468.11        18.98189
468.55        18.99446
468.99        19.00247
469.44        19.01778
469.88        19.04375
470.32        19.07048
470.77        19.09511
471.21         19.1182
471.65        19.13555
472.10        19.15153
472.54        19.15368
472.98        19.12874
473.42        19.07862
473.87        19.01749
474.31         18.9546
474.75        18.92186
475.20        18.92995
475.64        18.96157
476.08        19.01026
476.52        19.05516
476.97         19.0886
477.41        19.12422
477.85        19.16354
478.29        19.18139
478.74         19.1926
479.18         19.2448
479.62         19.3225
480.06        19.37033
480.50        19.38771
480.95        19.38057
481.39        19.34059
481.83        19.44334
482.27         19.4022
482.72        19.44187
483.16         19.4887
483.60        19.51304
484.04        19.49312
484.48        19.58237
484.93        19.79329
485.37        19.59559
485.81        19.61385
486.25        19.91195
486.69        19.35854
487.14        19.73083
487.58        20.29528
488.02        20.23095
488.46        20.11027
488.90        20.02813
489.34        20.24909
489.79         20.4487
490.23        20.55284
490.67        20.64319
491.11         20.6977
491.55        20.68009
491.99        20.62349
492.43        20.61533
492.88        20.67413
493.32         20.7603
493.76        20.86275
494.20        20.99272
494.64        21.14951
495.08        21.28705
495.52        21.39305
495.96        21.58735
496.41        21.81917
496.85        21.76381
497.29        21.49614
497.73        21.63423
498.17        21.87074
498.61        22.05208
499.05        22.05636
499.49        22.10088
499.93         22.1423
500.37        22.29466
500.82        22.51123
501.26        22.65426
501.70        22.70794
502.14         22.7611
502.58        22.83584
503.02        22.92188
503.46        23.02366
503.90        23.14198
504.34        23.25703
504.78         23.3356
505.22         23.3696
505.66        23.36935
506.10        23.35213
506.54         23.3461
506.98        23.36073
507.42        23.38932
507.86         23.4275
508.30        23.46695
508.74        23.50561
509.18        23.54958
509.62        23.59842
510.06        23.65041
510.50        23.70481
510.94         23.7576
511.38        23.81485
511.82        23.88728
512.26        23.97459
512.70        24.07365
513.14        24.16482
513.58        24.21712
514.02        24.22524
514.46        24.19716
514.90        24.16172
515.34        24.16624
515.78        24.21978
516.22        24.30689
516.66        24.39492
517.10        24.43098
517.54        24.40341
517.98        24.33202
518.42        24.24402
518.86         24.1822
519.30        24.16026
519.74        24.16464
520.18        24.18551
520.62        24.20714
521.06        24.22317
521.50        24.24056
521.93        24.25757
522.37          24.261
522.81        24.25278
523.25        24.23216
523.69        24.20824
524.13        24.19809
524.57        24.20228
525.01        24.21167
525.45        24.21444
525.89         24.1913
526.32        24.13556
526.76        24.06331
527.20        23.97545
527.64         23.8752
528.08        23.76942
528.52        23.65902
528.96        23.56502
529.40        23.51943
529.83        23.52392
530.27        23.56851
530.71        23.61823
531.15         23.6189
531.59        23.55749
532.03        23.44858
532.46        23.31735
532.90        23.22127
533.34        23.17136
533.78        23.14073
534.22        23.11249
534.66        23.08887
535.09        23.04749
535.53        22.94541
535.97        22.81071
536.41        22.74491
536.85        22.75978
537.28        22.80568
537.72        22.86623
538.16        22.93255
538.60        22.99398
539.04        23.05162
539.47        23.10183
539.91        23.15446
540.35        23.20692
540.79        23.25789
541.22        23.30567
541.66        23.35739
542.10        23.41139
542.54        23.46663
542.97        23.52421
543.41        23.59502
543.85        23.67725
544.29        23.77262
544.72        23.86585
545.16        23.94944
545.60        24.01854
546.04        24.08001
546.47        24.15697
546.91        24.28178
547.35        24.45628
547.79        24.66905
548.22        24.88606
548.66        25.05067
549.10        25.18139
549.53        25.28149
549.97        25.37736
550.41        25.45568
550.84        25.55116
551.28        25.71822
551.72        25.91507
552.15        26.09598
552.59        26.28191
553.03        26.10807
553.46        26.37093
553.90         26.4021
554.34        26.43961
554.77        26.47759
555.21        26.54848
555.65        26.68119
556.08         26.8645
556.52        27.07347
556.96        27.25669
557.39        27.40847
557.83        27.49568
558.27        27.38418
558.70        27.15439
559.14        27.09582
559.57        27.22032
560.01         27.3684
560.45        27.49305
560.88        27.60722
561.32        27.70817
561.75        27.76464
562.19        27.80551
562.63        27.86926
563.06        27.95778
563.50        28.05947
563.93        28.13342
564.37        28.19075
564.80        28.23927
565.24        28.21735
565.68        28.09021
566.11        28.41134
566.55        28.16811
566.98        28.19927
567.42        28.25032
567.85         28.3649
568.29        28.54759
568.72        28.80714
569.16        29.13553
569.60        29.28921
570.03        29.35242
570.47        29.45388
570.90        29.68291
571.34        29.33414
571.77        29.74565
572.21        29.91755
572.64         30.0115
573.08        30.23212
573.51        30.22175
573.95        30.36026
574.38        30.58027
574.82        30.63958
575.25        30.33755
575.69        30.53722
576.12        30.64354
576.56        30.72563
576.99        30.67028
577.42        30.66343
577.86        30.87718
578.29        30.94263
578.73        30.91551
579.16          30.791
579.60        30.54429
580.03        30.56598
580.47        30.45852
580.90        30.65394
581.33        30.56129
581.77        30.75994
582.20        30.00431
582.64        30.15754
583.07        29.98639
583.51        30.01748
583.94        30.03138
584.37        30.00828
584.81        29.92948
585.24        29.71874
585.68        29.50583
586.11        29.34405
586.54        29.39018
586.98        29.37704
587.41        29.38091
587.85        29.29098
588.28        29.15072
588.71        29.21667
589.15        29.10848
589.58        29.18073
590.01        29.27035
590.45        29.13479
590.88         29.0883
591.31        28.98327
591.75        28.99106
592.18        29.11105
592.61        29.24317
593.05        29.55709
593.48        29.65354
593.91        29.14198
594.35         29.3043
594.78        29.26703
595.21        29.42276
595.65         29.6391
596.08        29.94243
596.51        30.02163
596.94        29.96325
597.38        30.01844
597.81        30.23946
598.24        30.77266
598.68        31.06755
599.11         31.0439
599.54        31.52845
599.97        31.39873
600.41        31.89761
600.84        31.93644
601.27        32.28629
601.70        32.59066
602.14         32.9307
602.57        33.29649
603.00        33.72683
603.43        33.66849
603.87        34.43892
604.30        34.77679
604.73        35.01543
605.16        35.30388
605.60        35.76754
606.03        35.92088
606.46        35.81903
606.89        36.39407
607.32        37.32971
607.76         37.3074
608.19         37.9373
608.62        38.10419
609.05        38.41647
609.48        38.73558
609.92        39.56511
610.35        39.70128
610.78        39.55504
611.21        39.85521
611.64         40.1981
612.07        40.66087
612.50        40.84061
612.94        41.12719
613.37        41.44193
613.80        41.53093
614.23        41.48959
614.66        41.71598
615.09        42.27565
615.52        42.60437
615.96        42.68058
616.39        42.94209
616.82         43.3517
617.25        43.24775
617.68        43.53936
618.11        43.71536
618.54        44.04396
618.97        44.31276
619.40        44.48706
619.84        44.80965
620.27        44.84497
620.70        44.94908
621.13        44.99437
621.56        44.92399
621.99        44.78387
622.42        44.77104
622.85        44.89894
623.28        44.97701
623.71         44.9896
624.14         45.2192
624.57        45.31937
625.00        45.40974
625.43        45.37396
625.86          45.311
626.29        45.19556
626.72        44.94618
627.15        44.86394
627.58        44.69645
628.01        44.52354
628.44        44.32535
628.87        44.10428
629.30        43.86658
629.73        43.62269
630.16        43.40674
630.59        43.22126
631.02        43.02042
631.45        42.77386
631.88         42.6036
632.31         42.2345
632.74        41.88734
633.17        41.49563
633.60        41.08882
634.03        40.67792
634.46        40.26303
634.89        39.84914
635.32        39.44387
635.75         39.0533
636.18        38.63722
636.61        38.22075
637.04        37.86322
637.47        37.56586
637.89        37.30426
638.32        37.03299
638.75        36.71772
639.18        36.35321
639.61        35.95824
640.04        35.57059
640.47        35.24504
640.90        34.99545
641.33        34.80841
641.76        34.66289
642.18        34.52812
642.61        34.38446
643.04        34.24686
643.47        34.13076
643.90        34.05927
644.33        34.03653
644.76        34.05442
645.18        34.09514
645.61        34.12181
646.04        34.13416
646.47        34.15022
646.90        34.19817
647.33        34.31486
647.75        34.49618
648.18        34.75723
648.61        35.09522
649.04        35.37867
649.47        35.56845
649.89        36.18906
650.32        36.41873
650.75        36.71373
651.18         36.8931
651.61        37.29391
652.03        37.90616
652.46        38.42133
652.89        38.83797
653.32        39.32736
653.74        39.88459
654.17        40.38853
654.60        40.72731
655.03        41.21513
655.46        41.48478
655.88        41.78942
656.31        42.71411
656.74        42.41981
657.16        44.18423
657.59         46.7157
658.02        44.75915
658.45         45.4674
658.87        45.33251
659.30        45.75497
659.73        46.02019
660.15        46.95807
660.58        46.81651
661.01        46.84079
661.44        46.75687
661.86        46.86644
662.29        47.15667
662.72         47.9486
663.14        48.23338
663.57        48.46121
664.00        48.46061
664.42        48.73463
664.85        49.31514
665.27        49.90645
665.70        50.36143
666.13         50.6341
666.55        50.69876
666.98        50.52439
667.41        50.22955
667.83        50.33323
668.26        50.36521
668.69        50.69179
669.11        51.08751
669.54        51.42984
669.96        51.67408
670.39        51.86853
670.82         52.0259
671.24        52.10798
671.67        52.13843
672.09        52.17622
672.52        52.24543
672.94        52.29435
673.37        52.33649
673.80        52.41101
674.22        52.52875
674.65        52.65057
675.07        52.78369
675.50        52.92491
675.92        53.06804
676.35        53.19428
676.77        53.30039
677.20        53.38453
677.62        53.46143
678.05        53.55121
678.47        53.65089
678.90        53.78718
679.32         53.9455
679.75        54.02995
680.17        54.01339
680.60        54.23832
681.02        54.16316
681.45        54.29021
681.87        54.46441
682.30         54.7069
682.72        54.96825
683.15        55.07803
683.57        55.06473
684.00        55.08874
684.42        55.19408
684.85        55.32566
685.27        55.48479
685.70        55.72979
686.12        55.99013
686.54        56.13941
686.97        56.16296
687.39        56.07631
687.82        55.92112
688.24        55.88995
688.66        56.03394
689.09        55.88067
689.51        56.17638
689.94        56.25181
690.36        56.32439
690.78         56.3865
691.21        56.46906
691.63        56.56388
692.06        56.66229
692.48         56.8287
692.90         57.0443
693.33        56.96777
693.75        57.06094
694.17         56.9864
694.60        56.94943
695.02        56.90051
695.44        56.89836
695.87        57.26316
696.29        57.83537
696.71         57.8119
697.14        57.29059
697.56        57.17504
697.98        57.50201
698.41        57.67078
698.83        57.67196
699.25        57.88852
699.68        58.23007
700.10        58.41379
700.52        58.38396
700.94        58.23301
701.37        58.05578
701.79         58.0146
702.21        58.14349
702.64        58.37246
703.06        58.63761
703.48        58.82166
703.90        58.88776
704.33        58.87893
704.75        58.81906
705.17        58.73698
705.59        58.65586
706.01        58.56419
706.44        58.50468
706.86        58.55317
707.28        58.70096
707.70        58.97172
708.12        59.29909
708.55         59.4444
708.97        59.39578
709.39        59.56667
709.81        59.54305
710.23        59.61627
710.66        59.66153
711.08        59.74935
711.50        59.84338
711.92        59.88265
712.34        59.86779
712.76        59.83015
713.19        59.77189
713.61        59.72701
714.03        59.69982
714.45        59.68979
714.87        59.73544
715.29         59.8986
715.71        60.17572
716.13        60.53193
716.56        60.88514
716.98        61.15037
717.40        61.25155
717.82        61.26297
718.24        61.20819
718.66        60.87827
719.08        60.72982
719.50        60.43732
719.92        60.17835
720.34        60.10066
720.76        60.24186
721.19        60.23357
721.61        60.62416
722.03        60.92529
722.45        61.25409
722.87        61.58398
723.29        61.82684
723.71        61.83355
724.13        61.58154
724.55        61.15129
724.97        60.67545
725.39        60.32918
725.81        60.17209
726.23        60.33566
726.65        60.41872
727.07        60.75333
727.49        60.97353
727.91        61.27976
728.33        61.56681
728.75         61.7781
729.17        61.89448
729.59        61.91032
730.01        61.85639
730.43        61.79576
730.85        61.74898
731.27        61.69971
731.69        61.64668
732.10        61.58452
732.52         61.5141
732.94        61.45474
733.36        61.41456
733.78         61.3078
734.20         61.1346
734.62          61.036
735.04        61.30905
735.46        60.82884
735.88        61.46473
736.30        61.67793
736.72        61.97418
737.13        62.31557
737.55        62.57747
737.97        62.74232
738.39        62.73549
738.81        62.30204
739.23        61.63744
739.65        61.55296
740.06        61.98579
740.48        62.18167
740.90        62.08926
741.32        62.18837
741.74        62.47716
742.16        62.67636
742.57        62.75879
742.99        62.79956
743.41        62.79772
743.83        62.70493
744.25        62.55019
744.67         62.3997
745.08        62.32282
745.50        62.34362
745.92        62.47957
746.34        62.74234
746.75        63.02398
747.17        63.11287
747.59        62.98045
748.01        62.69473
748.42        62.37304
748.84        62.23286
749.26        62.32897
749.68        62.50689
750.09        62.69942
750.51        62.99543
750.93        63.25832
751.35        63.10593
751.76        62.63283
752.18        62.36651
752.60        62.35401
753.01        62.33066
753.43        62.26046
753.85        62.23418
754.27        62.25043
754.68        62.30337
755.10        62.38167
755.52        62.45774
755.93        62.50954
756.35        62.52961
756.77        62.58638
757.18        62.63749
757.60        62.68285
758.02        63.00941
758.43        63.51506
758.85         62.8112
759.26        63.10547
759.68         62.4134
760.10         62.1755
760.51        62.74234
760.93        62.98692
761.34        63.27234
761.76        63.20753
762.18        63.22643
762.59        63.40276
763.01        63.60726
763.42        63.84133
763.84        63.95829
764.26        63.92631
764.67         63.6596
765.09        63.30614
765.50        63.12926
765.92        63.16625
766.33        63.14822
766.75        63.00436
767.16        62.98474
767.58        63.04482
768.00        62.96852
768.41        62.85075
768.83        63.06614
769.24        63.48034
769.66        63.64117
770.07        63.51798
770.49        63.11285
770.90        62.68991
771.32        63.16066
771.73        64.29458
772.15        64.69227
772.56        64.25712
772.97        63.75244
773.39        63.39814
773.80        63.22265
774.22        63.28308
774.63        63.60797
775.05        64.02674
775.46        64.32684
775.88        64.40578
776.29        64.34306
776.70        64.20745
777.12        64.13812
777.53        64.18077
777.95        64.24239
778.36          64.298
778.77         64.2798
779.19        64.19827
779.60        64.11708
780.02         64.0185
780.43        63.97066
780.84        64.01675
781.26        63.77909
781.67        63.44504
782.09        64.12935
782.50        65.45473
782.91        65.45804
783.33        64.28176
783.74        63.84969
784.15        64.25587
784.57        64.48121
784.98        64.45256
785.39        64.32706
785.81        64.20177
786.22        64.49708
786.63        65.10339
787.04        65.37669
787.46        65.27547
787.87        65.12707
788.28        65.02058
788.70        64.92178
789.11        64.84229
789.52        64.85724
789.93        64.92112
790.35        64.87289
790.76        64.73592
791.17        64.68445
791.58        64.76253
792.00        64.80296
792.41        64.80572
792.82        65.05927
793.23        65.41729
793.65        65.10489
794.06        64.33405
794.47        64.29073
794.88        64.89939
795.29        65.10072
795.71        64.83005
796.12        64.83216
796.53        65.12871
796.94        65.15757
797.35        65.01275
797.76        65.41401
798.18        66.18858
798.59        66.49855
799.00        66.24483
799.41        65.85887
799.82         65.5038
800.23        65.27538
800.64        65.24073
801.06        65.34571
801.47         65.5348
801.88        65.62285
802.29        65.55138
802.70         65.3667
803.11        65.13274
803.52        64.95373
803.93        64.88562
804.34        64.90989
804.75        64.98323
805.17        65.12049
805.58        65.35538
805.99        65.37331
806.40         65.2753
806.81        65.93658
807.22         67.0302
807.63        66.89323
808.04        65.70668
808.45         65.1973
808.86        65.49862
809.27        65.67255
809.68        65.60789
810.09        65.58212
810.50        65.57481
810.91        65.50375
811.32        65.48698
811.73        65.69674
812.14        66.14562
812.55        66.83241
812.96         67.5214
813.37        67.64508
813.78        67.15726
814.19         66.5017
814.60        65.89114
815.01        65.37905
815.42        65.03725
815.83        64.93231
816.24        65.01473
816.65        65.10304
817.05        65.15186
817.46        65.20634
817.87        65.27612
818.28        65.31885
818.69        65.33083
819.10        65.28439
819.51        65.25005
819.92        65.37391
820.33        65.67043
820.74        66.08559
821.14        66.47388
821.55        66.59718
821.96        66.41101
822.37        65.99631
822.78        65.50093
823.19        65.17746
823.60        65.11256
824.00        65.26198
824.41        65.50826
824.82        65.74334
825.23        65.90241
825.64        66.01608
826.04        66.09061
826.45        66.09673
826.86        66.05085
827.27        65.95902
827.68        65.82579
828.08        65.69561
828.49        65.54395
828.90        65.39002
829.31        65.30521
829.72        65.39906
830.12        65.70345
830.53        66.12767
830.94        66.53728
831.35        66.65648
831.75        66.43154
832.16        65.92365
832.57        65.31776
832.97        64.89154
833.38        64.73248
833.79        64.75362
834.20        64.89752
834.60         65.0631
835.01        65.21547
835.42        65.43632
835.82        65.69096
836.23         65.8365
836.64        65.87479
837.04        65.78521
837.45        65.75205
837.86        66.15079
838.26           67.05
838.67        68.29477
839.08        69.46535
839.48        69.77556
839.89        69.04888
840.29        67.58813
840.70        66.04921
841.11        65.19608
841.51        65.21852
841.92        65.86809
842.33        66.86591
842.73            67.7
843.14        68.06025
843.54        68.14525
843.95        68.04488
844.35        67.95883
844.76        67.93663
845.17        67.88895
845.57        67.79289
845.98        67.61015
846.38        67.36058
846.79        67.08084
847.19         66.8196
847.60        66.61156
848.00         66.4796
848.41        66.38751
848.81        66.34303
849.22        66.27903
849.62        66.21895
850.03        66.17188
850.43        66.14449
850.84        66.08238
851.24        66.02398
851.65        65.91605
852.05        65.91008
852.46        66.15909
852.86         66.6655
853.27        67.34667
853.67        67.93221
854.07        68.16766
854.48        67.99077
854.88         67.5065
855.29        66.84852
855.69        66.39736
856.10        66.21693
856.50        66.28443
856.90         66.4582
857.31         66.5099
857.71        66.42186
858.12        66.21483
858.52        66.00074
858.92        65.84695
859.33        65.76849
859.73        65.76955
860.13        65.78207
860.54        65.73116
860.94        65.62846
861.34        65.47047
861.75        65.30832
862.15        65.25917
862.55        65.33009
862.96        65.47816
863.36        65.63123
863.76        65.59087
864.17        65.31189
864.57        64.87711
864.97        64.43118
865.38        64.20997
865.78        64.28696
866.18        64.58887
866.58        64.96361
866.99        65.13374
867.39        65.05069
867.79        64.81217
868.19        64.56338
868.60          64.494
869.00        64.67847
869.40        65.01468
869.80        65.45984
870.21        65.91971
870.61        66.36506
871.01        66.76478
871.41        66.96746
871.81          66.765
872.22        66.14565
872.62        65.15386
873.02        64.08925
873.42        63.47795
873.82        63.47049
874.22         63.9518
874.63        64.56743
875.03         64.7472
875.43        64.34994
875.83        63.55944
876.23        62.74168
876.63        62.45945
877.03        62.84046
877.44        63.67272
877.84        64.63216
878.24        65.19297
878.64        65.14886
879.04        64.52699
879.44        63.71805
879.84        63.41885
880.24        63.73972
880.64        64.43033
881.04        65.08557
881.44         65.0772
881.84        64.27935
882.24        62.94098
882.65        61.55348
883.05        60.85816
883.45        61.03944
883.85        61.87152
884.25        62.97314
884.65        63.69322
885.05        63.82332
885.45        63.56241
885.85        63.15003
886.25        62.95106
886.65        63.06916
887.05        63.36401
887.45        63.71338
887.85        63.93891
888.25        63.97491
888.65        63.89218
889.04         63.7528
889.44        63.66401
889.84        63.64365
890.24        63.65714
890.64        63.65392
891.04        63.56342
891.44        63.38089
891.84        63.15169
892.24         62.9452
892.64        62.85123
893.04        62.89688
893.44         63.0663
893.83         63.3293
894.23        63.58107
894.63         63.8028
895.03        63.98795
895.43        64.17378
895.83        64.43375
896.23        64.75239
896.63        65.06897
897.02        65.25767
897.42        65.15266
897.82        64.74096
898.22        64.14113
898.62        63.47057
899.01        62.88675
899.41        62.47274
899.81        62.17326
900.21        62.06426
900.61        62.26107
901.00        62.73977
901.40        63.44426
901.80        64.13542
902.20        64.42137
902.59        64.23514
902.99        63.69146
903.39        63.02296
903.79        62.62911
904.18        62.61161
904.58        62.82638
904.98        63.20335
905.38         63.6421
905.77        64.08019
906.17        64.58912
906.57         64.9695
906.96        64.88184
907.36         64.2847
907.76        63.29181
908.15        62.34535
908.55        62.13971
908.95        62.81901
909.34        64.17598
909.74        65.69025
910.14        66.56328
910.53        66.52773
910.93        65.84309
911.33        64.80384
911.72        63.86454
912.12         63.2606
912.52        62.87222
912.91        62.65141
913.31        62.54902
913.70        62.53664
914.10        62.62074
914.49        62.88647
914.89        63.36201
915.29        64.03185
915.68        64.85144
916.08        65.52584
916.47        65.65762
916.87        65.19962
917.26        64.27035
917.66        63.30328
918.05        62.81569
918.45        62.92825
918.84        63.53917
919.24        64.32152
919.64        64.81541
920.03         64.8801
920.42        64.61813
920.82        64.29992
921.21        64.29389
921.61        64.66481
922.00        65.30813
922.40        65.94429
922.79        66.23621
923.19        66.05946
923.58        65.58292
923.98        65.02011
924.37        64.60945
924.77        64.44472
925.16        64.41002
925.55        64.49745
925.95         64.6763
926.34        64.91424
926.74        65.19463
927.13        65.37739
927.52        65.16978
927.92        64.59037
928.31        63.73606
928.70        62.86095
929.10        62.32724
929.49        62.21428
929.89        62.37229
930.28        62.78849
930.67        63.31741
931.07        63.84249
931.46        64.46897
931.85        64.94663
932.24         64.9198
932.64        64.38942
933.03        63.41938
933.42        62.47971
933.82        62.26354
934.21        62.90149
934.60        64.25242
934.99        65.80249
935.39        66.61021
935.78        66.44528
936.17        65.48165
936.56        64.27745
936.96        63.71747
937.35        64.00569
937.74        64.86296
938.13        65.74545
938.53        65.81533
938.92        64.91964
939.31        63.42658
939.70        61.86013
940.09        60.94263
940.49         60.8262
940.88         61.3006
941.27        62.13092
941.66        62.88641
942.05        63.37043
942.44        63.70756
942.84         63.9103
943.23        63.98301
943.62        63.95786
944.01        63.77721
944.40        63.53339
944.79        63.42325
945.18        63.48206
945.57        63.66978
945.97        63.83133
946.36        63.78324
946.75        63.44968
947.14        62.95478
947.53        62.42733
947.92        62.03587
948.31        61.84068
948.70        61.79077
949.09        61.90715
949.48        62.22661
949.87        62.71779
950.26        63.34185
950.65        63.96943
951.04        64.38944
951.43        64.53105
951.82         64.4331
952.21        64.15718
952.60        63.82327
952.99        63.50952
953.38        63.22616
953.77        63.01181
954.16        62.92395
954.55        62.95498
954.94        63.05282
955.33        63.22955
955.72        63.48409
956.11        63.78317
956.50        64.15084
956.89        64.32894
957.28        63.90833
957.66         62.8599
958.05         61.3698
958.44        59.98549
958.83        59.49338
959.22        60.01142
959.61         61.3279
960.00        62.86236
960.39         63.5193
960.78        62.98545
961.16        61.61765
961.55        60.05948
961.94        59.16787
962.33        59.16072
962.72         59.7974
963.11        60.77312
963.49        61.52301
963.88        61.74254
964.27        61.62502
964.66         61.4211
965.04         61.5225
965.43        61.96883
965.82         62.6439
966.21        63.25974
966.60        63.31194
966.98        62.65713
967.37        61.56665
967.76        60.44501
968.15        59.76905
968.53        59.65015
968.92        59.98465
969.31        60.54007
969.69        60.86044
970.08        60.73613
970.47        60.32348
970.86         59.9909
971.24        60.28049
971.63        61.27977
972.02        62.80702
972.40        64.41759
972.79        64.99374
973.17        64.28516
973.56        62.70758
973.95        60.89003
974.33        59.61234
974.72        59.07219
975.11        59.03678
975.49        59.39057
975.88        59.85114
976.26        60.30667
976.65        60.77534
977.04        61.20071
977.42        61.44909
977.81        61.46214
978.19        61.24073
978.58         60.9117
978.96        60.67656
979.35        60.57489
979.74          60.566
980.12        60.70763
980.51        60.86813
980.89        61.11552
981.28        61.46143
981.66        61.81918
982.05        62.02559
982.43        62.07404
982.82        61.94184
983.20         61.9292
983.59        62.50318
983.97        63.81377
984.35        65.67846
984.74        67.40807
985.12        68.08804
985.51        67.43335
985.89        65.78008
986.28        63.89022
986.66        62.82328
987.04        62.91052
987.43        63.83775
987.81        65.15826
988.20        65.88288
988.58        65.69073
988.96        64.82835
989.35        63.72185
989.73        62.95987
990.12        62.67839
990.50        62.73259
990.88        62.79708
991.27        62.36236
991.65        61.37246
992.03        60.08818
992.42        59.03157
992.80        58.87014
993.18        59.72803
993.56        61.38187
993.95        63.28356
994.33        64.54925
994.71        64.71114
995.10        64.11501
995.48        63.11329
995.86        62.33163
996.24        61.94995
996.63        61.61666
997.01        61.50718
997.39        61.67263
997.77        62.06145
998.15        62.78739
998.54        63.37264
998.92        62.94447
999.30        61.52026
999.68        59.39422
1000.06        57.47741
1000.45        57.05842
1000.83        58.47815
1001.21        61.47167
1001.59        65.19052
1001.97        67.53121
1002.35        67.63352
1002.73        66.13117
1003.12        64.15919
1003.50        63.11058
1003.88          63.426
1004.26        64.55402
1004.64        66.19569
1005.02        67.69785
1005.40        68.64062
1005.78        69.37061
1006.16          69.468
1006.54        68.22298
1006.92         65.7971
1007.30        62.53935
1007.69        59.66577
1008.07        58.75998
1008.45        60.28433
1008.83        63.88079
1009.21        68.64418
1009.59        72.12774
1009.97        72.98258
1010.35        71.79469
1010.73        69.17766
1011.11        66.14183
1011.49        63.28773
1011.86        60.48729
1012.24        58.23842
1012.62        57.16356
1013.00          57.286
1013.38          58.543
1013.76        60.54403
1014.14         62.0877
1014.52        62.56536
1014.90        62.24679
1015.28        61.44069
1015.66        60.69837
1016.04        60.21216
1016.41        59.72493
1016.79        59.46986
1017.17        59.96049
1017.55        61.16493
1017.93        62.89195
1018.31        64.47309
1018.69        64.91232
1019.06         64.0379
1019.44        62.05664
1019.82        59.43485
1020.20        57.50607
1020.58        56.93262
1020.95        57.22513
1021.33        58.14276
1021.71        59.28212
1022.09        60.55773
1022.46        62.41047
1022.84        64.22673
1023.22        64.47814
1023.60        62.77506
1023.97        59.44328
1024.35        56.58697
1024.73        56.67086
