SpectraSmart Spectrum 2.9.0.0
--------- Device Information -----------
Spectrum Name :  反射率_0
Saving Time :  2024/04/26 23:05:36
Spectro-Module Model Name : SE2030-DUVN
Spectro-Module Serial Number : OS361AC55029948
Wavelength Start : 200
Wavelength End : 1025
Wavelength Unit : Wavelength(nm)
Spectrum Unit : Reflectance(%)
-----------Spectrum Setting ------------
Integration Time : 20ms
Average : 10
Boxcar : 0
Background removal :  enabled
linearity correction :  enabled
SC :  disabled
Intensity correction :  disabled
DWT denoise :  enabled
savitzky-golay :  disabled
FFT :  disabled
Running average :  disabled
Kalman :  disabled
High pass :  disabled
---------------BEGIN--------------------
Wavelength(nm)             Reflectance(%)
200.29               0
200.75        33.77011
201.21        39.77753
201.67        45.43257
202.13        49.07502
202.58        50.69328
203.04        51.43804
203.50        50.97975
203.96        48.26142
204.42        43.10386
204.88        35.47994
205.34        28.16702
205.80        26.05523
206.26        29.69309
206.72        36.92994
207.18        44.02299
207.64        47.96034
208.10        48.81119
208.55        47.54476
209.01        44.14515
209.47        41.74057
209.93         42.5081
210.39        44.72923
210.85        47.01977
211.31        49.25572
211.77        52.27297
212.23        58.20652
212.69        73.85011
213.14        107.8813
213.60        118.8818
214.06        104.6997
214.52        91.18415
214.98        82.92953
215.44        76.89377
215.90        70.48775
216.36        64.73923
216.81        61.71936
217.27        62.52587
217.73        68.51653
218.19        78.64317
218.65        83.48457
219.11        79.38734
219.57        71.91558
220.02        68.18681
220.48         73.5006
220.94        88.38541
221.40        115.0503
221.86        153.0873
222.32        178.6701
222.77        170.4258
223.23        144.3176
223.69        117.9475
224.15        101.2561
224.61        92.90092
225.06        88.27217
225.52         86.7637
225.98        87.56199
226.44        89.98164
226.90         94.1917
227.36        98.58276
227.81        100.0877
228.27        98.44621
228.73        94.62496
229.19        90.83764
229.65         89.7098
230.10        91.35477
230.56        94.95626
231.02        98.77412
231.48        100.1002
231.93        98.42536
232.39        95.26324
232.85        92.14949
233.31        91.13068
233.77        92.35411
234.22         94.9578
234.68        97.85395
235.14         99.4277
235.60        99.15264
236.05        97.63434
236.51        95.00749
236.97        91.96688
237.43        89.05811
237.88        86.22463
238.34        83.97586
238.80        83.37478
239.26        84.76071
239.71         88.9115
240.17        94.83662
240.63        99.79075
241.08        101.9453
241.54         100.312
242.00        97.30642
242.46        98.55248
242.91        107.8902
243.37        127.0657
243.83        156.4376
244.28        180.8939
244.74         178.885
245.20        151.3653
245.66        119.0393
246.11        99.58739
246.57        93.29096
247.03        94.82368
247.48        97.55957
247.94        91.91215
248.40        79.83841
248.85        67.43774
249.31        58.85708
249.77        55.80764
250.22        57.42939
250.68        62.92363
251.14        70.93642
251.59        75.94773
252.05        74.94056
252.51        70.72703
252.96        65.96203
253.42        63.59299
253.88        63.59056
254.33        64.21454
254.79        66.27289
255.25        70.24297
255.70        75.66978
256.16        82.39129
256.62        87.69315
257.07        87.43758
257.53        83.22662
257.99        77.75638
258.44        73.23269
258.90        71.89226
259.35        72.64946
259.81        74.80784
260.27        77.03233
260.72        77.73967
261.18        77.15246
261.63        75.65611
262.09          74.409
262.55        74.02328
263.00         74.3316
263.46        75.13912
263.91        75.70181
264.37        75.52555
264.83         74.5424
265.28        73.04708
265.74        71.67507
266.19        70.78667
266.65        70.53969
267.11        70.62144
267.56        70.84876
268.02        70.95393
268.47         70.8157
268.93        70.58871
269.38         70.1352
269.84        69.33472
270.30        68.18707
270.75        66.69331
271.21        65.25076
271.66        64.38381
272.12         64.1737
272.57        64.42486
273.03         64.6436
273.48        63.99947
273.94        62.44626
274.39        60.27175
274.85        58.11399
275.31        56.64062
275.76        55.93437
276.22        55.78865
276.67        55.82513
277.13        55.67319
277.58        55.13759
278.04        54.39923
278.49        53.49705
278.95        52.65485
279.40        51.85334
279.86        51.12638
280.31        50.33295
280.77        49.46055
281.22        48.45988
281.68        47.47451
282.13        46.57047
282.59        45.97113
283.04        45.62865
283.50        45.49115
283.95        45.39478
284.41         45.1243
284.86        44.61857
285.32        43.99348
285.77        43.31652
286.22        42.77108
286.68        42.39219
287.13        42.07179
287.59        41.79139
288.04         41.4589
288.50        41.08674
288.95          40.674
289.41          40.242
289.86        39.71889
290.32        39.15752
290.77        38.55172
291.22         37.9961
291.68        37.61122
292.13        37.39822
292.59        37.33913
293.04        37.35895
293.50        37.36773
293.95        37.32453
294.40        37.25969
294.86        37.20866
295.31        37.21406
295.77        37.29873
296.22        37.43484
296.68        37.60611
297.13        37.76777
297.58        37.91809
298.04        38.07215
298.49        38.25252
298.95         38.5144
299.40        38.85059
299.85        39.23803
300.31        39.62807
300.76         39.9328
301.21        40.13544
301.67        40.27144
302.12        40.35378
302.58        40.47286
303.03        40.61607
303.48        40.77915
303.94        40.94362
304.39        41.03992
304.84        41.07174
305.30        41.07254
305.75        41.04592
306.20        41.05592
306.66        41.12558
307.11         41.2215
307.57        41.32474
308.02        41.35102
308.47        41.30034
308.93         41.2015
309.38        41.09274
309.83         41.0872
310.29        41.19796
310.74        41.37904
311.19        41.53963
311.65         41.5288
312.10        41.31178
312.55        40.94354
313.00        40.53425
313.46        40.24481
313.91        40.10167
314.36        40.07125
314.82         40.0749
315.27        39.99614
315.72        39.80133
316.18        39.54037
316.63        39.27143
317.08         39.1003
317.53        39.04482
317.99        39.05563
318.44        39.07338
318.89        38.99369
319.35        38.78936
319.80         38.4977
320.25        38.16522
320.70        37.86484
321.16        37.62178
321.61        37.43098
322.06        37.27448
322.51        37.12702
322.97        36.97238
323.42         36.8184
323.87        36.68573
324.32        36.61202
324.78        36.58444
325.23        36.61009
325.68        36.59507
326.13        36.39809
326.59        36.00106
327.04        35.46781
327.49        34.93773
327.94        34.63343
328.39         34.6002
328.85        34.75887
329.30        35.01743
329.75        35.13066
330.20        35.02028
330.66        34.75266
331.11        34.42281
331.56        34.15832
332.01        34.00618
332.46        33.91375
332.92         33.8549
333.37        33.84694
333.82        33.85805
334.27        33.90228
334.72        33.93895
335.17        33.88743
335.63        33.73571
336.08        33.53012
336.53        33.32305
336.98        33.22256
337.43        33.25291
337.88        33.35834
338.34        33.52122
338.79        33.74342
339.24         33.9816
339.69        34.24514
340.14        34.40177
340.59        34.24316
341.05        33.76865
341.50        33.05285
341.95        32.34993
342.40        32.04887
342.85        32.22998
343.30        32.78048
343.75        33.46635
344.20        33.89228
344.66        33.94597
345.11        33.73736
345.56        33.42681
346.01        33.27629
346.46        33.35522
346.91        33.56231
347.36         33.7945
347.81        33.90663
348.26        33.85769
348.72        33.71157
349.17        33.51994
349.62        33.36509
350.07         33.2801
350.52        33.24874
350.97        33.23836
351.42        33.20304
351.87        33.12997
352.32        33.02493
352.77        32.94534
353.22        32.97234
353.67         33.1085
354.13        33.32763
354.58        33.50936
355.03        33.45746
355.48        33.14291
355.93        32.63971
356.38        32.12669
356.83        31.86992
357.28        31.92153
357.73        32.19596
358.18        32.53708
358.63        32.68698
359.08        32.56824
359.53        32.25538
359.98        31.85695
360.43        31.53431
360.88        31.32914
361.33        31.19044
361.78        31.04663
362.23        30.79202
362.68        30.41362
363.13        29.96709
363.58        29.54007
364.03         29.2546
364.48        29.13578
364.93        29.13986
365.38        29.19275
365.83        29.17682
366.28        29.05526
366.73        28.85967
367.18        28.63389
367.63         28.4472
368.08        28.31957
368.53        28.22853
368.98        28.14411
369.43        28.02231
369.88        27.85238
370.33        27.64911
370.78         27.4479
371.23        27.30531
371.68         27.2325
372.13        27.20888
372.58        27.18509
373.03        27.08342
373.48        26.88547
373.93        26.61535
374.38          26.321
374.83        26.08109
375.28        25.91807
375.72        25.80337
376.17        25.71832
376.62        25.60088
377.07        25.44136
377.52        25.26649
377.97        25.10246
378.42        24.99242
378.87        24.94476
379.32        24.93015
379.77        24.94069
380.22        24.96872
380.67        25.00033
381.11        25.04367
381.56        25.03717
382.01        24.90663
382.46        24.65424
382.91        24.32358
383.36        24.00167
383.81         23.8058
384.26        23.75446
384.71        23.80898
385.15         23.9178
385.60         23.9931
386.05        23.99825
386.50        23.95247
386.95         23.8616
387.40        23.73777
387.85        23.59445
388.29        23.41986
388.74         23.2541
389.19        23.09648
389.64        22.95135
390.09         22.8182
390.54        22.71217
390.98           22.65
391.43        22.64338
391.88        22.67715
392.33        22.71827
392.78        22.71966
393.23        22.67323
393.67        22.58289
394.12        22.49404
394.57         22.4307
395.02        22.39879
395.47        22.37931
395.91        22.36831
396.36        22.34728
396.81        22.32301
397.26        22.30843
397.71        22.28529
398.15        22.23858
398.60        22.19656
399.05        22.07245
399.50        21.92661
399.95        22.00927
400.39        22.25726
400.84        22.25635
401.29        22.00871
401.74        21.86766
402.18        21.85024
402.63        21.73702
403.08        21.56244
403.53        21.47719
403.97        21.49331
404.42        21.57255
404.87        21.66025
405.32        21.66637
405.76        21.56842
406.21        21.40498
406.66        21.23723
407.11        21.16187
407.55        21.20639
408.00        21.33297
408.45        21.47989
408.90        21.52818
409.34        21.44325
409.79        21.26643
410.24        21.07295
410.68        20.96174
411.13        20.96042
411.58        21.04046
412.03        21.13799
412.47        21.14534
412.92        21.03129
413.37        20.84254
413.81        20.65756
414.26        20.60489
414.71        20.69845
415.15        20.90471
415.60        21.13547
416.05        21.25533
416.49         21.2236
416.94        21.07937
417.39        20.89785
417.83        20.79354
418.28        20.79626
418.73        20.86666
419.17        20.96149
419.62        21.01296
420.07         21.0013
420.51        20.94911
420.96        20.88113
421.41        20.82655
421.85        20.78795
422.30        20.74516
422.74        20.68823
423.19        20.69901
423.64        20.74374
424.08         20.6977
424.53        20.57077
424.98        20.53786
425.42        20.62313
425.87         20.6818
426.31        20.70168
426.76        20.81589
427.21        20.95672
427.65        20.83647
428.10        20.54611
428.54        20.44302
428.99        20.56094
429.44        20.78761
429.88        21.01284
430.33        20.98312
430.77        20.74664
431.22        20.72394
431.66         20.9171
432.11         20.9707
432.56        20.89048
433.00        20.95523
433.45        21.07635
433.89        20.95279
434.34        20.72719
434.78        20.29687
435.23        20.79893
435.67        20.88059
436.12        20.82765
436.57         20.7033
437.01        20.55203
437.46        20.46018
437.90        20.43531
438.35        20.39692
438.79        20.34109
439.24        20.33121
439.68        20.36657
440.13        20.43005
440.57        20.49847
441.02        20.55356
441.46        20.58371
441.91        20.53959
442.35        20.44823
442.80        20.55318
443.24        20.77214
443.69        20.74275
444.13        20.50154
444.58        20.43099
445.02        20.54494
445.47        20.63836
445.91        20.68221
446.36        20.73248
446.80        20.77534
447.24        20.79324
447.69         20.7995
448.13        20.80734
448.58        20.82402
449.02        20.84517
449.47        20.85606
449.91        20.82108
450.36         20.7466
450.80        20.64576
451.25         20.5605
451.69        20.53978
452.13        20.59477
452.58        20.70069
453.02        20.82562
453.47        20.92133
453.91        20.96959
454.36        20.98744
454.80         20.9669
455.24        20.89703
455.69        20.79112
456.13        20.63964
456.58        20.50424
457.02        20.44504
457.46        20.48051
457.91         20.5947
458.35          20.712
458.79         20.7164
459.24        20.60682
459.68        20.41005
460.13        20.22637
460.57        20.16994
461.01        20.27893
461.46        20.46795
461.90        20.67417
462.34        20.92733
462.79         20.9436
463.23        20.95428
463.68        20.89487
464.12        20.79938
464.56        20.68332
465.01         20.5677
465.45        20.45401
465.89        20.39639
466.34        20.39961
466.78        20.44954
467.22        20.52813
467.67        20.57895
468.11        20.59693
468.55        20.58638
468.99        20.56435
469.44        20.55783
469.88        20.57633
470.32        20.60804
470.77        20.64517
471.21        20.68003
471.65        20.70693
472.10        20.73263
472.54         20.7537
472.98        20.77092
473.42        20.78491
473.87        20.80078
474.31         20.8084
474.75        20.81337
475.20        20.82117
475.64        20.82253
476.08        20.82615
476.52        20.83329
476.97         20.8448
477.41        20.87245
477.85        20.91302
478.29        20.93033
478.74        20.93855
479.18        20.99228
479.62        21.08262
480.06        21.16117
480.50        21.22534
480.95        21.27305
481.39        21.27879
481.83        21.41238
482.27        21.35836
482.72        21.37678
483.16        21.39869
483.60        21.42113
484.04        21.42334
484.48        21.53655
484.93        21.81398
485.37        21.68786
485.81        21.76712
486.25        22.21883
486.69        21.63708
487.14        21.64632
487.58        22.53198
488.02         22.5005
488.46        22.10534
488.90        22.41426
489.34        22.54715
489.79         22.7686
490.23        22.70498
490.67        22.79164
491.11         22.9907
491.55        23.04324
491.99        22.98397
492.43        23.01045
492.88        23.13965
493.32        23.26978
493.76        23.38749
494.20        23.53009
494.64        23.70019
495.08        23.84103
495.52        23.94654
495.96        24.16207
496.41        24.43247
496.85        24.39546
497.29        24.12736
497.73        24.29803
498.17         24.5639
498.61        24.78239
499.05        24.80635
499.49        24.83988
499.93        24.83486
500.37        24.94194
500.82        25.12862
501.26        25.26758
501.70        25.34678
502.14        25.45241
502.58        25.59613
503.02        25.74434
503.46         25.8931
503.90        26.05302
504.34        26.18897
504.78        26.24301
505.22        26.20951
505.66         26.1074
506.10        25.99894
506.54        25.98454
506.98        26.08482
507.42        26.26805
507.86        26.47733
508.30         26.6165
508.74        26.65842
509.18        26.63588
509.62        26.58023
510.06        26.54245
510.50        26.54272
510.94        26.56278
511.38        26.60714
511.82         26.6846
512.26         26.7905
512.70         26.9242
513.14        27.05774
513.58        27.14268
514.02        27.16799
514.46        27.14394
514.90        27.09953
515.34        27.08545
515.78        27.11447
516.22        27.17116
516.66        27.23375
517.10        27.26604
517.54        27.26002
517.98        27.23268
518.42        27.19737
518.86        27.17363
519.30        27.16834
519.74        27.17152
520.18        27.18682
520.62        27.22078
521.06        27.27103
521.50        27.33741
521.93        27.39779
522.37         27.4061
522.81        27.35796
523.25        27.26257
523.69        27.15736
524.13        27.10188
524.57        27.10613
525.01        27.15084
525.45        27.19347
525.89        27.16489
526.32        27.04852
526.76        26.87765
527.20        26.69206
527.64        26.55453
528.08        26.48316
528.52        26.45916
528.96        26.46252
529.40        26.46164
529.83         26.4452
530.27        26.42608
530.71        26.40678
531.15        26.39328
531.59        26.38678
532.03        26.37821
532.46        26.36277
532.90        26.35509
533.34        26.35005
533.78         26.3304
534.22        26.28956
534.66        26.24875
535.09        26.19082
535.53        26.06377
535.97        25.89417
536.41        25.79067
536.85        25.76735
537.28        25.77169
537.72        25.80481
538.16        25.88502
538.60        26.00336
539.04        26.15202
539.47         26.2912
539.91        26.37822
540.35        26.39997
540.79        26.36914
541.22        26.32663
541.66        26.34887
542.10        26.44914
542.54        26.60695
542.97        26.77629
543.41        26.89547
543.85        26.94776
544.29        26.95971
544.72        26.96523
545.16        27.03303
545.60        27.17297
546.04        27.36646
546.47        27.58878
546.91        27.79472
547.35        27.96615
547.79         28.1176
548.22          28.256
548.66        28.38598
549.10        28.54385
549.53        28.70898
549.97        28.87961
550.41        28.98957
550.84        29.06695
551.28        29.19778
551.72        29.35308
552.15        29.50851
552.59        29.69712
553.03        29.49178
553.46        29.79899
553.90        29.87584
554.34        29.98633
554.77        30.12117
555.21        30.27919
555.65        30.43194
556.08        30.55909
556.52         30.6527
556.96        30.71124
557.39        30.81617
557.83        30.94823
558.27        30.92815
558.70        30.79661
559.14        30.80567
559.57        30.94799
560.01        31.06208
560.45        31.13398
560.88        31.23925
561.32        31.38606
561.75        31.51684
562.19        31.62632
562.63        31.70089
563.06        31.73419
563.50        31.73957
563.93        31.71043
564.37        31.71908
564.80        31.78817
565.24         31.8251
565.68        31.76728
566.11        32.20612
566.55        31.98192
566.98        32.05828
567.42        32.14091
567.85        32.27094
568.29        32.45774
568.72        32.70701
569.16        33.02647
569.60        33.20993
570.03        33.36432
570.47        33.53482
570.90        33.76897
571.34        33.57236
571.77        33.89498
572.21        33.95231
572.64        33.95832
573.08        34.14968
573.51        34.06414
573.95        34.18465
574.38        34.36192
574.82        34.63919
575.25        34.29438
575.69        34.31876
576.12        34.47458
576.56        34.57959
576.99         34.6895
577.42        34.52245
577.86          34.314
578.29        34.82506
578.73        34.50284
579.16        34.57884
579.60        34.54224
580.03        34.67501
580.47        34.44053
580.90        34.68676
581.33        34.56025
581.77        34.45811
582.20        34.09506
582.64        34.16114
583.07        33.97691
583.51        33.89878
583.94        33.82729
584.37        33.78981
584.81        33.76492
585.24        33.58599
585.68        33.37185
586.11        33.17655
586.54        33.23795
586.98        33.20194
587.41        33.16246
587.85        32.99163
588.28        32.74244
588.71        32.89021
589.15        32.61055
589.58         32.8486
590.01        32.76024
590.45         32.8832
590.88        33.19972
591.31        33.18035
591.75        33.00653
592.18          32.863
592.61        32.75097
593.05        33.47838
593.48        33.63038
593.91        33.27762
594.35        33.27707
594.78        33.12511
595.21        33.22105
595.65        33.47006
596.08        33.92117
596.51        34.10649
596.94        34.11089
597.38        34.22928
597.81        34.50965
598.24        34.81274
598.68        34.51397
599.11        35.13261
599.54        35.60337
599.97        35.26537
600.41        35.89502
600.84        35.86017
601.27        36.28352
601.70        36.59078
602.14        36.89955
602.57        37.21276
603.00        37.59797
603.43        37.58693
603.87        38.41588
604.30        38.79055
604.73        38.84562
605.16        38.94743
605.60        39.29528
606.03        39.55723
606.46        39.81003
606.89        40.08083
607.32        40.81022
607.76        41.24889
608.19        41.50674
608.62        41.69541
609.05        41.92641
609.48        42.21553
609.92        43.07583
610.35        43.22887
610.78         42.9024
611.21        43.21653
611.64        43.55098
612.07        44.04018
612.50         44.2142
612.94        44.46465
613.37        44.69197
613.80        44.86078
614.23        44.69697
614.66        44.83014
615.09        45.17042
615.52         45.4595
615.96        45.65094
616.39        45.89818
616.82        46.21542
617.25        46.27164
617.68        46.49636
618.11        46.70003
618.54        46.98382
618.97        47.11581
619.40        47.11111
619.84         47.3376
620.27        47.35542
620.70        47.59191
621.13        47.83969
621.56         47.6262
621.99        47.06564
622.42        47.09158
622.85          47.719
623.28        47.53049
623.71        47.65107
624.14        47.71588
624.57        47.99339
625.00        47.89898
625.43        47.87181
625.86        47.72769
626.29        47.67733
626.72        47.22517
627.15        47.51019
627.58        47.48538
628.01        47.33488
628.44        47.54064
628.87        47.33408
629.30        46.82566
629.73        46.18125
630.16        46.70185
630.59        45.97722
631.02        46.02403
631.45        46.03662
631.88        45.91375
632.31        45.58911
632.74        45.36701
633.17        44.88742
633.60        44.51282
634.03        44.14693
634.46        43.78979
634.89        43.42653
635.32        43.05438
635.75        42.68093
636.18        42.26518
636.61        41.85569
637.04        41.54877
637.47        41.34971
637.89        41.21873
638.32        41.07812
638.75        40.84366
639.18         40.4968
639.61        40.07399
640.04        39.63663
640.47        39.27724
640.90        39.02426
641.33        38.85464
641.76        38.74696
642.18        38.66986
642.61        38.59606
643.04         38.5385
643.47        38.49965
643.90        38.48045
644.33        38.47897
644.76        38.49211
645.18        38.50403
645.61        38.48425
646.04          38.438
646.47        38.38044
646.90        38.36016
647.33        38.44386
647.75        38.63173
648.18        38.94768
648.61        39.35573
649.04        39.64354
649.47        39.75693
649.89        40.34932
650.32        40.38276
650.75        40.72015
651.18        41.06466
651.61        41.50116
652.03        42.02689
652.46        42.48326
652.89        42.85414
653.32        43.30565
653.74        43.88026
654.17        43.83593
654.60        44.37062
655.03        44.53322
655.46        44.81113
655.88        44.94647
656.31         46.0019
656.74        46.34607
657.16        47.38379
657.59        48.56982
658.02         47.1656
658.45        48.00238
658.87        47.56588
659.30        47.87648
659.73        48.25088
660.15        49.33603
660.58        48.83905
661.01        49.01366
661.44        49.28078
661.86        49.31837
662.29        49.15668
662.72        49.71369
663.14        49.98692
663.57        50.15553
664.00        50.01573
664.42         50.1544
664.85        50.59726
665.27        51.03781
665.70        51.35406
666.13        51.53397
666.55        51.55762
666.98        51.38373
667.41        51.09969
667.83        51.17891
668.26         51.1323
668.69        51.35078
669.11        51.63193
669.54        51.90002
669.96        52.12411
670.39         52.3229
670.82        52.50024
671.24        52.63581
671.67        52.72776
672.09        52.76667
672.52        52.78426
672.94        52.80164
673.37        52.83672
673.80        52.88459
674.22        52.95929
674.65        53.04848
675.07        53.16295
675.50        53.29507
675.92        53.43233
676.35         53.5441
676.77        53.62471
677.20        53.67508
677.62        53.71769
678.05        53.79086
678.47        53.89989
678.90        54.03798
679.32        54.17279
679.75        54.26355
680.17         54.3012
680.60        54.30542
681.02        54.31289
681.45        54.38501
681.87        54.54608
682.30        54.74097
682.72        54.95089
683.15        55.17439
683.57        55.37433
684.00        55.40895
684.42        55.33797
684.85        55.39478
685.27        55.59309
685.70        55.82225
686.12        56.02128
686.54        56.15174
686.97        56.19357
687.39         56.1724
687.82        56.11679
688.24        56.08738
688.66        56.10295
689.09        56.14644
689.51        56.22848
689.94        56.33805
690.36        56.47326
690.78        56.62166
691.21        56.77499
691.63        56.91118
692.06        57.02586
692.48        57.13275
692.90        57.20788
693.33        57.22087
693.75        57.17418
694.17        57.05347
694.60        56.94793
695.02        57.01937
695.44        57.26949
695.87        57.63042
696.29        57.98775
696.71        58.04551
697.14        57.83776
697.56        57.69696
697.98        57.71521
698.41        57.77605
698.83        57.89095
699.25        58.20738
699.68        58.58796
700.10         58.7719
700.52        58.69054
700.94          58.436
701.37        58.15734
701.79        58.09895
702.21        58.31248
702.64        58.70759
703.06        59.15774
703.48        59.44246
703.90        59.49802
704.33        59.39325
704.75        59.21919
705.17        59.11266
705.59        59.12532
706.01        59.21606
706.44        59.34872
706.86        59.49295
707.28        59.62447
707.70         59.7324
708.12        59.84477
708.55        60.05763
708.97        60.33834
709.39        60.49372
709.81        60.52293
710.23        60.60262
710.66        60.73212
711.08        60.81539
711.50        60.81535
711.92        60.74394
712.34        60.61044
712.76        60.43424
713.19        60.25433
713.61        60.16831
714.03        60.19273
714.45        60.31137
714.87        60.51941
715.29        60.80763
715.71        61.15202
716.13        61.53042
716.56        61.87208
716.98        62.14273
717.40        62.28159
717.82        62.29994
718.24        62.19995
718.66        61.99329
719.08        61.72174
719.50        61.42417
719.92        61.17448
720.34        61.07681
720.76        61.15223
721.19        61.34513
721.61        61.66032
722.03        62.05059
722.45        62.46528
722.87        62.89393
723.29        63.21253
723.71        63.22921
724.13        62.92709
724.55        62.37914
724.97         61.7752
725.39        61.43208
725.81        61.43549
726.23        61.67888
726.65         62.0462
727.07        62.47704
727.49        62.67764
727.91        62.88434
728.33         63.0416
728.75        63.17348
729.17        63.28732
729.59        63.34935
730.01         63.3784
730.43        63.43908
730.85        63.53854
731.27        63.62489
731.69        63.64999
732.10        63.71604
732.52        63.51987
732.94        63.34447
733.36        63.16155
733.78        62.95223
734.20         62.7364
734.62        62.75427
735.04        63.08787
735.46        62.69748
735.88        63.43561
736.30        63.72262
736.72        64.07335
737.13        64.47725
737.55        64.78791
737.97        64.89713
738.39        64.77855
738.81        64.31219
739.23        63.72993
739.65        63.84997
740.06        64.51779
740.48        64.80618
740.90        64.63799
741.32        64.56668
741.74        64.65934
742.16        64.72953
742.57        64.78916
742.99        64.90567
743.41        65.03158
743.83        65.00014
744.25        64.83889
744.67        64.73518
745.08        64.75629
745.50        64.83021
745.92        64.97131
746.34        65.24126
746.75        65.53661
747.17        65.63065
747.59        65.49657
748.01        65.20919
748.42        64.88588
748.84        64.73598
749.26        64.81232
749.68        64.98085
750.09        65.17488
750.51        65.43572
750.93        65.65157
751.35        65.55045
751.76        65.19332
752.18        64.96258
752.60        64.89525
753.01        64.80045
753.43        64.68473
753.85        64.67798
754.27        64.79321
754.68        65.01395
755.10        65.27437
755.52        65.45988
755.93        65.52113
756.35        65.46855
756.77         65.4281
757.18        65.41311
757.60         65.4367
758.02        65.87835
758.43         66.5611
758.85        65.67379
759.26        65.52197
759.68        64.80831
760.10        65.31392
760.51        65.62139
760.93        65.96525
761.34        65.72491
761.76        66.00367
762.18        66.00129
762.59        66.12914
763.01        66.43906
763.42        66.89793
763.84        67.10291
764.26        67.01502
764.67        66.81971
765.09        66.61722
765.50        66.38631
765.92        66.19784
766.33        66.01867
766.75        65.81329
767.16        65.75567
767.58        65.81319
768.00        65.82266
768.41        65.86036
768.83        66.22728
769.24         66.7646
769.66        67.03394
770.07        66.96319
770.49        66.51505
770.90        65.94676
771.32          66.144
771.73        66.98484
772.15        67.28744
772.56        66.99607
772.97        66.79307
773.39        66.79008
773.80        66.84882
774.22        66.96807
774.63        67.22586
775.05        67.49026
775.46        67.62261
775.88        67.55858
776.29        67.36118
776.70        67.12526
777.12        67.03569
777.53        67.14298
777.95        67.34397
778.36        67.57842
778.77        67.70635
779.19        67.71392
779.60        67.67977
780.02        67.58692
780.43        67.52135
780.84        67.53847
781.26        67.22215
781.67        66.79902
782.09        67.52103
782.50        68.99078
782.91        69.07351
783.33        67.89152
783.74        67.48444
784.15        67.94013
784.57        68.12806
784.98        68.01684
785.39        67.92974
785.81        67.95206
786.22        68.35581
786.63        68.98531
787.04        69.23377
787.46        69.05248
787.87        68.72616
788.28        68.43736
788.70        68.30312
789.11        68.35163
789.52        68.66785
789.93        69.08934
790.35        69.12452
790.76        68.82355
791.17        68.71922
791.58        68.88369
792.00        68.98261
792.41        68.99589
792.82        69.17818
793.23          69.423
793.65        69.15775
794.06        68.56696
794.47         68.5825
794.88        69.09716
795.29         69.2478
795.71        68.88654
796.12        68.68088
796.53         68.6857
796.94        68.67694
797.35        68.71607
797.76         69.0862
798.18        69.64928
798.59        69.98325
799.00        70.00024
799.41        69.89555
799.82        69.74039
800.23        69.59342
800.64        69.49631
801.06        69.39891
801.47        69.34907
801.88        69.34201
802.29        69.36838
802.70        69.41685
803.11        69.45154
803.52        69.43721
803.93        69.36252
804.34        69.18578
804.75        68.96497
805.17        68.92116
805.58         69.1334
805.99         69.2764
806.40        69.36239
806.81        69.95742
807.22        70.78459
807.63        70.63904
808.04        69.68864
808.45        69.25974
808.86        69.46888
809.27        69.61101
809.68        69.57732
810.09        69.53071
810.50        69.45013
810.91        69.29147
811.32        69.19249
811.73        69.35997
812.14        69.81515
812.55        70.52352
812.96        71.24175
813.37         71.4333
813.78        71.02306
814.19        70.36449
814.60        69.68255
815.01        69.13472
815.42        68.80171
815.83        68.68234
816.24        68.76434
816.65        68.96402
817.05         69.2389
817.46         69.5937
817.87        69.93768
818.28        70.07597
818.69        69.97609
819.10        69.65427
819.51        69.28179
819.92        69.18997
820.33        69.46111
820.74        69.99751
821.14        70.58555
821.55        70.87224
821.96        70.77334
822.37        70.39824
822.78        69.92664
823.19        69.66163
823.60        69.70058
824.00        69.97658
824.41        70.31788
824.82        70.54359
825.23        70.57523
825.64        70.47317
826.04        70.32247
826.45        70.21208
826.86        70.19323
827.27        70.24755
827.68        70.30762
828.08         70.2942
828.49        70.14035
828.90        69.89013
829.31        69.68823
829.72        69.76735
830.12        70.18719
830.53        70.81673
830.94        71.41837
831.35        71.53935
831.75        71.09357
832.16        70.21256
832.57        69.22175
832.97        68.61509
833.38        68.53149
833.79        68.80547
834.20        69.28164
834.60        69.70792
835.01         69.9923
835.42        70.25541
835.82         70.4713
836.23        70.50755
836.64        70.38711
837.04        70.08775
837.45        69.82635
837.86        70.03772
838.26        70.81316
838.67        71.99519
839.08        73.17079
839.48        73.54634
839.89        72.92997
840.29        71.61675
840.70        70.23208
841.11        69.49585
841.51        69.59206
841.92        70.27562
842.33        71.29034
842.73        72.17107
843.14        72.61349
843.54        72.80341
843.95        72.80632
844.35        72.78826
844.76        72.78837
845.17        72.72915
845.57        72.60265
845.98        72.39172
846.38        72.12518
846.79        71.83269
847.19        71.55702
847.60        71.32068
848.00        71.14687
848.41         71.0076
848.81        70.91815
849.22        70.81773
849.62        70.73403
850.03        70.66669
850.43        70.62868
850.84        70.57288
851.24        70.53568
851.65        70.45456
852.05        70.45646
852.46        70.64383
852.86           71.02
853.27        71.53508
853.67        71.95248
854.07        72.06832
854.48        71.82775
854.88        71.31644
855.29        70.67165
855.69        70.28656
856.10        70.21358
856.50        70.43395
856.90        70.74604
857.31        70.82352
857.71        70.63409
858.12        70.21754
858.52        69.78335
858.92         69.5607
859.33        69.60685
859.73        69.88797
860.13        70.23495
860.54        70.39895
860.94         70.3441
861.34        70.11147
861.75        69.83494
862.15        69.77705
862.55        69.97373
862.96        70.31547
863.36        70.65977
863.76        70.68568
864.17        70.31595
864.57        69.70168
864.97        69.01105
865.38        68.50393
865.78        68.29041
866.18        68.29609
866.58        68.47211
866.99        68.72199
867.39        69.01029
867.79        69.34506
868.19        69.70432
868.60        70.02754
869.00        70.33152
869.40        70.59531
869.80        70.80787
870.21        70.96422
870.61        71.11575
871.01        71.20273
871.41        71.21437
871.81        71.13976
872.22        70.97263
872.62        70.71774
873.02        70.41625
873.42        70.12775
873.82        69.87796
874.22        69.66787
874.63        69.45763
875.03        69.19431
875.43        68.86654
875.83        68.51572
876.23        68.21842
876.63        68.08385
877.03        68.13945
877.44        68.32347
877.84        68.59486
878.24        68.89043
878.64        69.11797
879.04         69.1374
879.44        69.04923
879.84        69.11536
880.24        69.35071
880.64         69.6577
881.04        69.82233
881.44        69.52843
881.84        68.74783
882.24        67.61877
882.65        66.52081
883.05        66.02592
883.45        66.26633
883.85         67.0881
884.25        68.13991
884.65        68.80878
885.05        68.90872
885.45        68.60992
885.85        68.18114
886.25        68.04494
886.65        68.30275
887.05        68.79552
887.45        69.32957
887.85        69.60105
888.25        69.51833
888.65         69.1989
889.04        68.77351
889.44         68.4594
889.84        68.30916
890.24        68.25665
890.64        68.24681
891.04        68.19663
891.44        68.08772
891.84        67.97635
892.24        67.88709
892.64        67.83833
893.04        67.84861
893.44        67.91498
893.83        68.07866
894.23         68.3549
894.63        68.75156
895.03        69.22651
895.43        69.72544
895.83        70.17208
896.23        70.50769
896.63        70.70466
897.02        70.72251
897.42        70.53761
897.82        70.16832
898.22        69.68722
898.62        69.12366
899.01        68.49834
899.41        67.88168
899.81        67.28515
900.21        66.87547
900.61        66.91062
901.00        67.40581
901.40        68.24474
901.80        69.15143
902.20        69.67727
902.59         69.7146
902.99        69.38591
903.39        68.85859
903.79        68.42575
904.18        68.18756
904.58        68.05075
904.98        68.05717
905.38        68.27982
905.77         68.7029
906.17        69.35237
906.57         69.9831
906.96        70.16831
907.36        69.81731
907.76        69.05709
908.15        68.30202
908.55        68.20547
908.95        68.90318
909.34        70.18388
909.74        71.55371
910.14        72.28191
910.53        72.12756
910.93        71.34714
911.33        70.22338
911.72        69.18171
912.12        68.45791
912.52        67.94838
912.91        67.62326
913.31         67.4595
913.70        67.43019
914.10        67.52866
914.49        67.81978
914.89        68.29344
915.29        68.92441
915.68        69.67732
916.08        70.27278
916.47        70.34753
916.87        69.86544
917.26        68.93457
917.66        67.97726
918.05        67.48643
918.45        67.57935
918.84        68.16332
919.24        68.92378
919.64        69.42708
920.03        69.54015
920.42        69.35669
920.82        69.13196
921.21         69.2099
921.61        69.65138
922.00        70.36794
922.40        71.08914
922.79        71.50114
923.19        71.47543
923.58         71.1539
923.98        70.74319
924.37        70.47947
924.77        70.44129
925.16        70.49059
925.55        70.58549
925.95        70.63663
926.34         70.6163
926.74        70.56627
927.13        70.36527
927.52        69.74065
927.92        68.76043
928.31        67.54094
928.70        66.46547
929.10        66.08418
929.49        66.48904
929.89        67.45657
930.28        68.77544
930.67        69.93925
931.07        70.69961
931.46         71.2372
931.85        71.42418
932.24        71.14021
932.64        70.47821
933.03         69.4403
933.42        68.46564
933.82        68.19997
934.21        68.75237
934.60        70.00505
934.99         71.4655
935.39        72.20882
935.78        72.01485
936.17        71.05734
936.56        69.82079
936.96        69.07749
937.35        69.02518
937.74         69.4189
938.13        69.88087
938.53        69.84254
938.92        69.18721
939.31        68.18223
939.70        67.13452
940.09        66.44379
940.49         66.1909
940.88        66.26499
941.27        66.59622
941.66        67.05357
942.05        67.55291
942.44        68.14123
942.84        68.71986
943.23        69.11908
943.62        69.30782
944.01         69.2621
944.40        69.14087
944.79        69.24742
945.18        69.62643
945.57        70.18594
945.97        70.62065
946.36        70.51716
946.75        69.76963
947.14        68.61678
947.53        67.40442
947.92        66.60137
948.31        66.33539
948.70         66.4727
949.09        66.91412
949.48        67.48013
949.87        68.06066
950.26        68.67892
950.65        69.25294
951.04        69.65158
951.43        69.83334
951.82        69.79638
952.21        69.59187
952.60        69.33614
952.99         69.1049
953.38        68.92281
953.77        68.82502
954.16        68.85688
954.55        69.00777
954.94        69.21778
955.33        69.50915
955.72        69.90314
956.11        70.35672
956.50        70.87288
956.89         71.1438
957.28        70.68003
957.66        69.44852
958.05        67.69462
958.44        66.01671
958.83         65.2661
959.22        65.58055
959.61        66.71608
960.00        68.14857
960.39        68.87932
960.78        68.59179
961.16        67.60849
961.55        66.40306
961.94        65.57675
962.33        65.31772
962.72          65.455
963.11        65.88532
963.49        66.45125
963.88        66.95683
964.27        67.43609
964.66        67.93587
965.04        68.56684
965.43        69.27558
965.82        70.03226
966.21        70.50678
966.60         70.1406
966.98        68.85748
967.37        67.00023
967.76        65.18135
968.15        64.12694
968.53         63.9711
968.92        64.55181
969.31        65.50921
969.69        66.10747
970.08         66.0099
970.47        65.44067
970.86        64.85602
971.24        64.92041
971.63        65.76957
972.02        67.20933
972.40        68.77423
972.79        69.30228
973.17        68.55727
973.56        66.97002
973.95        65.28582
974.33        64.46466
974.72        64.69655
975.11        65.65432
975.49        66.98336
975.88        67.89808
976.26        68.14175
976.65        67.93668
977.04        67.40799
977.42         66.7105
977.81        65.92796
978.19        64.96773
978.58        64.21117
978.96        64.25984
979.35         65.1713
979.74        66.83093
980.12        68.67526
980.51        69.41232
980.89        68.85472
981.28        67.38779
981.66        65.73182
982.05        64.91444
982.43        65.18512
982.82         66.1815
983.20        67.72173
983.59        69.32242
983.97        70.78097
984.35        72.21558
984.74        73.20435
985.12        73.29285
985.51        72.39476
985.89        70.66798
986.28         68.8891
986.66        68.18456
987.04        68.86133
987.43        70.61795
987.81        72.83572
988.20         74.1031
988.58        73.96006
988.96        72.73399
989.35        71.04962
989.73        69.80238
990.12        69.21165
990.50        69.03928
990.88        68.92337
991.27        68.29597
991.65        67.08674
992.03        65.61977
992.42        64.37846
992.80        63.92245
993.18        64.37357
993.56        65.53223
993.95        66.96754
994.33        68.06422
994.71        68.42609
995.10        68.29308
995.48        67.87527
995.86        67.61784
996.24        67.63689
996.63        67.60221
997.01        67.65067
997.39        67.73568
997.77        67.80944
998.15         68.0514
998.54        68.09821
998.92        67.23776
999.30        65.54066
999.68        63.25656
1000.06        61.33571
1000.45        61.11242
1000.83        62.91662
1001.21        66.50204
1001.59        70.82369
1001.97        73.32969
1002.35        73.03542
1002.73        70.73074
1003.12        67.93332
1003.50        66.55553
1003.88        67.15185
1004.26          69.049
1004.64        71.76065
1005.02        74.17997
1005.40        75.65544
1005.78        76.65138
1006.16        76.80361
1006.54        75.51483
1006.92        73.00912
1007.30        69.55536
1007.69        66.46995
1008.07        65.51695
1008.45        67.17113
1008.83        71.04594
1009.21        76.03938
1009.59        79.25138
1009.97        79.24088
1010.35        76.87203
1010.73        73.07043
1011.11        69.22352
1011.49        66.04113
1011.86        63.25885
1012.24        61.38795
1012.62        61.11427
1013.00        62.42955
1013.38         65.2549
1013.76        68.93141
1014.14        71.51299
1014.52        71.96142
1014.90        70.65428
1015.28        68.21439
1015.66        65.65161
1016.04        63.33689
1016.41        60.99061
1016.79        59.00103
1017.17        58.19832
1017.55        58.71141
1017.93        60.33023
1018.31        62.27351
1018.69        63.34525
1019.06        63.29697
1019.44        62.38584
1019.82        60.93129
1020.20        59.87282
1020.58        59.63272
1020.95        59.71202
1021.33        60.17369
1021.71         61.0422
1022.09        62.31557
1022.46        64.37233
1022.84         66.3809
1023.22        66.35175
1023.60        63.77659
1023.97        59.21782
1024.35        55.22649
1024.73        54.67133
