SpectraSmart Spectrum 2.9.0.0
--------- Device Information -----------
Spectrum Name :  反射率_0
Saving Time :  2024/04/26 23:04:11
Spectro-Module Model Name : SE2030-DUVN
Spectro-Module Serial Number : OS361AC55029948
Wavelength Start : 200
Wavelength End : 1025
Wavelength Unit : Wavelength(nm)
Spectrum Unit : Reflectance(%)
-----------Spectrum Setting ------------
Integration Time : 20ms
Average : 10
Boxcar : 0
Background removal :  enabled
linearity correction :  enabled
SC :  disabled
Intensity correction :  disabled
DWT denoise :  enabled
savitzky-golay :  disabled
FFT :  disabled
Running average :  disabled
Kalman :  disabled
High pass :  disabled
---------------BEGIN--------------------
Wavelength(nm)             Reflectance(%)
200.29               0
200.75        46.23572
201.21        44.90787
201.67        43.65252
202.13        42.72612
202.58        42.07452
203.04        41.86908
203.50        42.62144
203.96        45.21966
204.42        49.99342
204.88        56.70701
205.34        63.51229
205.80        67.39127
206.26         67.4817
206.72        64.40503
207.18        60.75557
207.64        58.93202
208.10        59.15545
208.55        61.82043
209.01        65.22657
209.47         64.1414
209.93        58.28953
210.39        52.29261
210.85        49.32044
211.31        51.14122
211.77        58.91974
212.23        77.72441
212.69        127.1011
213.14        218.9711
213.60        231.2485
214.06        179.5071
214.52        138.1547
214.98        113.8819
215.44        96.57372
215.90         79.1056
216.36        64.24607
216.81        58.20881
217.27        63.45471
217.73        82.56129
218.19        112.1207
218.65        124.8219
219.11        109.6492
219.57        84.41333
220.02        66.97211
220.48         66.0029
220.94        80.06812
221.40        110.0228
221.86        154.2438
222.32        182.2514
222.77        168.9917
223.23         135.324
223.69        103.9491
224.15        87.43869
224.61         82.8695
225.06        83.41643
225.52        86.47954
225.98         89.4633
226.44        91.83439
226.90        94.78412
227.36        97.68154
227.81        98.96919
228.27        98.62233
228.73        96.72302
229.19        94.92732
229.65        95.39397
230.10        98.09975
230.56        102.4409
231.02        106.4187
231.48        106.8801
231.93        103.4926
232.39        98.19104
232.85        93.06587
233.31         90.8251
233.77        91.69837
234.22         94.5931
234.68        98.27824
235.14        100.9046
235.60        101.8047
236.05        101.6405
236.51        100.3034
236.97        97.97881
237.43        94.97517
237.88        91.22739
238.34        87.53416
238.80        85.51192
239.26        85.69948
239.71        88.86985
240.17        93.93755
240.63        97.93789
241.08        99.04184
241.54        96.36745
242.00        93.05527
242.46        96.04537
242.91        110.0389
243.37         138.073
243.83        179.8901
244.28        212.0263
244.74        203.9865
245.20        159.4823
245.66        110.1298
246.11        82.16631
246.57        75.15491
247.03        80.31601
247.48        90.23103
247.94        92.57787
248.40        86.36299
248.85        78.23541
249.31        71.42426
249.77        66.52755
250.22        62.77161
250.68        58.59804
251.14        54.38469
251.59        52.93461
252.05        55.82059
252.51        62.01305
252.96        67.81384
253.42        70.20438
253.88         69.5247
254.33        66.83107
254.79        65.17554
255.25        66.93011
255.70        71.78542
256.16        78.75421
256.62        84.71738
257.07        85.01044
257.53        81.05949
257.99        75.79175
258.44        71.49364
258.90        70.44999
259.35         71.5382
259.81        73.93125
260.27        76.24058
260.72         76.8246
261.18        75.92118
261.63        74.02694
262.09        72.26927
262.55        71.20315
263.00        70.72935
263.46        70.71638
263.91        70.61391
264.37        70.16231
264.83        69.28336
265.28        68.13007
265.74        67.14744
266.19        66.48073
266.65        66.24149
267.11        66.20229
267.56        66.22391
268.02        66.11285
268.47        65.78647
268.93        65.36165
269.38        64.76347
269.84        63.95975
270.30        62.96416
270.75        61.78253
271.21        60.67683
271.66        59.96469
272.12        59.69438
272.57        59.71437
273.03        59.73863
273.48        59.27285
273.94        58.29088
274.39        56.93514
274.85         55.5321
275.31        54.33438
275.76        53.39041
276.22         52.6701
276.67        52.07076
277.13        51.60604
277.58        51.15477
278.04        50.73806
278.49        50.23898
278.95        49.64397
279.40        48.87775
279.86        48.07475
280.31        47.13082
280.77        46.06477
281.22        44.87069
281.68        43.67536
282.13         42.6233
282.59        42.04351
283.04        41.89138
283.50        42.06829
283.95        42.30632
284.41        42.21101
284.86        41.67573
285.32        40.86934
285.77        39.94037
286.22        39.18248
286.68        38.66356
287.13        38.25225
287.59        37.90444
288.04        37.49649
288.50        37.03334
288.95        36.53639
289.41        36.05303
289.86        35.55163
290.32        35.08007
290.77        34.61419
291.22        34.19841
291.68        33.88545
292.13        33.66536
292.59        33.53793
293.04        33.47647
293.50        33.46484
293.95        33.48377
294.40        33.54729
294.86        33.64713
295.31        33.75822
295.77        33.88964
296.22        34.03675
296.68        34.23908
297.13        34.53851
297.58        34.94721
298.04        35.45117
298.49        36.00039
298.95        36.53559
299.40        37.02543
299.85        37.48086
300.31        37.92894
300.76        38.40127
301.21        38.90238
301.67        39.42265
302.12        39.90274
302.58        40.32255
303.03        40.64766
303.48        40.91823
303.94        41.16997
304.39        41.41168
304.84         41.6677
305.30        41.94093
305.75        42.20985
306.20         42.5042
306.66        42.82809
307.11        43.15031
307.57        43.44675
308.02        43.62242
308.47         43.6764
308.93        43.64046
309.38        43.55445
309.83        43.53833
310.29        43.61691
310.74        43.75571
311.19        43.88191
311.65        43.86958
312.10          43.689
312.55         43.3821
313.00        43.05482
313.46        42.86288
313.91        42.81853
314.36        42.88046
314.82        42.93535
315.27        42.81307
315.72        42.47573
316.18        42.00246
316.63        41.49191
317.08        41.11245
317.53        40.90534
317.99        40.80721
318.44        40.76874
318.89        40.69683
319.35        40.55482
319.80        40.37265
320.25        40.14747
320.70        39.87273
321.16        39.55502
321.61        39.20758
322.06        38.85768
322.51         38.5618
322.97        38.32983
323.42        38.14951
323.87        38.01506
324.32        37.91882
324.78         37.8323
325.23        37.77834
325.68        37.67712
326.13        37.41029
326.59        36.96704
327.04        36.40113
327.49        35.83648
327.94        35.47315
328.39        35.35017
328.85        35.39482
329.30        35.52986
329.75          35.538
330.20        35.35025
330.66         35.0213
331.11        34.63513
331.56         34.3003
332.01        34.05364
332.46        33.84873
332.92        33.65364
333.37        33.47475
333.82         33.2905
334.27        33.13204
334.72        32.98375
335.17        32.80556
335.63        32.59521
336.08        32.37798
336.53        32.21275
336.98        32.21305
337.43        32.39189
337.88        32.69547
338.34        33.02323
338.79        33.24179
339.24        33.28211
339.69        33.17899
340.14        32.95248
340.59        32.64613
341.05        32.30955
341.50        31.94676
341.95        31.61682
342.40        31.40466
342.85        31.32895
343.30         31.3692
343.75        31.49119
344.20        31.62951
344.66         31.7543
345.11        31.87024
345.56        31.94757
346.01        31.94757
346.46        31.87277
346.91        31.73542
347.36        31.58531
347.81        31.50834
348.26        31.52081
348.72        31.59319
349.17        31.68855
349.62        31.75919
350.07        31.78344
350.52        31.78017
350.97        31.72074
351.42        31.56186
351.87        31.31013
352.32        30.98226
352.77        30.65974
353.22        30.46165
353.67        30.40608
354.13        30.46174
354.58        30.54108
355.03        30.49544
355.48        30.29122
355.93        29.97948
356.38        29.64966
356.83        29.43448
357.28        29.36044
357.73        29.37688
358.18        29.41609
358.63        29.37311
359.08        29.21486
359.53        28.97371
359.98         28.6867
360.43          28.405
360.88        28.14239
361.33        27.88235
361.78        27.60816
362.23        27.29781
362.68        26.95745
363.13        26.61308
363.58        26.29182
364.03        26.02642
364.48        25.82396
364.93        25.66899
365.38        25.55581
365.83        25.47661
366.28        25.41778
366.73        25.37222
367.18          25.308
367.63        25.17797
368.08        24.97404
368.53        24.71061
368.98        24.42131
369.43        24.16121
369.88        23.95022
370.33        23.78027
370.78        23.64021
371.23        23.50912
371.68        23.37979
372.13        23.25728
372.58        23.15038
373.03        23.07071
373.48        23.01287
373.93        22.96244
374.38        22.88982
374.83        22.75431
375.28        22.54933
375.72         22.2861
376.17        22.01018
376.62        21.75963
377.07        21.55209
377.52        21.38638
377.97         21.2527
378.42        21.13637
378.87        21.03171
379.32        20.93398
379.77        20.86444
380.22        20.85275
380.67        20.89385
381.11         20.9826
381.56         21.0354
382.01        20.93752
382.46        20.67944
382.91        20.31452
383.36        19.95972
383.81        19.77591
384.26        19.78681
384.71          19.939
385.15        20.14342
385.60        20.24997
386.05        20.21238
386.50        20.08035
386.95        19.90148
387.40         19.7516
387.85         19.6554
388.29        19.56936
388.74        19.51359
389.19        19.47367
389.64        19.44128
390.09        19.42242
390.54        19.39175
390.98        19.30027
391.43        19.15733
391.88        18.97822
392.33        18.80704
392.78        18.70636
393.23        18.68504
393.67        18.71368
394.12         18.7719
394.57        18.79253
395.02        18.76051
395.47        18.68677
395.91        18.60743
396.36        18.57199
396.81        18.60375
397.26        18.68763
397.71         18.7737
398.15        18.80291
398.60        18.78841
399.05        18.67145
399.50        18.52837
399.95        18.60574
400.39        18.85778
400.84         18.9233
401.29         18.7748
401.74        18.66692
402.18        18.60496
402.63        18.41922
403.08         18.1774
403.53         18.0653
403.97        18.10737
404.42        18.25431
404.87        18.42813
405.32        18.50057
405.76        18.43861
406.21        18.29096
406.66        18.13248
407.11        18.08228
407.55        18.17036
408.00        18.34637
408.45        18.54032
408.90        18.61947
409.34        18.54608
409.79        18.37605
410.24        18.17453
410.68        18.02448
411.13         17.9557
411.58        17.93865
412.03        17.96266
412.47        18.01224
412.92        18.06594
413.37        18.13258
413.81        18.19039
414.26        18.22322
414.71        18.22262
415.15        18.19578
415.60        18.14944
416.05        18.11802
416.49         18.1161
416.94        18.13629
417.39        18.17307
417.83        18.21412
418.28        18.25362
418.73        18.29063
419.17        18.33238
419.62        18.38991
420.07        18.46074
420.51        18.53289
420.96        18.58377
421.41        18.57695
421.85         18.5037
422.30        18.37433
422.74        18.21928
423.19        18.16416
423.64        18.19231
424.08        18.17873
424.53        18.11069
424.98        18.10642
425.42        18.17539
425.87        18.20216
426.31        18.18967
426.76        18.27458
427.21          18.404
427.65        18.31918
428.10        18.08977
428.54        18.01676
428.99        18.12638
429.44        18.32198
429.88        18.51892
430.33        18.51325
430.77        18.34809
431.22         18.3859
431.66        18.60849
432.11        18.67219
432.56        18.57599
433.00         18.5554
433.45        18.55545
433.89        18.41372
434.34        18.24846
434.78        17.83883
435.23        18.19735
435.67        18.24941
436.12        18.24697
436.57        18.18062
437.01        18.07906
437.46        18.02933
437.90        18.03316
438.35         18.0144
438.79        17.97254
439.24        17.96996
439.68        18.00606
440.13        18.06244
440.57        18.12045
441.02        18.15632
441.46        18.15847
441.91        18.11795
442.35        18.04773
442.80         18.0779
443.24        18.16878
443.69        18.16113
444.13        18.06337
444.58        18.04101
445.02        18.09619
445.47        18.13965
445.91        18.16539
446.36        18.21231
446.80        18.27222
447.24        18.33086
447.69        18.37791
448.13        18.39087
448.58        18.37012
449.02        18.32121
449.47        18.25671
449.91        18.18727
450.36        18.12581
450.80        18.06865
451.25        18.02765
451.69        18.00729
452.13         18.0101
452.58        18.03225
453.02        18.06244
453.47        18.08433
453.91        18.09188
454.36        18.08982
454.80        18.07662
455.24        18.05062
455.69         18.0188
456.13        17.96903
456.58        17.92663
457.02        17.90199
457.46        17.90451
457.91        17.92959
458.35        17.94598
458.79        17.90847
459.24        17.82767
459.68        17.71214
460.13        17.61506
460.57        17.57116
461.01        17.60293
461.46        17.67982
461.90        17.79309
462.34        17.91348
462.79          18.017
463.23        18.11196
463.68        18.16454
464.12        18.13319
464.56        18.01604
465.01         17.8576
465.45        17.67861
465.89         17.5545
466.34        17.49807
466.78        17.48572
467.22        17.51517
467.67         17.5627
468.11        17.62616
468.55        17.70462
468.99        17.77791
469.44        17.81138
469.88        17.79978
470.32        17.74588
470.77        17.68174
471.21        17.66633
471.65        17.70975
472.10        17.79765
472.54        17.88837
472.98        17.92212
473.42        17.88678
473.87        17.80993
474.31        17.71788
474.75        17.66705
475.20         17.6751
475.64        17.71745
476.08        17.77666
476.52        17.81669
476.97        17.82826
477.41        17.83228
477.85        17.84502
478.29        17.86534
478.74        17.91071
479.18        18.01584
479.62         18.1509
480.06        18.23935
480.50        18.27424
480.95        18.27082
481.39        18.22696
481.83        18.31577
482.27        18.27064
482.72        18.30095
483.16        18.34157
483.60        18.37141
484.04        18.35985
484.48        18.48975
484.93        18.76495
485.37        18.62493
485.81        18.31014
486.25        18.95229
486.69        18.57922
487.14         18.7882
487.58        19.46795
488.02        19.24477
488.46        19.14931
488.90        19.09921
489.34        19.21214
489.79        19.33146
490.23        19.34946
490.67         19.4688
491.11        19.63817
491.55        19.67095
491.99         19.6026
492.43        19.63776
492.88        19.79283
493.32        19.95312
493.76        20.09105
494.20        20.22816
494.64        20.36219
495.08        20.44676
495.52        20.49466
495.96        20.65684
496.41        20.89356
496.85        20.89884
497.29        20.71995
497.73        20.88242
498.17        21.09613
498.61        21.29702
499.05        21.36236
499.49          21.426
499.93        21.44466
500.37        21.57298
500.82        21.77288
501.26        21.90393
501.70        21.95403
502.14        22.01062
502.58        22.09657
503.02        22.20338
503.46        22.33288
503.90        22.48402
504.34        22.62554
504.78        22.70551
505.22         22.7138
505.66        22.66857
506.10        22.60262
506.54        22.56929
506.98        22.58482
507.42        22.63395
507.86        22.70685
508.30        22.78534
508.74        22.86089
509.18        22.94181
509.62        23.01775
510.06        23.07136
510.50        23.10068
510.94        23.10613
511.38        23.11137
511.82        23.15631
512.26        23.24867
512.70        23.37901
513.14        23.51327
513.58        23.59554
514.02        23.61315
514.46        23.58034
514.90        23.53714
515.34        23.54907
515.78        23.62833
516.22        23.75118
516.66        23.87139
517.10         23.9158
517.54        23.86849
517.98        23.75715
518.42        23.62143
518.86        23.52351
519.30        23.48299
519.74        23.48085
520.18        23.50095
520.62        23.51736
521.06        23.52052
521.50        23.52147
521.93         23.5203
522.37        23.50655
522.81        23.48352
523.25        23.44885
523.69         23.4128
524.13        23.39474
524.57        23.39527
525.01         23.4052
525.45        23.40989
525.89        23.38507
526.32        23.32346
526.76        23.24257
527.20        23.14687
527.64        23.04563
528.08        22.94583
528.52        22.84431
528.96         22.7591
529.40        22.71756
529.83        22.72004
530.27        22.75989
530.71        22.79926
531.15        22.77902
531.59        22.68808
532.03        22.54363
532.46        22.38415
532.90        22.28744
533.34        22.26605
533.78        22.28407
534.22        22.30748
534.66        22.31114
535.09        22.26689
535.53        22.14317
535.97        21.97521
536.41        21.87386
536.85        21.85674
537.28        21.87248
537.72        21.91261
538.16        21.97998
538.60        22.06492
539.04        22.16614
539.47        22.26481
539.91        22.34591
540.35        22.40165
540.79        22.43621
541.22        22.46342
541.66        22.51567
542.10        22.59697
542.54        22.69828
542.97        22.80401
543.41        22.89924
543.85        22.97644
544.29        23.04493
544.72        23.10801
545.16        23.18502
545.60        23.27802
546.04        23.38825
546.47        23.51788
546.91        23.66534
547.35        23.82599
547.79        23.99809
548.22        24.17842
548.66        24.35737
549.10        24.55926
549.53        24.77126
549.97        24.98083
550.41        25.11221
550.84        25.18655
551.28        25.28081
551.72        25.39261
552.15        25.53383
552.59         25.7327
553.03        25.63443
553.46        26.00461
553.90        26.08364
554.34        26.07713
554.77        26.31312
555.21         26.2666
555.65        26.41024
556.08        26.57135
556.52        26.73903
556.96        26.87125
557.39        26.98892
557.83        27.06919
558.27        26.96793
558.70        26.75788
559.14        26.71481
559.57        26.84528
560.01        26.99115
560.45        27.11195
560.88        27.23076
561.32        27.34726
561.75        27.42828
562.19        27.48944
562.63        27.55606
563.06         27.6305
563.50        27.68824
563.93        27.71495
564.37        27.80815
564.80        27.95901
565.24        27.98953
565.68        27.86439
566.11        28.22343
566.55        28.06055
566.98        28.14388
567.42        28.21947
567.85         28.3844
568.29        28.63385
568.72        28.89972
569.16        29.17946
569.60        29.37599
570.03        29.59004
570.47        29.73886
570.90        29.85946
571.34        29.92627
571.77        30.10263
572.21        30.25534
572.64        30.37675
573.08        30.51846
573.51        30.47959
573.95        30.57369
574.38        30.76261
574.82        31.01149
575.25        30.65802
575.69        30.86294
576.12        30.90245
576.56        30.93154
576.99        31.02321
577.42        31.01049
577.86         31.0055
578.29        31.37882
578.73        31.23627
579.16        31.14168
579.60        30.80297
580.03        30.80934
580.47        30.78186
580.90        30.80276
581.33        30.79664
581.77        30.97167
582.20        30.36408
582.64        30.57398
583.07        30.36444
583.51        30.27724
583.94        30.11288
584.37        30.04398
584.81        30.07034
585.24        29.91311
585.68        29.68388
586.11        29.43958
586.54        29.71154
586.98        29.48839
587.41        29.22461
587.85        29.28056
588.28        28.95159
588.71        29.27256
589.15        29.12777
589.58        28.89594
590.01        29.14482
590.45        29.14103
590.88        29.12392
591.31        29.02374
591.75        28.95756
592.18        28.90096
592.61        28.81727
593.05         29.4436
593.48        29.73826
593.91        29.28047
594.35         29.3967
594.78        29.19123
595.21        29.18826
595.65        29.44969
596.08         29.9813
596.51        30.14543
596.94        29.97615
597.38        30.07819
597.81        30.49673
598.24        30.77476
598.68        30.92161
599.11        31.16521
599.54        31.78409
599.97        31.36137
600.41        32.18396
600.84        32.21021
601.27        32.56818
601.70        32.87299
602.14        33.22979
602.57        33.56451
603.00        33.95435
603.43        34.01537
603.87        35.00364
604.30        35.42234
604.73        35.70335
605.16          35.711
605.60        35.95528
606.03        36.20941
606.46        36.57411
606.89        36.95967
607.32        37.75505
607.76        37.91456
608.19        38.47269
608.62         38.6942
609.05         38.9444
609.48        39.23365
609.92        40.07987
610.35        40.10097
610.78        40.00993
611.21        40.30244
611.64        40.62836
612.07        41.10174
612.50        41.29839
612.94        41.58753
613.37        41.88281
613.80        41.92567
614.23        41.83405
614.66        42.08741
615.09        42.67221
615.52        43.10429
615.96         43.3019
616.39        43.57801
616.82        43.94629
617.25        43.83734
617.68        43.91595
618.11        44.14842
618.54        44.65632
618.97        44.96896
619.40        45.04037
619.84        45.20803
620.27        45.10396
620.70        45.31857
621.13        45.63715
621.56        45.50185
621.99        45.00125
622.42        44.88649
622.85         45.1808
623.28        45.25721
623.71        45.19908
624.14        45.28384
624.57        45.60701
625.00        45.56321
625.43        45.55251
625.86        45.41827
626.29        45.34561
626.72         44.8973
627.15        44.95294
627.58        44.79821
628.01        44.65263
628.44         44.4532
628.87        44.19775
629.30        43.90118
629.73        43.59378
630.16        43.34067
630.59        43.14942
631.02        42.99194
631.45        42.83674
631.88        42.63596
632.31        42.37033
632.74        42.05148
633.17        41.67979
633.60        41.25911
634.03        40.80052
634.46        40.30505
634.89        39.80071
635.32        39.34055
635.75        38.94186
636.18         38.5584
636.61        38.18825
637.04        37.84472
637.47        37.52015
637.89        37.20369
638.32        36.88493
638.75        36.58745
639.18        36.31516
639.61        36.06126
640.04        35.81947
640.47        35.57816
640.90        35.33433
641.33        35.09622
641.76        34.86975
642.18        34.66965
642.61        34.49478
643.04        34.34855
643.47         34.2437
643.90        34.19849
644.33        34.21274
644.76         34.2814
645.18        34.37799
645.61        34.45063
646.04        34.49199
646.47        34.51631
646.90         34.5602
647.33         34.6763
647.75        34.86819
648.18        35.16073
648.61        35.53548
649.04        35.83736
649.47        36.02685
649.89        36.65107
650.32        36.76565
650.75        37.24041
651.18        37.76009
651.61         38.1926
652.03        38.56335
652.46        39.03521
652.89        39.62136
653.32        40.13614
653.74        40.59818
654.17        40.94794
654.60        41.70353
655.03        41.86623
655.46        41.91083
655.88        42.68623
656.31        44.37569
656.74        45.13143
657.16        46.55561
657.59        47.94266
658.02        45.74189
658.45        46.22238
658.87        46.07701
659.30        46.70553
659.73        46.66056
660.15        47.89631
660.58        47.54673
661.01        47.68737
661.44        47.69904
661.86         47.8109
662.29         47.9966
662.72        48.59642
663.14        48.66811
663.57        48.88003
664.00        49.02744
664.42        49.34187
664.85        49.83791
665.27        50.37771
665.70        50.84138
666.13         51.1459
666.55        51.26722
666.98        51.18174
667.41        50.96543
667.83        51.07489
668.26        51.01385
668.69        51.18236
669.11        51.41914
669.54        51.64145
669.96        51.81398
670.39        52.21746
670.82        52.51142
671.24        52.52659
671.67        52.28524
672.09        52.38937
672.52        52.80982
672.94        52.98847
673.37        52.92068
673.80        52.92639
674.22        53.03694
674.65        53.11512
675.07          53.176
675.50        53.24809
675.92        53.33147
676.35        53.41407
676.77        53.49669
677.20        53.57415
677.62        53.65445
678.05        53.75515
678.47         53.8728
678.90        53.99945
679.32        54.11826
679.75        54.21098
680.17        54.26995
680.60        54.32012
681.02         54.3672
681.45        54.39065
681.87        54.42645
682.30        54.51503
682.72        54.66301
683.15        54.84818
683.57        55.03941
684.00        55.10547
684.42        55.10213
684.85         55.2448
685.27        55.53486
685.70        55.86822
686.12        56.14887
686.54        56.26909
686.97        56.21226
687.39        56.06008
687.82        55.88675
688.24        55.79068
688.66        55.81068
689.09        55.93608
689.51        56.12602
689.94        56.28445
690.36        56.39042
690.78        56.41605
691.21        56.40893
691.63        56.53638
692.06        56.76827
692.48        56.86596
692.90        56.80908
693.33        56.78084
693.75        56.78133
694.17        56.65889
694.60        56.52466
695.02        56.60169
695.44        56.88533
695.87        57.39525
696.29        57.93245
696.71        57.80822
697.14        57.16406
697.56        56.95654
697.98        57.24511
698.41        57.39346
698.83        57.35011
699.25         57.6189
699.68        58.05813
700.10        58.24524
700.52        58.10247
700.94        57.82183
701.37        57.54563
701.79        57.38026
702.21        57.43803
702.64        57.90343
703.06        58.60574
703.48        59.00282
703.90        59.00355
704.33         58.8554
704.75        58.65961
705.17        58.49199
705.59        58.41088
706.01        58.39034
706.44        58.42215
706.86        58.51402
707.28        58.64559
707.70         58.8188
708.12         59.0176
708.55        59.20007
708.97        59.34881
709.39        59.46386
709.81         59.5058
710.23         59.5433
710.66        59.56897
711.08         59.5759
711.50        59.55749
711.92        59.53231
712.34        59.50945
712.76        59.49526
713.19        59.48662
713.61        59.50902
714.03        59.55561
714.45         59.6272
714.87        59.72371
715.29        59.87387
715.71        60.07409
716.13        60.24562
716.56         60.3401
716.98         60.6479
717.40         60.6758
717.82        60.78941
718.24        60.80804
718.66        60.67114
719.08        60.39294
719.50        60.03326
719.92        59.70944
720.34        59.58439
720.76        59.69403
721.19        59.96378
721.61        60.35429
722.03        60.74808
722.45        61.08024
722.87        61.36569
723.29        61.53796
723.71        61.49817
724.13        61.24892
724.55        60.82753
724.97         60.3675
725.39        60.09742
725.81        60.07927
726.23        60.23831
726.65        60.48391
727.07        60.79264
727.49        60.89537
727.91        61.01001
728.33        61.09725
728.75        61.20656
729.17        61.34503
729.59        61.47625
730.01        61.58923
730.43        61.67373
730.85        61.72427
731.27        61.75058
731.69        61.73598
732.10        61.66409
732.52        61.55694
732.94        61.36188
733.36        61.11965
733.78        61.04277
734.20        61.20427
734.62        60.83551
735.04        61.57172
735.46        61.20896
735.88        61.41464
736.30        61.37214
736.72         61.8512
737.13         62.1457
737.55        62.24228
737.97         62.5191
738.39        62.82828
738.81        62.31318
739.23         61.2683
739.65         61.2903
740.06        62.22041
740.48        62.56495
740.90        62.24247
741.32        62.11736
741.74        62.27729
742.16        62.40117
742.57        62.48922
742.99        62.66336
743.41        62.83929
743.83        62.74734
744.25        62.43236
744.67        62.19775
745.08        62.13306
745.50        62.12324
745.92          62.191
746.34        62.43228
746.75        62.74324
747.17        62.86859
747.59        62.77844
748.01        62.56237
748.42        62.28965
748.84        62.13494
749.26         62.1531
749.68        62.09312
750.09        61.99459
750.51        62.37628
750.93        63.00736
751.35        62.88739
751.76          62.125
752.18        61.76364
752.60        61.85409
753.01        61.82391
753.43        61.67056
753.85        61.63248
754.27        61.70568
754.68         62.0556
755.10        62.34175
755.52        62.39241
755.93        62.18885
756.35        62.22869
756.77        62.53951
757.18        62.68772
757.60        62.68443
758.02        62.91081
758.43        63.20905
758.85        62.92495
759.26        62.90974
759.68        62.14116
760.10        61.81372
760.51        62.73373
760.93        63.17612
761.34        62.86502
761.76        63.17358
762.18        63.13584
762.59        63.36668
763.01         63.4214
763.42        63.41237
763.84        63.44859
764.26          63.529
764.67        63.38631
765.09        63.13317
765.50         63.1299
765.92        63.33942
766.33        63.28593
766.75        62.90105
767.16        62.64569
767.58        62.55966
768.00         62.3289
768.41        62.11519
768.83        62.57292
769.24        63.42369
769.66        63.72103
770.07        63.33165
770.49        62.77915
770.90        62.33889
771.32        62.74356
771.73        63.78691
772.15        64.16422
772.56        63.79396
772.97        63.43435
773.39         63.2586
773.80        63.22265
774.22        63.33372
774.63        63.55795
775.05        63.76951
775.46        63.91901
775.88        63.93931
776.29        63.84211
776.70        63.68386
777.12        63.60345
777.53        63.64214
777.95        63.71976
778.36        63.81132
778.77        63.84039
779.19        63.80759
779.60        63.76657
780.02        63.70436
780.43        63.67468
780.84        63.70955
781.26        63.51493
781.67        63.24584
782.09        63.74905
782.50        64.75526
782.91        64.81201
783.33        63.98123
783.74         63.6528
784.15        63.88809
784.57         63.8665
784.98         63.6385
785.39        63.65279
785.81        63.92921
786.22        64.36253
786.63        64.80075
787.04        64.99589
787.46        64.90548
787.87        64.58341
788.28        64.24585
788.70        64.15739
789.11         64.3442
789.52        64.87877
789.93        65.51474
790.35        65.51381
790.76        64.93929
791.17        64.63609
791.58        64.71077
792.00        64.58294
792.41        64.28667
792.82        64.43217
793.23        64.86517
793.65        64.63628
794.06        64.00372
794.47        64.20902
794.88        65.00037
795.29        65.91102
795.71        65.07307
796.12        64.89167
796.53        64.92661
796.94        64.56473
797.35         64.0191
797.76        64.38219
798.18        65.45701
798.59        65.95877
799.00        65.74055
799.41        65.47162
799.82        65.29465
800.23        65.16422
800.64        65.13509
801.06        65.17343
801.47        65.26606
801.88        65.31599
802.29        65.28405
802.70        65.18658
803.11        65.04612
803.52        64.88318
803.93        64.73935
804.34        64.66853
804.75        64.65423
805.17        64.64831
805.58         64.8728
805.99        64.87731
806.40        64.82168
806.81        65.73678
807.22        67.17262
807.63        67.01402
808.04        65.48569
808.45        64.77791
808.86        65.08281
809.27        65.27089
809.68        65.20755
810.09         65.1712
810.50        65.13552
810.91        65.07146
811.32        65.06814
811.73        65.22528
812.14        65.55133
812.55        66.01763
812.96        66.47356
813.37        66.62871
813.78        66.41353
814.19        65.94644
814.60        65.38786
815.01        64.95055
815.42         64.6917
815.83        64.54789
816.24        64.52026
816.65        64.60507
817.05        64.78592
817.46        65.04678
817.87        65.31125
818.28        65.40965
818.69        65.31181
819.10         65.0375
819.51        64.73356
819.92        64.67897
820.33         64.9392
820.74        65.42517
821.14        65.94882
821.55        66.20199
821.96        66.11204
822.37         65.7783
822.78         65.3522
823.19        65.08999
823.60        65.07884
824.00        65.26444
824.41        65.52396
824.82         65.7477
825.23        65.87663
825.64        65.95216
826.04        65.99732
826.45        66.00658
826.86        66.00101
827.27        65.97394
827.68        65.92479
828.08        65.88824
828.49        65.82578
828.90        65.75338
829.31        65.70872
829.72        65.74892
830.12        65.90038
830.53        66.09153
830.94        66.24372
831.35        66.17911
831.75        65.88129
832.16        65.39557
832.57        64.87598
832.97         64.5427
833.38        64.45971
833.79        64.54899
834.20        64.75777
834.60        64.99586
835.01         65.2235
835.42        65.50301
835.82        65.77986
836.23        65.88438
836.64        65.81611
837.04         65.5766
837.45         65.3638
837.86        65.56941
838.26        66.27599
838.67        67.32752
839.08        68.35063
839.48        68.63754
839.89        68.01634
840.29        66.75419
840.70        65.41629
841.11        64.63879
841.51        64.59125
841.92         65.0695
842.33        65.85197
842.73        66.53942
843.14        66.87035
843.54        67.00359
843.95        67.03085
844.35        67.15356
844.76         67.3987
845.17         67.6705
845.57        67.86111
845.98         67.7909
846.38        67.45262
846.79        66.92432
847.19        66.35419
847.60        65.94375
848.00        65.76873
848.41        65.75598
848.81        65.86176
849.22        65.92666
849.62        65.93798
850.03        65.92741
850.43        65.92392
850.84        65.90762
851.24         65.9222
851.65        65.89365
852.05         65.9278
852.46        66.11312
852.86        66.44492
853.27        66.87212
853.67         67.1985
854.07        67.25994
854.48        67.01135
854.88        66.54433
855.29        65.93205
855.69         65.4422
856.10        65.11726
856.50        64.96901
856.90        64.95474
857.31        65.01161
857.71        65.15004
858.12        65.32104
858.52        65.51383
858.92        65.59859
859.33        65.52193
859.73        65.34377
860.13        65.05321
860.54        64.67037
860.94        64.27435
861.34        63.87426
861.75        63.54715
862.15        63.45148
862.55        63.59342
862.96        63.88655
863.36        64.30051
863.76        64.69078
864.17        64.97469
864.57         65.2112
864.97        65.27388
865.38         64.9893
865.78        64.38634
866.18        63.50563
866.58        62.64389
866.99        62.32973
867.39        62.70956
867.79        63.62057
868.19        64.70385
868.60         65.3807
869.00        65.53018
869.40        65.27679
869.80        64.83546
870.21        64.62899
870.61        64.84822
871.01        65.28222
871.41        65.70425
871.81        65.81329
872.22        65.54025
872.62        64.99243
873.02        64.34896
873.42        63.89627
873.82        63.72882
874.22        63.76347
874.63        63.84576
875.03        63.75012
875.43        63.41641
875.83        62.94685
876.23        62.49061
876.63         62.2638
877.03        62.32595
877.44        62.57675
877.84        62.93355
878.24         63.2833
878.64        63.50983
879.04        63.47436
879.44        63.31173
879.84        63.34938
880.24         63.6097
880.64        63.96391
881.04        64.16581
881.44        63.85181
881.84        62.98788
882.24        61.74227
882.65        60.52384
883.05        59.94991
883.45        60.16413
883.85        60.98545
884.25        62.07753
884.65        62.85076
885.05        63.10589
885.45        63.00473
885.85        62.72421
886.25        62.54808
886.65        62.56289
887.05         62.6518
887.45        62.76107
887.85        62.82447
888.25        62.81316
888.65        62.78176
889.04        62.71946
889.44        62.61479
889.84        62.46441
890.24        62.26834
890.64        62.08374
891.04        62.01238
891.44        62.07489
891.84        62.24803
892.24        62.45143
892.64        62.55602
893.04         62.5452
893.44         62.4688
893.83        62.42667
894.23        62.53321
894.63         62.8265
895.03        63.22809
895.43        63.66915
895.83        64.04623
896.23        64.29932
896.63        64.44401
897.02        64.41643
897.42        64.14741
897.82         63.6571
898.22        63.01167
898.62        62.35036
899.01        61.86981
899.41        61.63849
899.81        61.59903
900.21        61.70428
900.61        61.86403
901.00        62.02869
901.40        62.20939
901.80        62.36103
902.20        62.40924
902.59        62.35651
902.99        62.21632
903.39        62.04626
903.79        61.94844
904.18        61.94213
904.58        61.99231
904.98        62.11919
905.38        62.35846
905.77          62.699
906.17        63.15209
906.57        63.55005
906.96        63.61736
907.36        63.29599
907.76        62.67505
908.15        62.07112
908.55        61.96738
908.95        62.47092
909.34        63.44957
909.74        64.50013
910.14        65.03581
910.53        64.86787
910.93        64.18867
911.33        63.29507
911.72        62.63489
912.12        62.40283
912.52        62.48002
912.91        62.67576
913.31        62.72186
913.70        62.55568
914.10        62.22455
914.49        62.00513
914.89        62.27155
915.29        63.09525
915.68        64.33658
916.08        65.47633
916.47        65.73262
916.87        64.96986
917.26        63.45399
917.66        61.83111
918.05         60.9099
918.45         60.8813
918.84        61.55347
919.24        62.49537
919.64        63.07084
920.03         63.0782
920.42        62.67909
920.82          62.223
921.21          62.188
921.61        62.67258
922.00        63.54465
922.40         64.4375
922.79        64.86643
923.19        64.66759
923.58        64.04037
923.98        63.34694
924.37        63.04922
924.77        63.26954
925.16        63.82624
925.55         64.4906
925.95        64.85339
926.34         64.7954
926.74        64.42419
927.13        63.87809
927.52        63.30453
927.92        62.82864
928.31        62.41371
928.70        62.08357
929.10        61.84735
929.49        61.69172
929.89        61.57096
930.28        61.63189
930.67        62.00363
931.07         62.6493
931.46        63.57487
931.85         64.3829
932.24        64.48395
932.64        63.82931
933.03        62.59124
933.42        61.35844
933.82        60.99164
934.21         61.6677
934.60        63.17331
934.99        64.97308
935.39        66.08905
935.78         66.2374
936.17        65.58809
936.56        64.59633
936.96        63.98467
937.35        63.94699
937.74        64.27164
938.13        64.55407
938.53        64.19704
938.92        63.11905
939.31        61.60871
939.70         60.1545
940.09        59.41483
940.49        59.50611
940.88        60.26263
941.27        61.33476
941.66        62.07895
942.05        62.27696
942.44        62.11471
942.84        61.86444
943.23        61.95435
943.62        62.49322
944.01        63.27801
944.40        64.12025
944.79        64.75502
945.18        65.06392
945.57        65.11561
945.97        64.88369
946.36        64.43391
946.75        63.79346
947.14        63.01589
947.53        62.20671
947.92        61.49322
948.31        60.92947
948.70        60.52711
949.09         60.3235
949.48        60.35836
949.87        60.62213
950.26        61.07458
950.65        61.63327
951.04        62.16952
951.43        62.60274
951.82        62.91197
952.21        63.05755
952.60        63.00048
952.99        62.77512
953.38        62.45018
953.77        62.08677
954.16        61.78432
954.55        61.57391
954.94        61.38874
955.33        61.36193
955.72        61.70036
956.11        62.40429
956.50        63.44396
956.89        64.33259
957.28        64.25999
957.66        63.09539
958.05        61.14622
958.44        59.18913
958.83          58.346
959.22        58.82294
959.61        60.32292
960.00        62.15013
960.39        62.99618
960.78        62.46772
961.16         60.9828
961.55        59.29212
961.94        58.39906
962.33         58.5501
962.72        59.46439
963.11        60.69101
963.49        61.40683
963.88        61.24815
964.27        60.49981
964.66        59.66521
965.04        59.48767
965.43         60.0836
965.82        61.27019
966.21         62.5217
966.60        62.85194
966.98        61.97739
967.37        60.33321
967.76         58.6406
968.15        57.79403
968.53        57.96552
968.92        58.91364
969.31        60.16613
969.69        60.79253
970.08        60.41898
970.47        59.38168
970.86        58.28697
971.24        57.97895
971.63        58.63016
972.02        59.98415
972.40        61.56398
972.79        62.20151
973.17        61.61296
973.56        60.23537
973.95         58.6962
974.33        57.77678
974.72        57.67104
975.11        58.12357
975.49        58.94855
975.88        59.73484
976.26        60.30964
976.65        60.70786
977.04        60.94633
977.42        61.02193
977.81        60.90963
978.19        60.57248
978.58        60.09801
978.96        59.61197
979.35        59.14604
979.74        58.72285
980.12        58.42678
980.51        58.17645
980.89        58.09064
981.28        58.17613
981.66        58.42363
982.05        58.77475
982.43        59.21931
982.82        59.70342
983.20        60.35532
983.59        61.32153
983.97        62.63026
984.35        64.15221
984.74        65.38602
985.12        65.75858
985.51         65.1054
985.89         63.6979
986.28        62.12159
986.66         61.1704
987.04        61.09984
987.43        61.62774
987.81        62.53429
988.20        63.25145
988.58        63.54073
988.96        63.52194
989.35        63.13671
989.73        62.27875
990.12        60.99157
990.50        59.33601
990.88        57.61289
991.27        56.46047
991.65        56.10787
992.03        56.40249
992.42        57.14946
992.80        58.02421
993.18        58.92918
993.56        59.93941
993.95        60.85025
994.33        61.46545
994.71        61.60332
995.10        61.34849
995.48        60.88634
995.86        60.63866
996.24        60.70055
996.63        60.82578
997.01        61.08323
997.39        61.27379
997.77         61.2846
998.15         61.2829
998.54        61.02984
998.92        60.01825
999.30        58.36761
999.68        56.33096
1000.06        54.64235
1000.45        54.31624
1000.83        55.62395
1001.21        58.32602
1001.59        61.83436
1001.97        64.55556
1002.35        65.71608
1002.73        65.72427
1003.12        65.11062
1003.50        64.51064
1003.88        64.24428
1004.26        63.89056
1004.64        63.74966
1005.02        64.43073
1005.40          65.972
1005.78        68.40096
1006.16        70.43497
1006.54        70.00143
1006.92        66.96609
1007.30        62.09973
1007.69        57.43331
1008.07        55.72536
1008.45        57.72686
1008.83        62.83768
1009.21        69.42321
1009.59        73.40591
1009.97        72.84836
1010.35        68.93619
1010.73        63.54236
1011.11        59.36278
1011.49        57.21153
1011.86        56.31004
1012.24        56.19096
1012.62        56.26119
1013.00         56.3073
1013.38        56.59762
1013.76        57.29303
1014.14        58.47343
1014.52        59.98223
1014.90        61.47498
1015.28        62.50286
1015.66        62.66528
1016.04        61.95341
1016.41        60.54517
1016.79        58.76283
1017.17         57.3053
1017.55        56.50075
1017.93        56.22854
1018.31         56.4299
1018.69        56.97715
1019.06        57.81157
1019.44        59.04447
1019.82        60.44191
1020.20        61.34852
1020.58        61.41956
1020.95        60.64437
1021.33        59.62703
1021.71        59.02742
1022.09        58.96869
1022.46        59.45803
1022.84        59.94648
1023.22        59.27895
1023.60         57.2643
1023.97        54.36079
1024.35        52.08703
1024.73        51.96121
