SpectraSmart Spectrum 2.9.0.0
--------- Device Information -----------
Spectrum Name :  反射率_0
Saving Time :  2024/04/26 23:03:18
Spectro-Module Model Name : SE2030-DUVN
Spectro-Module Serial Number : OS361AC55029948
Wavelength Start : 200
Wavelength End : 1025
Wavelength Unit : Wavelength(nm)
Spectrum Unit : Reflectance(%)
-----------Spectrum Setting ------------
Integration Time : 20ms
Average : 10
Boxcar : 0
Background removal :  enabled
linearity correction :  enabled
SC :  disabled
Intensity correction :  disabled
DWT denoise :  enabled
savitzky-golay :  disabled
FFT :  disabled
Running average :  disabled
Kalman :  disabled
High pass :  disabled
---------------BEGIN--------------------
Wavelength(nm)             Reflectance(%)
200.29               0
200.75        29.53246
201.21        29.28705
201.67        29.34855
202.13        29.46776
202.58        29.47113
203.04        29.89171
203.50        30.59504
203.96        30.80061
204.42        30.08165
204.88        28.26304
205.34        26.25856
205.80        25.97423
206.26        27.47295
206.72        29.73676
207.18         31.3331
207.64        30.86061
208.10        28.13511
208.55        23.25525
209.01        15.95998
209.47        10.68194
209.93        10.99598
210.39        14.32599
210.85         18.1515
211.31         21.8517
211.77        26.68244
212.23        36.28778
212.69        59.05505
213.14        96.63925
213.60        93.33033
214.06        64.37553
214.52        45.83224
214.98        39.21199
215.44        38.35477
215.90        39.83037
216.36        41.51355
216.81        40.06479
217.27         34.5679
217.73        25.46589
218.19        13.26727
218.65        5.919146
219.11        8.729777
219.57        15.93247
220.02        23.73926
220.48        32.45023
220.94        43.81607
221.40         60.7889
221.86        82.97913
222.32        95.86054
222.77        87.81065
223.23        69.18564
223.69        51.57575
224.15        41.36302
224.61        37.17772
225.06         35.8981
225.52        36.52241
225.98        38.10373
226.44        40.24075
226.90        43.29154
227.36        46.31399
227.81        47.48394
228.27         46.6346
228.73        44.23291
229.19         41.8681
229.65        41.46318
230.10         43.0951
230.56        46.18754
231.02        49.21373
231.48        49.75116
231.93        47.50392
232.39        43.80037
232.85        40.33073
233.31        39.26358
233.77        40.75871
234.22        44.00641
234.68        47.68613
235.14        49.82973
235.60        49.83044
236.05        48.23457
236.51        45.69878
236.97        43.72924
237.43         43.0216
237.88        43.16254
238.34         43.7629
238.80         44.3477
239.26        44.74078
239.71        45.59248
240.17        46.55065
240.63        46.96917
241.08         46.6595
241.54        45.11533
242.00        44.08751
242.46        47.32496
242.91        57.58086
243.37        77.47447
243.83        107.7391
244.28        134.3181
244.74        136.4946
245.20        113.2786
245.66        83.30991
246.11        63.91436
246.57        55.89678
247.03        54.31387
247.48        54.87065
247.94        51.30897
248.40        44.50703
248.85         38.2299
249.31        34.28234
249.77        33.26614
250.22         34.7241
250.68        38.22864
251.14        43.49245
251.59        48.40184
252.05         51.0873
252.51        52.15145
252.96        51.45308
253.42        49.50908
253.88         46.9794
254.33        43.88082
254.79        42.31688
255.25        43.88704
255.70        48.23782
256.16        54.68145
256.62        60.52144
257.07        61.56001
257.53        58.76604
257.99        54.60733
258.44        51.18927
258.90        50.55085
259.35        51.79736
259.81        54.16056
260.27        56.35016
260.72        56.82074
261.18        55.77504
261.63        53.78001
262.09        51.94535
262.55        50.95747
263.00        50.72361
263.46        51.00267
263.91        51.17447
264.37        50.75674
264.83        49.69334
265.28        48.22525
265.74        46.89677
266.19        46.07825
266.65        45.87322
267.11        46.02922
267.56        46.24886
268.02        46.07403
268.47        45.39796
268.93        44.41598
269.38        43.31887
269.84        42.44971
270.30         41.8714
270.75        41.44008
271.21        41.09767
271.66        40.70595
272.12        40.22004
272.57        39.67664
273.03        39.02982
273.48        38.18792
273.94        37.22341
274.39        36.15127
274.85        35.17631
275.31        34.44801
275.76        33.95827
276.22        33.67658
276.67        33.46167
277.13        33.19493
277.58        32.79271
278.04        32.32756
278.49        31.77975
278.95        31.23953
279.40        30.68557
279.86        30.16297
280.31        29.63561
280.77        29.15943
281.22        28.70168
281.68        28.30796
282.13        27.95162
282.59        27.67459
283.04        27.44056
283.50        27.25299
283.95        27.06995
284.41        26.84462
284.86         26.5698
285.32        26.28927
285.77        26.01899
286.22        25.83783
286.68        25.75518
287.13        25.71073
287.59        25.69563
288.04         25.6522
288.50        25.58412
288.95        25.48439
289.41        25.35527
289.86        25.13663
290.32        24.86834
290.77        24.56361
291.22        24.30777
291.68        24.21347
292.13         24.2937
292.59        24.52975
293.04         24.8664
293.50        25.23304
293.95        25.58948
294.40        25.95072
294.86         26.3242
295.31        26.71581
295.77        27.13395
296.22        27.56263
296.68        27.99555
297.13        28.41459
297.58        28.82533
298.04        29.23515
298.49        29.66867
298.95        30.17877
299.40        30.75736
299.85        31.38164
300.31        31.99381
300.76        32.49695
301.21        32.87255
301.67        33.16103
302.12        33.38936
302.58         33.6573
303.03        33.96375
303.48        34.30307
303.94        34.65285
304.39        34.94666
304.84        35.18158
305.30        35.38055
305.75        35.55112
306.20        35.75896
306.66         36.0139
307.11        36.27313
307.57        36.48698
308.02        36.53394
308.47        36.41433
308.93        36.18523
309.38        35.91988
309.83        35.77452
310.29        35.78524
310.74        35.90396
311.19        36.05884
311.65         36.1255
312.10        36.06147
312.55        35.89879
313.00        35.70092
313.46          35.562
313.91        35.48736
314.36        35.45205
314.82        35.38438
315.27        35.18556
315.72        34.83922
316.18        34.40008
316.63        33.94909
317.08        33.62031
317.53        33.44371
317.99        33.37403
318.44         33.3499
318.89         33.2589
319.35        33.06519
319.80        32.79726
320.25        32.49431
320.70        32.21954
321.16        31.98967
321.61        31.79638
322.06        31.60115
322.51        31.34861
322.97        31.02597
323.42        30.65708
323.87        30.30793
324.32        30.08665
324.78        29.99938
325.23        30.02658
325.68        30.04801
326.13        29.87099
326.59        29.45242
327.04        28.86688
327.49        28.24212
327.94         27.7784
328.39         27.5228
328.85        27.40555
329.30        27.36552
329.75        27.24025
330.20        26.98125
330.66        26.63762
331.11        26.27966
331.56        25.99073
332.01        25.79679
332.46        25.66289
332.92        25.54161
333.37        25.40312
333.82        25.21821
334.27        25.00498
334.72        24.79137
335.17        24.61635
335.63        24.49016
336.08        24.41828
336.53        24.36392
336.98         24.2781
337.43        24.14623
337.88        23.96803
338.34        23.79882
338.79        23.75694
339.24         23.8521
339.69        24.05611
340.14        24.23907
340.59        24.19308
341.05        23.89235
341.50        23.40529
341.95        22.90892
342.40        22.67438
342.85        22.75599
343.30        23.06057
343.75        23.43122
344.20        23.61174
344.66        23.52966
345.11        23.26517
345.56        22.91438
346.01        22.62792
346.46          22.464
346.91        22.38384
347.36        22.35735
347.81        22.34432
348.26        22.32685
348.72        22.31511
349.17        22.33002
349.62         22.4089
350.07        22.54576
350.52         22.7204
350.97         22.8442
351.42        22.78271
351.87        22.52435
352.32        22.12617
352.77        21.72045
353.22        21.50123
353.67        21.50734
354.13         21.6794
354.58         21.9164
355.03        22.04885
355.48        22.02238
355.93        21.89005
356.38        21.70495
356.83        21.54756
357.28        21.44004
357.73        21.34502
358.18        21.25116
358.63        21.14848
359.08        21.03315
359.53        20.92325
359.98         20.8038
360.43        20.64201
360.88        20.43803
361.33        20.20191
361.78        19.97905
362.23          19.845
362.68        19.81377
363.13        19.86019
363.58         19.9277
364.03        19.92722
364.48        19.83465
364.93        19.67246
365.38         19.4833
365.83         19.3399
366.28        19.26257
366.73        19.22811
367.18        19.20089
367.63        19.12622
368.08        18.99217
368.53        18.82096
368.98        18.64412
369.43        18.50829
369.88        18.42533
370.33        18.37851
370.78        18.34462
371.23        18.28718
371.68        18.19499
372.13        18.08053
372.58        17.95831
373.03        17.84992
373.48        17.76214
373.93        17.68742
374.38        17.61924
374.83        17.54887
375.28        17.47357
375.72        17.39274
376.17        17.32113
376.62        17.25721
377.07        17.20251
377.52         17.1567
377.97        17.11533
378.42        17.07487
378.87        17.03074
379.32        16.97453
379.77        16.91556
380.22        16.86729
380.67        16.82753
381.11        16.80037
381.56        16.73902
382.01        16.58602
382.46        16.34612
382.91        16.05461
383.36        15.78949
383.81        15.65378
384.26        15.66068
384.71        15.77728
385.15        15.93575
385.60        16.02446
386.05          16.007
386.50        15.91329
386.95        15.78877
387.40        15.70656
387.85        15.68424
388.29        15.68441
388.74        15.69434
389.19        15.66328
389.64        15.58217
390.09        15.46675
390.54        15.34192
390.98        15.24273
391.43        15.18903
391.88        15.16618
392.33        15.14931
392.78        15.10316
393.23        15.02196
393.67        14.91163
394.12        14.80986
394.57        14.74054
395.02        14.70766
395.47        14.69633
395.91        14.68942
396.36         14.6501
396.81        14.58057
397.26        14.49749
397.71        14.41272
398.15        14.35163
398.60         14.3347
399.05        14.28928
399.50        14.22987
399.95        14.28277
400.39        14.40038
400.84         14.3303
401.29        14.08726
401.74        13.91935
402.18        13.84673
402.63        13.72165
403.08         13.5839
403.53        13.55617
403.97        13.64338
404.42        13.81102
404.87        13.97504
405.32        13.99775
405.76        13.85199
406.21        13.59079
406.66         13.3103
407.11        13.16158
407.55        13.18409
408.00        13.32686
408.45        13.51741
408.90        13.61646
409.34        13.57915
409.79         13.4555
410.24        13.30239
410.68        13.19466
411.13        13.15531
411.58        13.15165
412.03        13.16293
412.47        13.16024
412.92        13.12779
413.37        13.08665
413.81        13.03525
414.26        12.97613
414.71         12.9081
415.15        12.83149
415.60        12.75867
416.05        12.72561
416.49        12.74117
416.94         12.7933
417.39        12.85635
417.83         12.8884
418.28        12.87671
418.73        12.82975
419.17         12.7675
419.62        12.72379
420.07        12.70838
420.51        12.70827
420.96        12.70743
421.41        12.67965
421.85        12.61588
422.30        12.52345
422.74        12.41865
423.19        12.38014
423.64        12.39362
424.08         12.3758
424.53        12.31303
424.98        12.28142
425.42        12.28797
425.87        12.25477
426.31        12.19801
426.76        12.23227
427.21        12.32447
427.65        12.29495
428.10        12.16829
428.54        12.11163
428.99        12.13751
429.44        12.19445
429.88          12.246
430.33        12.18887
430.77        12.05938
431.22        12.08441
431.66        12.24357
432.11        12.29059
432.56        12.21841
433.00        12.20024
433.45        12.20093
433.89        12.07698
434.34        11.92573
434.78        11.67696
435.23        11.97243
435.67        12.01555
436.12        11.96565
436.57        11.86566
437.01        11.74755
437.46        11.67068
437.90        11.64333
438.35        11.61568
438.79        11.58109
439.24        11.56841
439.68        11.57532
440.13        11.59254
440.57        11.61219
441.02        11.63272
441.46        11.64871
441.91        11.62817
442.35          11.577
442.80        11.61809
443.24        11.70344
443.69        11.63577
444.13          11.448
444.58        11.37533
445.02        11.42899
445.47        11.48734
445.91        11.52797
446.36        11.57175
446.80         11.6061
447.24        11.62451
447.69        11.62833
448.13        11.61433
448.58        11.58742
449.02        11.54896
449.47        11.50557
449.91        11.46286
450.36        11.42775
450.80        11.39854
451.25        11.38327
451.69        11.38668
452.13        11.40756
452.58        11.43981
453.02        11.46946
453.47        11.47598
453.91         11.4545
454.36        11.41393
454.80        11.35805
455.24        11.29295
455.69        11.22828
456.13        11.15533
456.58         11.1003
457.02        11.08255
457.46        11.10862
457.91        11.17193
458.35        11.23263
458.79        11.22839
459.24        11.15985
459.68        11.03951
460.13        10.92857
460.57        10.88855
461.01        10.94077
461.46        11.05429
461.90         11.1926
462.34        11.28256
462.79        11.29823
463.23        11.26554
463.68         11.2035
464.12        11.15266
464.56        11.12444
465.01        11.11647
465.45        11.10861
465.89        11.10713
466.34        11.11025
466.78        11.11847
467.22        11.13097
467.67        11.13293
468.11        11.12832
468.55        11.11516
468.99        11.10167
469.44        11.10081
469.88        11.11532
470.32        11.14011
470.77         11.1691
471.21        11.19441
471.65        11.21206
472.10        11.22822
472.54        11.23909
472.98        11.24395
473.42        11.24443
473.87        11.24343
474.31         11.2446
474.75        11.26536
475.20        11.30965
475.64        11.36738
476.08        11.42712
476.52         11.4644
476.97        11.47504
477.41        11.47259
477.85        11.47305
478.29        11.48564
478.74        11.52494
479.18        11.61205
479.62        11.72524
480.06        11.81059
480.50        11.86037
480.95        11.88335
481.39        11.87994
481.83        11.96483
482.27        11.96713
482.72        12.03017
483.16        12.10309
483.60         12.1551
484.04        12.17539
484.48        12.26349
484.93        12.45396
485.37        12.41326
485.81        12.55019
486.25         12.8408
486.69        12.72211
487.14         12.7765
487.58        13.50804
488.02        13.18745
488.46        12.92416
488.90        13.00469
489.34        12.97095
489.79        13.17728
490.23        13.31259
490.67        13.55692
491.11        13.82266
491.55        13.88067
491.99         13.7822
492.43         13.7996
492.88        13.95808
493.32        14.09666
493.76        14.19508
494.20        14.30731
494.64        14.43429
495.08        14.53442
495.52        14.61546
495.96        14.78444
496.41        15.01123
496.85        15.06658
497.29        14.97982
497.73        15.14978
498.17        15.35663
498.61        15.50135
499.05        15.51267
499.49        15.56752
499.93        15.64266
500.37          15.812
500.82        16.03134
501.26        16.18454
501.70        16.25519
502.14        16.31124
502.58        16.38164
503.02        16.47948
503.46        16.61077
503.90        16.76865
504.34        16.91933
504.78        17.00665
505.22        17.01954
505.66        16.97975
506.10        16.92239
506.54        16.90269
506.98        16.93806
507.42        17.01257
507.86        17.11433
508.30        17.22263
508.74        17.32578
509.18         17.4281
509.62        17.52063
510.06        17.58899
510.50         17.6305
510.94        17.64588
511.38        17.64581
511.82        17.65034
512.26        17.66649
512.70        17.69222
513.14        17.72308
513.58        17.74956
514.02        17.77024
514.46        17.78997
514.90        17.81437
515.34        17.85151
515.78        17.90126
516.22         17.9567
516.66        18.01062
517.10        18.05305
517.54        18.07946
517.98        18.09216
518.42        18.08898
518.86        18.06722
519.30        18.02959
519.74        17.97931
520.18        17.92786
520.62        17.89203
521.06        17.87689
521.50        17.88054
521.93        17.89561
522.37        17.90163
522.81        17.89523
523.25        17.87809
523.69        17.85863
524.13        17.85092
524.57        17.85508
525.01        17.86362
525.45        17.86066
525.89         17.8218
526.32        17.74281
526.76        17.64047
527.20        17.53192
527.64         17.4445
528.08        17.38671
528.52        17.34964
528.96        17.33026
529.40        17.32335
529.83        17.32224
530.27        17.32727
530.71        17.32374
531.15        17.28973
531.59        17.22271
532.03        17.12991
532.46        17.02551
532.90        16.94532
533.34        16.89609
533.78        16.86065
534.22        16.83391
534.66        16.82718
535.09        16.82442
535.53        16.79005
535.97        16.73008
536.41        16.69727
536.85        16.69661
537.28        16.69804
537.72        16.70721
538.16        16.74635
538.60        16.81411
539.04        16.90217
539.47         16.9909
539.91         17.0612
540.35        17.10555
540.79        17.13257
541.22        17.15409
541.66        17.19584
542.10        17.26205
542.54        17.34481
542.97         17.4375
543.41        17.53643
543.85        17.63711
544.29        17.74584
544.72        17.85357
545.16        17.95863
545.60        18.05857
546.04        18.15511
546.47        18.26696
546.91        18.42079
547.35        18.61546
547.79           18.84
548.22        19.06041
548.66        19.22198
549.10        19.33829
549.53        19.41658
549.97        19.48757
550.41        19.55683
550.84        19.65671
551.28        19.82724
551.72        20.02999
552.15        20.21925
552.59        20.40717
553.03        20.30974
553.46        20.55319
553.90         20.6289
554.34        20.72187
554.77        20.82275
555.21        20.93811
555.65        21.06144
556.08         21.1805
556.52        21.28723
556.96        21.36953
557.39        21.46634
557.83        21.56132
558.27        21.53522
558.70        21.42774
559.14        21.43232
559.57        21.54742
560.01        21.65385
560.45        21.73341
560.88        21.82548
561.32        21.93457
561.75        22.02914
562.19        22.10822
562.63        22.16625
563.06        22.20094
563.50        22.21637
563.93         22.2198
564.37         22.2804
564.80         22.4134
565.24        22.54783
565.68        22.60688
566.11        22.96302
566.55        22.78482
566.98        22.77666
567.42        22.77294
567.85        22.87238
568.29         23.0963
568.72        23.42086
569.16        23.80087
569.60        24.05696
570.03        24.25857
570.47        24.36808
570.90        24.42636
571.34        24.52519
571.77        24.67909
572.21        24.81933
572.64        24.89501
573.08        25.19338
573.51        25.20741
573.95        25.31439
574.38         25.4125
574.82        25.60506
575.25        25.50578
575.69        25.59929
576.12        25.74822
576.56        25.75793
576.99        25.69859
577.42        25.74029
577.86         25.7878
578.29        26.18167
578.73        26.00042
579.16        25.89719
579.60         25.6018
580.03        25.60433
580.47        25.59625
580.90        25.57319
581.33        25.68207
581.77        25.63663
582.20        25.37907
582.64        25.38624
583.07        25.20618
583.51        24.99147
583.94        24.71618
584.37        24.58789
584.81        24.62849
585.24        24.59472
585.68        24.50361
586.11        24.33672
586.54        24.27477
586.98        24.17649
587.41        24.11852
587.85        24.00198
588.28        23.79654
588.71        23.88633
589.15        23.72772
589.58        23.69908
590.01        23.70655
590.45        23.75373
590.88        23.89367
591.31        23.83786
591.75        23.71469
592.18        23.57392
592.61        23.40832
593.05        24.14849
593.48        24.30902
593.91        24.03442
594.35        24.15905
594.78        24.01762
595.21        24.00926
595.65        24.17844
596.08        24.57197
596.51        24.60239
596.94        24.55902
597.38        24.63941
597.81        24.94305
598.24        25.18483
598.68         25.3989
599.11        25.62519
599.54        26.10052
599.97         26.1378
600.41        26.69896
600.84        26.81422
601.27        27.15055
601.70        27.37371
602.14        27.59844
602.57        27.92079
603.00        28.38118
603.43        28.45543
603.87        29.13198
604.30        29.47773
604.73        29.83801
605.16        29.92341
605.60        30.31426
606.03         30.5114
606.46        30.69687
606.89         31.0905
607.32        31.83276
607.76        32.14129
608.19        32.49119
608.62        32.65374
609.05        32.86107
609.48        33.18494
609.92          34.031
610.35         34.1443
610.78        33.84661
611.21        34.28164
611.64        34.52162
612.07        35.01287
612.50        35.22706
612.94        35.51468
613.37        35.79303
613.80        35.96297
614.23        35.89341
614.66        36.14499
615.09        36.65644
615.52        37.02282
615.96        37.16601
616.39        37.52544
616.82        37.86769
617.25        37.73167
617.68        37.90488
618.11        38.19208
618.54        38.75276
618.97        38.97131
619.40         38.8582
619.84        39.05363
620.27        39.20809
620.70        39.41571
621.13        39.51784
621.56        39.44487
621.99        39.26765
622.42        39.24028
622.85        39.39868
623.28         39.5379
623.71        39.89305
624.14        39.80651
624.57         39.9793
625.00        39.88048
625.43        39.86904
625.86        39.75521
626.29        39.65598
626.72        39.27446
627.15        39.38223
627.58        39.33647
628.01        39.29952
628.44        39.17454
628.87        38.95065
629.30        38.61946
629.73        38.23276
630.16        38.06594
630.59        37.85592
631.02        37.78983
631.45        37.71864
631.88        37.54553
632.31        37.23781
632.74        36.82982
633.17        36.36642
633.60        35.91364
634.03        35.49911
634.46         35.1036
634.89        34.71582
635.32        34.32547
635.75        33.93109
636.18         33.5087
636.61        33.08289
637.04         32.7053
637.47        32.37996
637.89        32.08525
638.32        31.78976
638.75        31.47859
639.18        31.14887
639.61         30.8094
640.04        30.48353
640.47        30.20351
640.90         29.9748
641.33         29.7895
641.76         29.6247
642.18        29.44728
642.61        29.24408
643.04        29.03318
643.47        28.84632
643.90        28.73241
644.33        28.70221
644.76        28.74087
645.18        28.81819
645.61        28.87896
646.04        28.91176
646.47         28.9318
646.90        28.96902
647.33        29.07029
647.75        29.23966
648.18        29.48038
648.61        29.77561
649.04         30.0358
649.47        30.20677
649.89         30.6559
650.32        30.62893
650.75        30.98018
651.18        31.46585
651.61        31.95556
652.03        32.41618
652.46        32.85015
652.89        33.26785
653.32        33.64281
653.74        34.04042
654.17        34.35593
654.60        34.86582
655.03        35.09585
655.46        34.95526
655.88        35.43056
656.31        37.24906
656.74        39.26481
657.16        40.26129
657.59        41.02618
658.02        38.60697
658.45        38.60593
658.87        38.44426
659.30        39.12255
659.73        39.34509
660.15        39.77092
660.58        39.40392
661.01        39.57146
661.44        40.05488
661.86        40.24089
662.29        40.12588
662.72        40.63024
663.14        40.93509
663.57        41.11958
664.00         41.0393
664.42        41.23865
664.85        41.74907
665.27        42.30632
665.70        42.78181
666.13        43.11082
666.55         43.2597
666.98         43.2111
667.41        43.04471
667.83        43.16812
668.26        43.17331
668.69        43.38713
669.11        43.65459
669.54        43.91421
669.96        44.14093
670.39        44.42558
670.82        44.74313
671.24        44.85324
671.67        44.82623
672.09        45.04613
672.52        45.47261
672.94        45.69145
673.37        45.69276
673.80        45.70854
674.22        45.77675
674.65        45.82647
675.07          45.882
675.50        45.95589
675.92        46.05512
676.35        46.17656
676.77        46.31285
677.20         46.4752
677.62        46.65896
678.05        46.79602
678.47        46.86753
678.90        47.12267
679.32        47.14011
679.75        47.25632
680.17        47.34363
680.60        47.40898
681.02        47.47608
681.45        47.56836
681.87        47.70295
682.30        47.92137
682.72        48.17369
683.15        48.22522
683.57        48.12041
684.00        48.14035
684.42        48.33117
684.85        48.52424
685.27         48.7303
685.70        49.08416
686.12        49.43831
686.54        49.56683
686.97        49.54577
687.39        48.97458
687.82        49.18481
688.24        49.25222
688.66        49.48864
689.09        49.54939
689.51        49.47284
689.94         49.5765
690.36        49.83042
690.78        49.98151
691.21        50.04682
691.63        49.99218
692.06        50.23781
692.48        50.34912
692.90        50.42651
693.33        50.47814
693.75        50.50312
694.17        50.46785
694.60        50.43239
695.02        50.51667
695.44        50.71736
695.87        51.00426
696.29        51.28921
696.71        51.28949
697.14        51.06471
697.56        50.99555
697.98        51.14475
698.41        51.30048
698.83        51.46176
699.25        51.81817
699.68        52.23245
700.10        52.41907
700.52        52.31401
700.94        52.02006
701.37        51.69524
701.79         51.6214
702.21        51.85358
702.64        52.29037
703.06        52.79511
703.48        53.12932
703.90        53.22309
704.33        53.15797
704.75        53.00644
705.17        52.87597
705.59        52.81552
706.01        52.78719
706.44        52.81355
706.86         52.9423
707.28        53.15754
707.70        53.47134
708.12        53.81415
708.55        54.00772
708.97        54.05182
709.39        54.09141
709.81        54.14966
710.23        54.17154
710.66        54.17025
711.08        54.21051
711.50        54.26673
711.92        54.28375
712.34        54.26063
712.76        54.22541
713.19        54.19727
713.61        54.23377
714.03        54.33436
714.45        54.48595
714.87        54.66943
715.29        54.85805
715.71         55.0371
716.13        55.20326
716.56         55.3438
716.98        55.50381
717.40         55.6589
717.82        55.82201
718.24        55.94193
718.66         55.9154
719.08        55.74643
719.50        55.50107
719.92        55.26179
720.34        55.14804
720.76        55.19116
721.19        55.32108
721.61        55.53618
722.03        55.82287
722.45        56.12452
722.87        56.36345
723.29        56.47763
723.71        56.43998
724.13        56.25129
724.55        55.91205
724.97        55.52954
725.39        55.30589
725.81        55.29676
726.23         55.4397
726.65         55.6853
727.07        56.05023
727.49        56.30112
727.91        56.66053
728.33        57.02517
728.75        57.28451
729.17        57.41158
729.59        57.43407
730.01        57.38815
730.43        57.33004
730.85         57.2852
731.27        57.24812
731.69        57.21029
732.10        57.15097
732.52        57.06917
732.94        56.99452
733.36        56.96526
733.78        56.92111
734.20        56.85468
734.62        56.99141
735.04        57.37597
735.46        56.98475
735.88         57.5078
736.30        57.63291
736.72        57.85104
737.13        58.01789
737.55         58.0737
737.97        58.23358
738.39        58.40782
738.81        58.08969
739.23         57.4622
739.65        57.49916
740.06        58.08403
740.48        58.31499
740.90        58.13616
741.32        57.98588
741.74        58.09193
742.16        58.17053
742.57        58.27813
742.99        58.45901
743.41        58.64174
743.83        58.63894
744.25        58.46066
744.67        58.26916
745.08        58.15076
745.50        58.11166
745.92        58.17735
746.34        58.36842
746.75        58.60522
747.17        58.68466
747.59        58.57793
748.01        58.43839
748.42        58.30341
748.84        58.07967
749.26        57.89563
749.68        58.02129
750.09        58.41309
750.51        58.87631
750.93        59.21756
751.35        59.14146
751.76        58.75869
752.18        58.35442
752.60        58.48842
753.01        58.42027
753.43        58.27519
753.85        58.18225
754.27        58.15562
754.68        58.21872
755.10        58.28226
755.52        58.41744
755.93        58.57164
756.35        58.72397
756.77        58.90824
757.18        59.05333
757.60         59.1518
758.02         59.4802
758.43        59.91723
758.85        59.34625
759.26        59.22676
759.68        58.68624
760.10        59.02275
760.51        59.43728
760.93        60.04967
761.34        59.74847
761.76        59.84025
762.18        59.69288
762.59        59.78734
763.01        59.83509
763.42        59.88493
763.84        60.11999
764.26        60.40991
764.67        60.21703
765.09        59.70552
765.50         59.4911
765.92        59.62745
766.33        59.70562
766.75        59.61604
767.16        59.57011
767.58         59.5258
768.00        59.30184
768.41        59.06423
768.83        59.28937
769.24        59.79347
769.66        60.03395
770.07         59.9474
770.49        59.21032
770.90        58.62433
771.32        59.04058
771.73        60.35227
772.15        60.85017
772.56        60.42686
772.97        59.97515
773.39        59.71258
773.80        59.72371
774.22        59.97986
774.63        60.17456
775.05        60.19849
775.46        60.27731
775.88        60.36126
776.29        60.29268
776.70        60.12639
777.12        60.08342
777.53        60.20004
777.95        60.36322
778.36        60.52938
778.77        60.59896
779.19        60.56685
779.60         60.5014
780.02        60.39323
780.43         60.3131
780.84        60.30944
781.26        60.05088
781.67        59.72152
782.09        60.32938
782.50        61.54652
782.91        61.64111
783.33        60.71373
783.74         60.4028
784.15        60.77436
784.57        60.96682
784.98        60.92467
785.39         60.7566
785.81        60.57941
786.22        60.85569
786.63        61.47825
787.04        61.78321
787.46        61.72004
787.87        61.61964
788.28        61.57737
788.70        61.53615
789.11        61.49741
789.52        61.61942
789.93        61.79941
790.35        61.58915
790.76        61.09103
791.17        60.95164
791.58        61.20932
792.00         61.2662
792.41        61.10686
792.82        61.36167
793.23        61.87923
793.65        61.54164
794.06        60.63756
794.47        60.81573
794.88        61.89642
795.29        62.28505
795.71        61.88171
796.12        61.75764
796.53        61.94091
796.94        61.64949
797.35        61.08638
797.76        61.23662
798.18        61.94429
798.59        62.36232
799.00        62.44221
799.41        61.73522
799.82        62.11353
800.23        62.03668
800.64        62.05716
801.06        62.11494
801.47        62.20911
801.88        62.22363
802.29        62.11356
802.70        61.92746
803.11        61.69496
803.52        61.46485
803.93        61.28407
804.34        61.17088
804.75        61.14454
805.17        61.26595
805.58        61.59386
805.99        61.90336
806.40        62.17747
806.81        62.91908
807.22        63.79649
807.63        63.47875
808.04        62.20426
808.45        61.56763
808.86        61.72934
809.27        61.85803
809.68        61.83163
810.09        61.83939
810.50        61.84441
810.91        61.79521
811.32        61.80499
811.73        62.03181
812.14        62.48544
812.55        63.16288
812.96        63.83696
813.37        63.94985
813.78         63.4705
814.19        62.87062
814.60        62.34093
815.01        61.88232
815.42        61.55957
815.83        61.45105
816.24        61.54059
816.65        61.69698
817.05        61.87984
817.46        62.12145
817.87        62.34378
818.28        62.37395
818.69        62.19107
819.10        61.80619
819.51         61.4166
819.92        61.39883
820.33        61.83085
820.74        62.58078
821.14        63.36901
821.55        63.75972
821.96        63.63715
822.37        63.10371
822.78        62.38893
823.19        61.92336
823.60        61.84557
824.00        62.04106
824.41        62.36041
824.82        62.65165
825.23        62.82958
825.64        62.94788
826.04        63.02327
826.45        63.03623
826.86        63.00613
827.27        62.92873
827.68        62.80279
828.08        62.66954
828.49        62.50183
828.90        62.31575
829.31        62.18553
829.72         62.2234
830.12        62.46343
830.53        62.82683
830.94          63.169
831.35        63.19663
831.75        62.86279
832.16        62.24269
832.57        61.56742
832.97         61.1864
833.38        61.19047
833.79        61.45545
834.20        61.85743
834.60        62.19581
835.01        62.40232
835.42        62.57811
835.82        62.71073
836.23        62.70415
836.64        62.58859
837.04        62.34817
837.45        62.17154
837.86        62.43401
838.26        63.20826
838.67          64.345
839.08        65.47087
839.48        65.87228
839.89        65.36502
840.29        64.20548
840.70        62.93481
841.11        62.16576
841.51        62.07076
841.92        62.46103
842.33        63.14317
842.73        63.77088
843.14        64.10398
843.54        64.27926
843.95        64.38268
844.35        64.60114
844.76        64.94821
845.17        65.33354
845.57         65.6027
845.98        65.50105
846.38        65.01536
846.79        64.24973
847.19        63.43583
847.60        62.91472
848.00        62.79018
848.41        62.94299
848.81        63.25521
849.22         63.4414
849.62        63.44686
850.03        63.34861
850.43        63.19685
850.84        63.00784
851.24        62.84965
851.65        62.64077
852.05        62.53867
852.46        62.72977
852.86        63.21989
853.27        63.92039
853.67        64.54915
854.07        64.81865
854.48        64.65969
854.88        64.18975
855.29         63.5266
855.69        63.01739
856.10        62.73244
856.50        62.65462
856.90          62.708
857.31        62.77494
857.71        62.85307
858.12        62.92542
858.52        63.01552
858.92         63.0458
859.33         62.9849
859.73        62.87865
860.13        62.70342
860.54        62.45887
860.94        62.20313
861.34        61.93289
861.75        61.72043
862.15        61.71809
862.55        61.92546
862.96         62.2607
863.36        62.64926
863.76        62.88197
864.17        62.88143
864.57        62.73874
864.97        62.44326
865.38        61.99535
865.78        61.45544
866.18        60.81612
866.58        60.25219
866.99        60.07076
867.39        60.35075
867.79        60.99765
868.19        61.75127
868.60        62.18238
869.00        62.21197
869.40         61.9192
869.80         61.4885
870.21        61.28931
870.61        61.48997
871.01        61.91208
871.41        62.34037
871.81        62.48031
872.22         62.2698
872.62        61.81196
873.02        61.28255
873.42        60.96548
873.82        60.94878
874.22        61.13918
874.63        61.38583
875.03        61.47469
875.43        61.33187
875.83        61.03349
876.23        60.69213
876.63        60.47564
877.03        60.43273
877.44        60.48549
877.84         60.5713
878.24        60.61706
878.64        60.55688
879.04        60.27896
879.44        59.94838
879.84        59.94252
880.24          60.278
880.64        60.76821
881.04        61.19573
881.44         61.2387
881.84        60.82999
882.24        60.12274
882.65        59.30548
883.05        58.65965
883.45        58.29677
883.85        58.13853
884.25        58.23011
884.65        58.63164
885.05        59.28608
885.45        60.14021
885.85        60.95909
886.25         61.3886
886.65        61.36218
887.05        60.97066
887.45        60.39761
887.85        59.98278
888.25        59.83456
888.65        59.85065
889.04        59.95713
889.44        60.05704
889.84        60.09256
890.24        60.11959
890.64        60.08849
891.04        59.90665
891.44        59.58176
891.84        59.14791
892.24        58.73564
892.64        58.54278
893.04        58.61668
893.44        58.92165
893.83        59.36165
894.23        59.71636
894.63        59.93652
895.03        60.04713
895.43        60.15246
895.83        60.43726
896.23        60.90923
896.63        61.46191
897.02        61.89258
897.42        61.91933
897.82        61.49432
898.22        60.76868
898.62        59.91999
899.01        59.19341
899.41        58.69999
899.81        58.37539
900.21         58.2469
900.61        58.35262
901.00        58.65802
901.40        59.12952
901.80         59.6277
902.20        59.91576
902.59        59.94556
902.99        59.77934
903.39        59.48892
903.79        59.21154
904.18        59.00127
904.58        58.81237
904.98        58.74753
905.38        58.96949
905.77        59.47989
906.17        60.26012
906.57        61.01966
906.96        61.26371
907.36        60.88248
907.76         60.0307
908.15        59.14276
908.55        58.90026
908.95        59.46027
909.34         60.6142
909.74        61.89462
910.14        62.60299
910.53        62.50296
910.93        61.83241
911.33        60.86663
911.72        60.01667
912.12        59.49682
912.52         59.2084
912.91         59.0664
913.31        58.96233
913.70        58.86414
914.10        58.78204
914.49        58.88631
914.89        59.36256
915.29        60.22399
915.68        61.38101
916.08        62.40126
916.47         62.6509
916.87        62.03052
917.26        60.74216
917.66         59.3691
918.05        58.64498
918.45        58.74193
918.84         59.5042
919.24        60.51141
919.64        61.13277
920.03        61.17601
920.42         60.7952
920.82        60.36503
921.21        60.41373
921.61         61.0389
922.00        62.07799
922.40        63.11935
922.79        63.59106
923.19        63.30731
923.58        62.51532
923.98        61.57788
924.37         60.9549
924.77          60.783
925.16        60.87296
925.55        61.11754
925.95        61.31568
926.34        61.38935
926.74        61.40426
927.13        61.28069
927.52        60.81271
927.92        60.05988
928.31        59.09042
928.70        58.18907
929.10        57.77327
929.49        57.91176
929.89        58.43256
930.28         59.2219
930.67        59.95882
931.07        60.47184
931.46        60.90414
931.85        61.08437
932.24        60.79942
932.64        60.10646
933.03        59.04306
933.42        58.06284
933.82        57.82899
934.21        58.46001
934.60         59.8306
934.99        61.42945
935.39        62.31046
935.78        62.22773
936.17        61.34061
936.56        60.19131
936.96        59.64647
937.35        59.91411
937.74        60.73949
938.13        61.57845
938.53        61.59513
938.92        60.64495
939.31        59.07864
939.70        57.49092
940.09        56.71257
940.49        56.90089
940.88        57.82238
941.27        59.06933
941.66        59.89796
942.05        60.05092
942.44        59.76233
942.84        59.30927
943.23        59.11604
943.62        59.31577
944.01        59.72055
944.40        60.21972
944.79        60.67271
945.18        60.99435
945.57        61.23056
945.97        61.29149
946.36         61.1103
946.75        60.66591
947.14        60.03701
947.53        59.35223
947.92        58.79039
948.31        58.41269
948.70        58.18555
949.09        58.14288
949.48        58.32605
949.87        58.71151
950.26        59.27063
950.65        59.85275
951.04          60.211
951.43        60.26863
951.82         60.0658
952.21        59.72206
952.60        59.45088
952.99        59.33846
953.38        59.36322
953.77        59.45772
954.16         59.5138
954.55        59.49391
954.94        59.39246
955.33        59.33754
955.72        59.54224
956.11        60.01918
956.50        60.69715
956.89        61.21087
957.28        60.96489
957.66        59.87591
958.05         58.2319
958.44        56.56897
958.83         55.6382
959.22        55.59021
959.61        56.20828
960.00        57.15382
960.39        57.78263
960.78         57.8486
961.16        57.53018
961.55        57.05666
961.94        56.70198
962.33        56.56982
962.72        56.58765
963.11        56.68598
963.49        56.79387
963.88        56.81957
964.27         56.7873
964.66        56.86978
965.04        57.34675
965.43        58.19246
965.82         59.3622
966.21        60.39393
966.60        60.42112
966.98        59.25171
967.37        57.29605
967.76        55.29764
968.15        54.17327
968.53        54.10165
968.92         54.8707
969.31        56.06963
969.69        56.85279
970.08        56.85289
970.47        56.33758
970.86        55.81121
971.24        56.01142
971.63        57.08612
972.02        58.79291
972.40        60.62992
972.79        61.38845
973.17        60.77188
973.56        59.22798
973.95        57.45083
974.33        56.31417
974.72        56.01891
975.11        56.27755
975.49        56.88666
975.88        57.40212
976.26        57.66764
976.65        57.80355
977.04        57.79105
977.42        57.54757
977.81        57.06763
978.19        56.33347
978.58        55.66562
978.96        55.56712
979.35        56.11458
979.74         57.1926
980.12        58.47426
980.51        59.12536
980.89        59.03942
981.28        58.45324
981.66         57.7455
982.05        57.43462
982.43        57.67104
982.82        58.24047
983.20        59.17052
983.59        60.41356
983.97        61.90432
984.35        63.61301
984.74        64.99389
985.12        65.37682
985.51        64.57545
985.89        62.82777
986.28        60.85558
986.66        59.67677
987.04        59.60092
987.43        60.35486
987.81        61.49492
988.20        62.03841
988.58        61.66909
988.96        60.62731
989.35        59.34213
989.73        58.40822
990.12        57.95728
990.50        57.85563
990.88        57.75898
991.27        57.12937
991.65         55.9299
992.03        54.45482
992.42        53.29808
992.80        53.23506
993.18        54.40766
993.56        56.57718
993.95          59.127
994.33        60.98523
994.71        61.58236
995.10        61.25119
995.48        60.41222
995.86        59.83871
996.24        59.73137
996.63        59.67084
997.01        59.69552
997.39        59.61478
997.77        59.34996
998.15        59.20558
998.54        58.87037
998.92        57.67173
999.30        55.72484
999.68        53.29448
1000.06        51.38221
1000.45        51.42401
1000.83        53.75849
1001.21        58.09013
1001.59        63.34191
1001.97        66.80617
1002.35        67.30515
1002.73        65.56889
1003.12        62.97082
1003.50        61.29012
1003.88        61.08187
1004.26        61.68385
1004.64        62.84483
1005.02        64.02591
1005.40        64.85777
1005.78        65.72881
1006.16        66.07127
1006.54        64.89891
1006.92        62.29636
1007.30        58.64285
1007.69        55.31342
1008.07        54.13284
1008.45        55.62134
1008.83        59.41956
1009.21         64.4023
1009.59        67.65955
1009.97        67.76275
1010.35        65.49274
1010.73        62.06622
1011.11        59.30456
1011.49        57.78148
1011.86        56.93712
1012.24        56.60285
1012.62        56.57787
1013.00        56.72649
1013.38        57.20156
1013.76        57.83706
1014.14        58.09568
1014.52        57.75936
1014.90          56.923
1015.28        55.83281
1015.66        54.87134
1016.04        54.14708
1016.41        53.57808
1016.79        53.22363
1017.17          53.226
1017.55        53.57107
1017.93        54.19986
1018.31         54.9361
1018.69        55.51677
1019.06        55.93243
1019.44        56.33054
1019.82        56.70586
1020.20         57.0512
1020.58        57.31332
1020.95        57.24553
1021.33        57.35411
1021.71        58.27399
1022.09        60.12007
1022.46        63.06432
1022.84        66.00946
1023.22        66.28006
1023.60        63.12535
1023.97        57.52439
1024.35         52.2972
1024.73         50.4976
