SpectraSmart Spectrum 2.9.0.0
--------- Device Information -----------
Spectrum Name :  反射率_0
Saving Time :  2024/04/26 23:04:27
Spectro-Module Model Name : SE2030-DUVN
Spectro-Module Serial Number : OS361AC55029948
Wavelength Start : 200
Wavelength End : 1025
Wavelength Unit : Wavelength(nm)
Spectrum Unit : Reflectance(%)
-----------Spectrum Setting ------------
Integration Time : 20ms
Average : 10
Boxcar : 0
Background removal :  enabled
linearity correction :  enabled
SC :  disabled
Intensity correction :  disabled
DWT denoise :  enabled
savitzky-golay :  disabled
FFT :  disabled
Running average :  disabled
Kalman :  disabled
High pass :  disabled
---------------BEGIN--------------------
Wavelength(nm)             Reflectance(%)
200.29               0
200.75        49.44389
201.21        49.20834
201.67         49.2825
202.13        48.89796
202.58        47.91568
203.04        46.67994
203.50        46.22178
203.96        49.04271
204.42        56.29401
204.88        67.13973
205.34        78.00871
205.80        82.97635
206.26        80.69962
206.72        73.41593
207.18        65.24029
207.64        59.24154
208.10        55.33868
208.55        52.88036
209.01        50.75242
209.47        48.50195
209.93        47.09475
210.39        47.15685
210.85        48.91107
211.31        53.39765
211.77        62.54658
212.23        82.38802
212.69        130.6465
213.14        209.7475
213.60        203.2095
214.06        144.8785
214.52         105.941
214.98        88.11078
215.44        79.94733
215.90        74.79314
216.36        72.22136
216.81        72.80696
217.27        77.06873
217.73        87.44864
218.19        102.3214
218.65        107.9346
219.11        99.56627
219.57        86.12617
220.02        77.12717
220.48        77.96355
220.94        87.92849
221.40        107.9219
221.86        137.4852
222.32        157.7908
222.77        151.6288
223.23        131.4283
223.69        110.8029
224.15        97.37689
224.61        90.23684
225.06        86.00208
225.52        84.09921
225.98        83.62038
226.44        84.13915
226.90        85.84095
227.36        88.17271
227.81        89.93484
228.27        90.82463
228.73        90.73267
229.19        90.33378
229.65        90.55613
230.10        91.42223
230.56        92.82681
231.02        93.72929
231.48        92.61323
231.93        89.49255
232.39        85.54095
232.85        82.20284
233.31        81.40698
233.77          83.177
234.22        86.69109
234.68        90.67589
235.14        93.16973
235.60        93.53171
236.05        92.38194
236.51         89.8981
236.97        86.90826
237.43        84.02055
237.88        81.11996
238.34        78.76228
238.80        78.09357
239.26         79.4818
239.71        83.71481
240.17        89.88103
240.63        95.22097
241.08        97.91245
241.54        97.11452
242.00        95.04739
242.46        97.04668
242.91        106.9002
243.37        126.1637
243.83        156.1291
244.28        184.5671
244.74         190.998
245.20        173.8942
245.66        148.9376
246.11        131.3609
246.57        122.6244
247.03        118.2034
247.48        114.4047
247.94        107.0997
248.40        98.05395
248.85        90.22314
249.31        84.97547
249.77        81.68934
250.22        79.33582
250.68        76.99873
251.14        74.30107
251.59         71.4483
252.05        69.59678
252.51        69.68445
252.96        70.10867
253.42        69.55457
253.88        68.02255
254.33        65.53551
254.79        64.78272
255.25        67.87774
255.70        74.22511
256.16         82.8092
256.62        89.48868
257.07        88.32942
257.53        81.52109
257.99        73.15265
258.44        66.52895
258.90        64.45512
259.35        65.55287
259.81        68.59385
260.27        71.65197
260.72        72.42451
261.18        71.12033
261.63        68.52521
262.09        66.22652
262.55         65.3028
263.00        65.57266
263.46        66.60379
263.91        67.35574
264.37        66.91145
264.83        65.22639
265.28        62.81362
265.74        60.59688
266.19        59.33945
266.65        59.21619
267.11        59.78186
267.56        60.59083
268.02        60.95646
268.47        60.66164
268.93         59.9821
269.38        59.04883
269.84        58.13099
270.30        57.30908
270.75         56.4583
271.21        55.69277
271.66        55.13286
272.12        54.78289
272.57        54.58709
273.03        54.34859
273.48        53.70953
273.94        52.68183
274.39        51.35454
274.85        50.03217
275.31        48.95658
275.76        48.15773
276.22        47.60763
276.67        47.15131
277.13        46.70236
277.58        46.15317
278.04        45.56906
278.49        44.93147
278.95        44.36198
279.40        43.80593
279.86        43.31618
280.31        42.73721
280.77        42.00056
281.22        41.06944
281.68        40.08793
282.13         39.1702
282.59        38.58945
283.04        38.31971
283.50        38.28633
283.95        38.31821
284.41        38.17492
284.86        37.78323
285.32        37.25695
285.77        36.65778
286.22        36.14774
286.68        35.76341
287.13        35.41235
287.59        35.09007
288.04         34.7379
288.50        34.37451
288.95        33.99957
289.41        33.63129
289.86          33.205
290.32        32.76414
290.77         32.3074
291.22        31.91032
291.68        31.66818
292.13        31.58126
292.59        31.63344
293.04        31.76744
293.50        31.91924
293.95        32.05059
294.40        32.17636
294.86        32.31047
295.31         32.4658
295.77        32.65639
296.22        32.86831
296.68        33.09443
297.13        33.30732
297.58        33.51478
298.04        33.73124
298.49        33.99044
298.95        34.36129
299.40         34.8383
299.85         35.3931
300.31        35.96218
300.76        36.43604
301.21        36.79047
301.67         37.0652
302.12        37.27699
302.58        37.52031
303.03        37.78434
303.48        38.05522
303.94        38.32089
304.39        38.52628
304.84        38.67452
305.30        38.79945
305.75        38.88053
306.20        38.94067
306.66        39.00101
307.11        39.04441
307.57        39.09685
308.02        39.14686
308.47        39.20089
308.93        39.25646
309.38        39.30307
309.83        39.37606
310.29        39.47416
310.74        39.58697
311.19        39.64928
311.65        39.55194
312.10        39.28167
312.55        38.87832
313.00        38.47657
313.46        38.27571
313.91          38.298
314.36         38.4951
314.82        38.72062
315.27        38.74364
315.72        38.50425
316.18         38.0845
316.63        37.61419
317.08        37.31277
317.53        37.22981
317.99        37.28769
318.44        37.38162
318.89        37.33168
319.35        37.08932
319.80        36.71624
320.25        36.29786
320.70        35.96531
321.16        35.75574
321.61        35.64128
322.06        35.55881
322.51        35.41259
322.97        35.17095
323.42        34.86577
323.87        34.56644
324.32        34.38771
324.78        34.33781
325.23         34.3987
325.68        34.44165
326.13        34.26326
326.59        33.82581
327.04        33.21668
327.49        32.59424
327.94         32.2063
328.39        32.10929
328.85        32.21593
329.30        32.43792
329.75        32.54643
330.20        32.46128
330.66        32.23944
331.11         31.9582
331.56        31.71676
332.01        31.55205
332.46        31.42157
332.92        31.29055
333.37         31.1622
333.82         31.0135
334.27        30.86374
334.72        30.72356
335.17        30.59683
335.63        30.48505
336.08        30.40732
336.53        30.34824
336.98        30.29551
337.43        30.24598
337.88        30.19092
338.34        30.16105
338.79        30.24087
339.24         30.4232
339.69        30.68162
340.14        30.91008
340.59        30.94176
341.05        30.75568
341.50        30.40349
341.95        30.01784
342.40        29.80307
342.85        29.80799
343.30        29.96989
343.75        30.19257
344.20        30.31647
344.66        30.29766
345.11        30.18921
345.56        30.04225
346.01        29.93523
346.46        29.89894
346.91        29.90626
347.36        29.94495
347.81        30.00499
348.26        30.07288
348.72        30.14531
349.17          30.215
349.62        30.28038
350.07        30.33585
350.52        30.38625
350.97        30.38545
351.42          30.266
351.87        30.02965
352.32        29.70258
352.77        29.39533
353.22        29.26748
353.67        29.34387
354.13        29.58324
354.58        29.85066
355.03        29.91892
355.48        29.73436
355.93        29.36559
356.38        28.96716
356.83        28.77247
357.28        28.82757
357.73        29.05534
358.18        29.30879
358.63        29.35171
359.08        29.12554
359.53        28.70947
359.98        28.24081
360.43         27.9201
360.88        27.79098
361.33        27.78816
361.78        27.80342
362.23        27.66789
362.68        27.34993
363.13        26.92229
363.58        26.48713
364.03        26.19386
364.48        26.07771
364.93         26.0816
365.38        26.14415
365.83        26.16854
366.28        26.11922
366.73        26.02839
367.18        25.90153
367.63        25.74618
368.08        25.57208
368.53        25.36953
368.98        25.16945
369.43        25.02641
369.88        24.94905
370.33        24.92684
370.78        24.91305
371.23        24.82601
371.68        24.64691
372.13        24.39966
372.58        24.13617
373.03        23.94013
373.48        23.83061
373.93        23.77908
374.38        23.74208
374.83        23.65075
375.28        23.48907
375.72        23.28035
376.17        23.06751
376.62        22.88334
377.07        22.74186
377.52        22.63052
377.97        22.54848
378.42        22.49888
378.87        22.47394
379.32        22.46409
379.77        22.45676
380.22        22.43169
380.67        22.38008
381.11        22.31321
381.56         22.2038
382.01        22.03782
382.46        21.82972
382.91        21.59995
383.36        21.39844
383.81         21.2897
384.26        21.27856
384.71        21.34179
385.15        21.43463
385.60        21.48247
386.05        21.45803
386.50        21.37821
386.95        21.26117
387.40        21.13915
387.85        21.02686
388.29        20.90604
388.74        20.80006
389.19        20.69095
389.64        20.57688
390.09        20.46077
390.54        20.35582
390.98        20.27726
391.43        20.23851
391.88        20.22791
392.33        20.22049
392.78        20.18078
393.23        20.10366
393.67        19.99217
394.12        19.88861
394.57         19.8151
395.02        19.77727
395.47        19.76038
395.91        19.75403
396.36        19.73063
396.81        19.69306
397.26        19.65059
397.71        19.60354
398.15        19.56334
398.60        19.55496
399.05        19.49387
399.50        19.40028
399.95        19.44721
400.39        19.57216
400.84        19.42568
401.29        19.06016
401.74         18.8637
402.18        18.87135
402.63        18.87188
403.08        18.84737
403.53        18.85224
403.97        18.87637
404.42        18.90833
404.87        18.93137
405.32        18.91676
405.76        18.85751
406.21        18.76713
406.66        18.67733
407.11        18.64331
407.55        18.67941
408.00        18.76084
408.45        18.84571
408.90        18.84944
409.34        18.75161
409.79        18.58817
410.24        18.41088
410.68        18.28476
411.13        18.23149
411.58        18.23014
412.03        18.25797
412.47        18.27736
412.92        18.26795
413.37        18.24726
413.81        18.22453
414.26        18.22882
414.71        18.25829
415.15        18.30671
415.60        18.35196
416.05        18.37541
416.49        18.37225
416.94        18.34756
417.39        18.31617
417.83        18.29823
418.28        18.29895
418.73        18.31051
419.17        18.32879
419.62        18.34769
420.07          18.363
420.51        18.37125
420.96        18.37202
421.41        18.35891
421.85        18.32677
422.30        18.27545
422.74        18.20122
423.19        18.18145
423.64        18.18845
424.08        18.10508
424.53        17.95806
424.98         17.9258
425.42         18.0305
425.87        18.16167
426.31        18.26137
426.76         18.3173
427.21        18.28264
427.65        18.05473
428.10        17.74858
428.54        17.61972
428.99        17.70662
429.44         17.9536
429.88         18.2446
430.33        18.29782
430.77        18.14433
431.22        18.17137
431.66        18.36973
432.11        18.43013
432.56        18.36308
433.00         18.3334
433.45        18.30379
433.89        18.28543
434.34         18.3263
434.78        17.89458
435.23        18.04832
435.67        18.01348
436.12        18.05602
436.57        17.99667
437.01        17.85809
437.46        17.79477
437.90        17.81046
438.35        17.81738
438.79        17.80581
439.24        17.82254
439.68        17.86568
440.13        17.92021
440.57        17.98935
441.02        18.08606
441.46        18.19772
441.91        18.28631
442.35         18.3246
442.80        18.41413
443.24         18.4984
443.69        18.38599
444.13        18.13264
444.58        18.01852
445.02        18.06368
445.47        18.13333
445.91        18.19041
446.36        18.23456
446.80         18.2472
447.24        18.23556
447.69        18.20675
448.13        18.16266
448.58        18.11393
449.02        18.05563
449.47        18.00775
449.91        17.99437
450.36        18.02263
450.80        18.08005
451.25        18.14834
451.69        18.18523
452.13        18.18432
452.58        18.15615
453.02        18.11481
453.47        18.08702
453.91        18.08088
454.36        18.08925
454.80        18.10286
455.24         18.1063
455.69        18.09964
456.13        18.07558
456.58        18.05451
457.02        18.03788
457.46        18.03467
457.91        18.04199
458.35        18.03576
458.79        17.98387
459.24        17.90089
459.68        17.79222
460.13        17.70742
460.57        17.67576
461.01        17.71742
461.46        17.80244
461.90         17.9235
462.34        18.05244
462.79        18.16636
463.23        18.27581
463.68        18.34044
464.12        18.30928
464.56        18.17967
465.01        17.99668
465.45        17.79962
465.89        17.69018
466.34        17.68204
466.78         17.7445
467.22        17.84272
467.67        17.89586
468.11        17.88973
468.55        17.84148
468.99        17.77768
469.44        17.73827
469.88        17.73719
470.32         17.7575
470.77        17.79034
471.21         17.8272
471.65        17.86045
472.10        17.89699
472.54        17.92884
472.98        17.94832
473.42        17.95514
473.87        17.95688
474.31        17.95123
474.75        17.95299
475.20        17.97069
475.64        17.99489
476.08        18.02966
476.52         18.0715
476.97        18.11738
477.41        18.17331
477.85        18.24008
478.29        18.29169
478.74         18.3387
479.18        18.42892
479.62         18.5346
480.06        18.58059
480.50        18.56542
480.95        18.50861
481.39        18.42951
481.83        18.52281
482.27        18.52338
482.72        18.68343
483.16        18.83336
483.60        18.95248
484.04        18.97611
484.48        19.07964
484.93        19.31338
485.37        19.11118
485.81         19.0985
486.25        19.57813
486.69        19.20926
487.14        19.38303
487.58        19.90668
488.02        19.74039
488.46        19.47049
488.90        19.89912
489.34        19.94945
489.79        20.21515
490.23        20.23872
490.67        20.30157
491.11        20.38711
491.55        20.37919
491.99        20.32949
492.43        20.35684
492.88        20.48306
493.32        20.66474
493.76        20.86815
494.20        21.05609
494.64        21.21696
495.08        21.33744
495.52        21.43039
495.96        21.60098
496.41        21.83001
496.85        21.90882
497.29        21.84746
497.73        22.04343
498.17        22.18372
498.61         22.2894
499.05         22.2705
499.49        22.28795
499.93        22.31121
500.37        22.49765
500.82        22.78239
501.26        22.97338
501.70        23.04376
502.14        23.09774
502.58        23.17014
503.02        23.26948
503.46         23.4045
503.90        23.56788
504.34        23.72424
504.78         23.8171
505.22        23.83483
505.66        23.79769
506.10        23.74442
506.54        23.73632
506.98        23.78986
507.42        23.88603
507.86        24.00234
508.30        24.10101
508.74        24.16896
509.18        24.21956
509.62         24.2577
510.06        24.29063
510.50        24.32333
510.94        24.35121
511.38        24.38302
511.82        24.43435
512.26        24.50749
512.70        24.59983
513.14        24.69623
513.58        24.77082
514.02        24.81654
514.46        24.83753
514.90        24.84916
515.34        24.87796
515.78        24.92817
516.22        24.98962
516.66        25.04258
517.10        25.05565
517.54        25.02425
517.98        24.96382
518.42        24.89385
518.86         24.8442
519.30        24.82493
519.74        24.82626
520.18        24.84571
520.62        24.87856
521.06        24.91945
521.50        24.96984
521.93        25.01537
522.37        25.02369
522.81        24.99189
523.25        24.92416
523.69        24.84375
524.13        24.78904
524.57        24.76661
525.01        24.76444
525.45        24.75772
525.89        24.70556
526.32        24.59902
526.76        24.46321
527.20        24.32091
527.64        24.20809
528.08        24.13585
528.52        24.09163
528.96        24.07039
529.40        24.06444
529.83        24.06546
530.27        24.07524
530.71        24.07704
531.15        24.04693
531.59        23.98101
532.03        23.88445
532.46        23.77246
532.90        23.68722
533.34        23.63587
533.78        23.59874
534.22        23.56417
534.66        23.54166
535.09        23.51006
535.53        23.42064
535.97        23.30032
536.41        23.25142
536.85        23.28384
537.28        23.34663
537.72        23.41798
538.16        23.48083
538.60        23.52383
539.04        23.55157
539.47        23.56825
539.91        23.59615
540.35        23.63621
540.79        23.68492
541.22        23.73812
541.66        23.79719
542.10        23.86071
542.54        23.93359
542.97        24.01665
543.41        24.12022
543.85        24.24171
544.29        24.37727
544.72        24.52084
545.16        24.68116
545.60        24.85173
546.04        25.03314
546.47        25.21731
546.91        25.38611
547.35        25.53321
547.79        25.66437
548.22        25.78778
548.66        25.91199
549.10        26.06991
549.53        26.24388
549.97        26.42748
550.41        26.54918
550.84        26.63218
551.28          26.759
551.72        26.90573
552.15        27.05502
552.59        27.23953
553.03        27.06541
553.46        27.36856
553.90         27.4733
554.34        27.62239
554.77         27.8064
555.21        28.01402
555.65        28.20234
556.08        28.34764
556.52         28.4433
556.96        28.50107
557.39        28.61875
557.83        28.78053
558.27        28.81143
558.70          28.727
559.14        28.72769
559.57        28.80356
560.01        28.82208
560.45        28.79706
560.88        28.83681
561.32        28.95983
561.75        29.10113
562.19        29.24631
562.63        29.36853
563.06        29.45152
563.50        29.50595
563.93        29.52034
564.37        29.55374
564.80         29.6287
565.24        29.66478
565.68        29.59941
566.11        29.99131
566.55        29.76758
566.98         29.7887
567.42        29.81511
567.85        30.02375
568.29        30.38627
568.72         30.6945
569.16        30.93919
569.60        31.13203
570.03        31.38034
570.47        31.50259
570.90         31.5464
571.34        31.65187
571.77        31.76308
572.21        31.95001
572.64        32.13479
573.08        32.20472
573.51        32.20553
573.95        32.25833
574.38        32.43533
574.82        32.64512
575.25        32.49718
575.69        32.56889
576.12        32.70629
576.56        32.62018
576.99        32.65418
577.42        32.62041
577.86        32.73404
578.29        33.33016
578.73        33.07179
579.16        32.93387
579.60        32.52253
580.03        32.49206
580.47        32.45575
580.90        32.57935
581.33        32.69036
581.77         32.6856
582.20        32.18259
582.64        32.17601
583.07        32.11768
583.51        31.97231
583.94        31.84912
584.37        31.78778
584.81        31.84109
585.24        31.61468
585.68        31.21698
586.11        31.19671
586.54        31.29659
586.98         31.1296
587.41         30.7611
587.85        30.87062
588.28        30.66848
588.71        30.79343
589.15        30.63056
589.58        30.68131
590.01        30.64674
590.45        30.77472
590.88         30.9551
591.31        30.89461
591.75        30.68488
592.18        30.56619
592.61        30.56002
593.05        31.03905
593.48        31.33509
593.91        31.05701
594.35        31.22367
594.78        31.03223
595.21        30.92469
595.65        31.13359
596.08         31.6846
596.51        31.95646
596.94        31.83278
597.38          31.912
597.81        32.31364
598.24        32.55157
598.68        32.75451
599.11        32.83749
599.54        33.63943
599.97        33.48092
600.41        33.91108
600.84        33.90543
601.27        34.35426
601.70        34.68859
602.14        34.99486
602.57          35.354
603.00        35.82555
603.43         35.7784
603.87        36.61065
604.30        37.05856
604.73        37.49519
605.16        37.64935
605.60        37.61171
606.03        37.73434
606.46        38.02494
606.89        38.66889
607.32        39.20219
607.76        39.70927
608.19         40.0223
608.62        40.29015
609.05        40.60037
609.48        40.79904
609.92        41.42783
610.35        41.63644
610.78          41.478
611.21        41.74915
611.64         42.0702
612.07        42.50411
612.50        42.68113
612.94        42.97221
613.37        43.29955
613.80        43.38817
614.23        43.33487
614.66        43.60732
615.09        44.18787
615.52        44.55619
615.96        44.65022
616.39        44.89863
616.82        45.34221
617.25        45.09632
617.68        45.34858
618.11         45.5168
618.54        45.91324
618.97        46.15536
619.40        46.21252
619.84        46.45325
620.27        46.44249
620.70        46.54366
621.13        46.59657
621.56        46.45039
621.99        46.19042
622.42        46.11918
622.85        46.26946
623.28        46.46063
623.71        46.83286
624.14        46.77287
624.57        46.78411
625.00        46.75393
625.43         46.7814
625.86         46.7197
626.29        46.64124
626.72        46.14281
627.15         46.3972
627.58        46.37828
628.01        46.32859
628.44        46.23465
628.87        45.77974
629.30        45.37679
629.73        45.13142
630.16        44.89934
630.59        44.73758
631.02        44.70514
631.45        44.72686
631.88        44.61462
632.31        44.32581
632.74        43.91514
633.17        43.43654
633.60        42.98096
634.03        42.58271
634.46        42.21102
634.89        41.85003
635.32        41.48617
635.75         41.1155
636.18        40.70881
636.61        40.29021
637.04        39.91515
637.47        39.58769
637.89        39.28236
638.32        38.97121
638.75        38.65276
639.18        38.32767
639.61        38.00566
640.04        37.69932
640.47        37.42275
640.90        37.18026
641.33        36.97002
641.76        36.79142
642.18        36.64911
642.61        36.53196
643.04        36.44199
643.47         36.3797
643.90        36.34522
644.33        36.33538
644.76        36.35016
645.18        36.37612
645.61        36.38373
646.04        36.37609
646.47        36.36544
646.90        36.38763
647.33        36.49461
647.75        36.68578
648.18        36.97808
648.61        37.35376
649.04         37.6661
649.47        37.86395
649.89        38.49348
650.32        38.55639
650.75        38.97822
651.18        39.44948
651.61        39.83609
652.03        40.16791
652.46        40.68705
652.89        41.35122
653.32         41.7865
653.74        42.05524
654.17        42.41722
654.60        42.92476
655.03        43.48963
655.46        43.12587
655.88        43.51085
656.31        45.42014
656.74        45.73639
657.16        46.76643
657.59        48.49834
658.02        46.51682
658.45        46.85522
658.87        46.47299
659.30        46.81009
659.73        46.86511
660.15        48.49418
660.58        47.60763
661.01         47.7939
661.44        47.99165
661.86        47.90985
662.29         47.6292
662.72        48.25801
663.14         48.7892
663.57        49.03875
664.00        48.81074
664.42        48.96835
664.85        49.53719
665.27         50.0317
665.70        50.32949
666.13        50.51373
666.55        50.56926
666.98        50.42487
667.41        50.16146
667.83        50.24062
668.26        50.18007
668.69        50.36848
669.11        50.61449
669.54        50.85178
669.96        51.05883
670.39        51.25845
670.82        51.44386
671.24        51.60187
671.67        51.73236
672.09         51.7477
672.52         51.7124
672.94        51.87263
673.37        52.16549
673.80        52.18039
674.22        51.96727
674.65        51.92873
675.07        52.10436
675.50        52.25151
675.92        52.34435
676.35        52.43933
676.77        52.52858
677.20        52.59232
677.62        52.64992
678.05        52.73212
678.47        52.84187
678.90        52.97646
679.32        53.10713
679.75        53.19485
680.17        53.22892
680.60        53.23246
681.02        53.23979
681.45        53.28175
681.87        53.38309
682.30        53.56659
682.72        53.80548
683.15        53.94517
683.57        54.00259
684.00        54.12122
684.42        54.30451
684.85        54.45211
685.27        54.55653
685.70        54.68416
686.12        54.81371
686.54        54.90255
686.97        54.94932
687.39        54.95597
687.82        54.93459
688.24        54.97454
688.66        55.09793
689.09        55.07151
689.51        55.26684
689.94        55.34069
690.36        55.40667
690.78        55.41332
691.21        55.40996
691.63        55.54878
692.06        55.79831
692.48        55.95609
692.90        55.98561
693.33         56.0129
693.75        56.03157
694.17        55.91617
694.60        55.78098
695.02        55.85681
695.44        56.14678
695.87        56.64137
696.29        57.16186
696.71        57.11666
697.14        56.61598
697.56        56.46025
697.98        56.71532
698.41        56.85422
698.83        56.88016
699.25        57.18013
699.68        57.62357
700.10          57.841
700.52        57.76051
700.94        57.50285
701.37        57.22588
701.79        57.18901
702.21        57.44436
702.64        57.88838
703.06        58.37981
703.48        58.67695
703.90        58.71298
704.33        58.57111
704.75        58.34538
705.17         58.1774
705.59        58.12141
706.01        58.12952
706.44         58.1997
706.86        58.33475
707.28        58.50866
707.70        58.76212
708.12        59.04189
708.55        59.16958
708.97         59.1636
709.39        59.20924
709.81         59.3258
710.23        59.40481
710.66         59.4469
711.08        59.54539
711.50        59.65042
711.92        59.65535
712.34        59.55706
712.76        59.40537
713.19        59.24728
713.61        59.19318
714.03        59.26028
714.45        59.41699
714.87        59.64764
715.29        59.93307
715.71        60.24939
716.13        60.58199
716.56        60.86595
716.98        61.08831
717.40        61.20111
717.82         61.1753
718.24        61.02893
718.66        60.89564
719.08        60.77073
719.50        60.46149
719.92         60.0751
720.34        59.96624
720.76         60.1681
721.19        60.45232
721.61        60.84766
722.03        61.24474
722.45        61.59509
722.87        61.90953
723.29        62.11493
723.71        62.03736
724.13        61.65654
724.55        61.29631
724.97        60.71399
725.39        60.40945
725.81        60.31058
726.23          60.761
726.65        60.98991
727.07        61.36218
727.49        61.62307
727.91        61.82023
728.33        61.97892
728.75        62.15538
729.17        62.36233
729.59        62.54994
730.01        62.67978
730.43        62.70869
730.85        62.63084
731.27        62.47224
731.69        62.28163
732.10        62.12799
732.52        62.03279
732.94        61.99581
733.36        62.01977
733.78        61.98118
734.20        61.86366
734.62        61.93172
735.04        62.25961
735.46        61.83043
735.88        62.48244
736.30        62.61665
736.72        62.79527
737.13        63.18577
737.55        63.63105
737.97        63.82788
738.39        63.70814
738.81        63.24309
739.23        62.64727
739.65        62.63908
740.06        63.12818
740.48        63.34057
740.90        63.22035
741.32        63.26477
741.74        63.49911
742.16        63.68256
742.57        63.79868
742.99         63.8999
743.41        63.95196
743.83        63.88357
744.25        63.70055
744.67        63.41929
745.08        63.15862
745.50        63.09436
745.92        63.26369
746.34        63.59756
746.75        63.97545
747.17         64.1669
747.59        64.12442
748.01        63.98721
748.42        63.80876
748.84        63.57201
749.26        63.39904
749.68          63.445
750.09        63.68346
750.51        64.09175
750.93        64.47803
751.35         64.3645
751.76        63.85096
752.18        63.56813
752.60        63.55081
753.01        63.50528
753.43        63.43657
753.85        63.14594
754.27         63.2983
754.68        63.41353
755.10        63.54188
755.52        63.68061
755.93        63.76111
756.35        63.75179
756.77        63.75944
757.18        63.89617
757.60        64.18121
758.02        64.81736
758.43         65.4411
758.85        65.14465
759.26        64.17052
759.68        63.45845
760.10        63.44875
760.51        64.42202
760.93        64.63293
761.34        64.77906
761.76        64.83624
762.18        64.72441
762.59        64.71997
763.01        64.79754
763.42        65.00496
763.84        65.21195
764.26        65.32694
764.67        65.09904
765.09        64.69482
765.50         64.5328
765.92         64.6689
766.33         64.8044
766.75        64.81934
767.16        64.84892
767.58        64.84846
768.00        64.67459
768.41        64.47245
768.83        64.75641
769.24        65.33311
769.66        65.42432
770.07        65.03574
770.49        64.53251
770.90        64.18319
771.32        64.62859
771.73        65.64989
772.15        66.09002
772.56        65.87093
772.97        65.52328
773.39        65.19524
773.80        65.39378
774.22        65.41399
774.63        65.53366
775.05        65.48003
775.46        65.52485
775.88        65.62812
776.29        65.64963
776.70        65.62253
777.12        65.69411
777.53         65.8845
777.95        66.10004
778.36        66.29459
778.77        66.36061
779.19        66.29539
779.60        66.16134
780.02         65.9789
780.43        65.86388
780.84        65.87284
781.26         65.6759
781.67        65.41109
782.09        65.97723
782.50        67.04437
782.91        66.96434
783.33        65.88973
783.74        65.48628
784.15        65.83656
784.57        66.13402
784.98        66.27526
785.39        66.14532
785.81        65.89761
786.22        66.31571
786.63        67.23531
787.04        67.63787
787.46        67.45509
787.87        67.20117
788.28        67.04156
788.70        66.94741
789.11        66.93571
789.52        67.17335
789.93        67.50046
790.35        67.32556
790.76         66.7528
791.17        66.56279
791.58        66.80533
792.00        66.83054
792.41        66.63396
792.82        66.81693
793.23        67.24747
793.65        66.97758
794.06         66.2265
794.47        66.29855
794.88        67.06554
795.29        67.32703
795.71        67.00812
796.12        66.88422
796.53        67.01345
796.94        66.97427
797.35        66.85422
797.76        67.16113
798.18        67.76604
798.59        68.08779
799.00         68.0399
799.41        67.91529
799.82        67.79968
800.23        67.72045
800.64        67.71091
801.06        67.72726
801.47        67.76952
801.88        67.74804
802.29         67.6413
802.70        67.48535
803.11        67.30971
803.52        67.13927
803.93        67.00593
804.34        66.94315
804.75        66.98086
805.17         67.0418
805.58        67.42252
805.99        67.69336
806.40        67.91683
806.81        68.45145
807.22        69.07972
807.63        68.91868
808.04         68.0916
808.45        67.59586
808.86        67.53864
809.27        67.40471
809.68        67.18227
810.09        67.10922
810.50        67.19279
810.91        67.36035
811.32        67.62384
811.73        67.99419
812.14         68.4416
812.55        68.96001
812.96        69.38824
813.37        69.41618
813.78         69.0069
814.19        68.33008
814.60        67.61627
815.01         67.1368
815.42        66.96217
815.83        67.04026
816.24        67.28752
816.65        67.51446
817.05        67.64459
817.46          67.702
817.87        67.72129
818.28        67.70741
818.69        67.68026
819.10        67.61931
819.51        67.56236
819.92        67.63673
820.33        67.86579
820.74        68.08646
821.14        68.26686
821.55        68.63941
821.96         69.0438
822.37        68.83524
822.78        68.13546
823.19        67.77757
823.60        67.86326
824.00        67.96964
824.41        68.00397
824.82        68.11922
825.23        68.28445
825.64        68.46111
826.04        68.62251
826.45        68.68116
826.86        68.63582
827.27        68.52206
827.68        68.36264
828.08        68.22485
828.49        68.08961
828.90         67.9608
829.31        67.90435
829.72        68.02462
830.12        68.34899
830.53        68.79144
830.94        69.20023
831.35        69.26511
831.75        68.93732
832.16        68.29991
832.57        67.58427
832.97        67.14037
833.38        67.06733
833.79        67.24075
834.20        67.57616
834.60        67.93233
835.01         68.2474
835.42        68.60971
835.82        68.93613
836.23        68.99983
836.64        68.79991
837.04        68.34971
837.45        67.92895
837.86        68.06882
838.26        68.87926
838.67        70.16211
839.08        71.45024
839.48        71.85883
839.89        71.16589
840.29        69.70762
840.70        68.12341
841.11        67.14374
841.51        66.96929
841.92        67.36124
842.33        68.11751
842.73        68.87685
843.14        69.37022
843.54        69.74887
843.95        70.02857
844.35        70.28756
844.76         70.5257
845.17         70.6777
845.57        70.70457
845.98        70.54824
846.38        70.23772
846.79        69.81069
847.19        69.37716
847.60        69.07696
848.00        68.95914
848.41        68.96593
848.81        69.05488
849.22        69.06039
849.62        68.98142
850.03         68.8635
850.43        68.74599
850.84        68.62259
851.24        68.55499
851.65         68.4697
852.05         68.5304
852.46        68.90652
852.86        69.58413
853.27        70.45752
853.67        71.21048
854.07        71.53721
854.48         71.3623
854.88        70.80397
855.29        70.00461
855.69        69.37215
856.10        68.99493
856.50        68.86973
856.90        68.87125
857.31        68.79595
857.71        68.63297
858.12        68.38123
858.52        68.18591
858.92        68.15865
859.33        68.30123
859.73        68.60843
860.13        68.86575
860.54        68.75457
860.94        68.26431
861.34        67.48602
861.75        66.70628
862.15          66.438
862.55        66.77477
862.96        67.51978
863.36        68.43412
863.76        69.01604
864.17        69.08688
864.57        68.83125
864.97        68.31909
865.38        67.67165
865.78        67.00387
866.18        66.27285
866.58        65.65797
866.99        65.48553
867.39        65.83555
867.79        66.60857
868.19        67.53786
868.60        68.17569
869.00        68.43106
869.40         68.3808
869.80        68.14929
870.21        67.99911
870.61        68.08665
871.01        68.27335
871.41        68.44373
871.81        68.44473
872.22        68.24196
872.62        67.89622
873.02        67.54176
873.42        67.38131
873.82         67.4637
874.22        67.71937
874.63        67.97668
875.03        67.98921
875.43        67.68882
875.83        67.16104
876.23        66.58315
876.63        66.22388
877.03        66.15677
877.44        66.28793
877.84        66.50094
878.24        66.60939
878.64        66.51798
879.04         66.1578
879.44         65.7472
879.84        65.72244
880.24        66.11903
880.64        66.75092
881.04        67.32008
881.44        67.37068
881.84        66.81181
882.24        65.82632
882.65        64.75845
883.05        64.13088
883.45         64.0957
883.85        64.51049
884.25        65.18163
884.65         65.7682
885.05        66.13023
885.45        66.34515
885.85        66.47786
886.25        66.63277
886.65        66.83618
887.05        67.02995
887.45        67.14263
887.85        67.08006
888.25        66.83786
888.65        66.48137
889.04        66.11834
889.44        65.93142
889.84        65.94685
890.24        66.10153
890.64        66.32468
891.04        66.49762
891.44        66.56889
891.84        66.57779
892.24        66.50639
892.64        66.31805
893.04        66.04515
893.44        65.73466
893.83        65.49911
894.23        65.47323
894.63        65.71098
895.03        66.13462
895.43        66.71355
895.83        67.39853
896.23        68.09798
896.63        68.75938
897.02        69.18411
897.42         69.0968
897.82        68.48153
898.22        67.50401
898.62         66.3797
899.01        65.42055
899.41        64.76685
899.81        64.33585
900.21        64.21098
900.61        64.50806
901.00        65.17793
901.40        66.14883
901.80        67.10811
902.20        67.54494
902.59        67.35645
902.99         66.6791
903.39        65.78053
903.79        65.13057
904.18        64.87711
904.58        64.88441
904.98        65.10801
905.38        65.48082
905.77        65.94225
906.17          66.546
906.57        67.09303
906.96        67.23451
907.36        66.90109
907.76        66.19642
908.15        65.47266
908.55        65.28829
908.95        65.77268
909.34        66.76177
909.74        67.87507
910.14        68.56058
910.53        68.61687
910.93        68.22917
911.33         67.5703
911.72        66.89825
912.12        66.38661
912.52        65.96986
912.91        65.64743
913.31        65.44077
913.70        65.35315
914.10        65.37949
914.49         65.5927
914.89        66.00472
915.29        66.60381
915.68        67.35135
916.08        68.01733
916.47        68.30371
916.87        68.15454
917.26        67.62908
917.66        67.01617
918.05         66.6263
918.45        66.55148
918.84        66.75729
919.24        67.04288
919.64        67.18879
920.03        67.13654
920.42        66.91819
920.82         66.7349
921.21         66.8354
921.61        67.24557
922.00        67.92259
922.40        68.56561
922.79        68.80074
923.19        68.50887
923.58        67.84603
923.98         67.1363
924.37        66.79231
924.77         66.9196
925.16        67.34798
925.55        67.88393
925.95        68.17018
926.34        68.10493
926.74        67.78922
927.13        67.29469
927.52        66.66479
927.92        66.01416
928.31        65.33599
928.70        64.77515
929.10        64.52437
929.49        64.59982
929.89        64.90064
930.28        65.41809
930.67         66.0026
931.07        66.54121
931.46        67.12576
931.85        67.52215
932.24         67.4201
932.64        66.84244
933.03        65.85608
933.42        64.93908
933.82        64.78801
934.21        65.52988
934.60        67.01907
934.99        68.72772
935.39        69.68298
935.78        69.63793
936.17        68.76455
936.56        67.60329
936.96         67.0185
937.35        67.21906
937.74        67.93422
938.13        68.66389
938.53        68.64562
938.92        67.73886
939.31         66.2845
939.70        64.76876
940.09         63.8525
940.49        63.67172
940.88        64.04892
941.27        64.75537
941.66        65.36806
942.05        65.72332
942.44        65.96874
942.84        66.17548
943.23        66.43811
943.62        66.79584
944.01        67.13585
944.40        67.49916
944.79        68.00367
945.18        68.62451
945.57        69.31144
945.97        69.79984
946.36        69.74843
946.75        69.06237
947.14        67.93094
947.53        66.66558
947.92        65.69026
948.31        65.13606
948.70        64.92301
949.09         64.9734
949.48        65.13924
949.87        65.34686
950.26        65.61296
950.65           65.95
951.04        66.37642
951.43        66.85089
951.82         67.3075
952.21        67.59352
952.60        67.49464
952.99        67.01984
953.38        66.31047
953.77        65.57787
954.16        65.14841
954.55         65.1078
954.94        65.32269
955.33         65.7904
955.72        66.48137
956.11        67.30001
956.50        68.25094
956.89        68.94357
957.28        68.74001
957.66        67.56362
958.05        65.69038
958.44        63.77365
958.83        62.75344
959.22        62.81758
959.61        63.72786
960.00        65.01502
960.39         65.7747
960.78        65.69846
961.16        65.04837
961.55        64.24516
961.94        63.83046
962.33        63.95479
962.72        64.45322
963.11        65.09079
963.49         65.4811
963.88         65.4038
964.27         64.9965
964.66        64.57156
965.04        64.59837
965.43        65.11816
965.82        66.05357
966.21        66.94978
966.60        66.95852
966.98        65.88011
967.37        64.10904
967.76        62.37926
968.15        61.60729
968.53        61.95644
968.92        63.19387
969.31        64.77728
969.69        65.61707
970.08        65.26905
970.47        64.09082
970.86        62.79506
971.24        62.38788
971.63         63.0789
972.02        64.58614
972.40         66.3278
972.79        66.91064
973.17        66.02065
973.56        64.20181
973.95        62.27665
974.33        61.28299
974.72        61.44395
975.11        62.40643
975.49        63.84235
975.88        65.03362
976.26         65.6994
976.65        65.99545
977.04          65.986
977.42        65.74401
977.81         65.3131
978.19         64.6208
978.58        63.95813
978.96        63.78927
979.35        64.18602
979.74        65.09398
980.12        66.20054
980.51        66.67455
980.89         66.4235
981.28        65.65097
981.66        64.81705
982.05        64.56171
982.43        65.04615
982.82         66.0707
983.20         67.4343
983.59        68.63744
983.97         69.5354
984.35        70.19157
984.74        70.57086
985.12         70.8858
985.51         71.1107
985.89        71.16975
986.28        71.11455
986.66        70.96017
987.04        70.79751
987.43        70.64547
987.81        70.50486
988.20        70.23673
988.58        69.86765
988.96        69.32523
989.35        68.84419
989.73         68.7468
990.12        69.03849
990.50        69.70256
990.88         70.1672
991.27        69.46593
991.65        67.49809
992.03         64.6522
992.42        61.97047
992.80         60.8387
993.18        61.51882
993.56        63.67861
993.95        66.33162
994.33        67.70819
994.71         67.1241
995.10        65.26125
995.48        63.11874
995.86        62.26295
996.24        63.06517
996.63        64.86631
997.01        67.32815
997.39        69.36366
997.77        70.37302
998.15        70.80222
998.54        70.43118
998.92        68.79297
999.30        66.17258
999.68        62.79631
1000.06        59.90203
1000.45        59.26315
1000.83        61.31055
1001.21        65.77753
1001.59        71.44864
1001.97        75.22344
1002.35        75.76356
1002.73        73.85274
1003.12        71.12739
1003.50        69.75726
1003.88         70.3687
1004.26        72.20648
1004.64        74.59225
1005.02        76.12275
1005.40        76.17929
1005.78        75.46038
1006.16        74.09698
1006.54        72.18451
1006.92        70.03088
1007.30        67.62457
1007.69        65.83461
1008.07        65.76312
1008.45        67.71935
1008.83        71.54153
1009.21         76.1358
1009.59          78.722
1009.97        78.01551
1010.35         74.7529
1010.73        70.37088
1011.11        66.98904
1011.49        65.20939
1011.86        64.44314
1012.24        64.30404
1012.62        64.20908
1013.00         63.9638
1013.38        63.80841
1013.76        63.81807
1014.14        64.04077
1014.52        64.46175
1014.90        64.89669
1015.28        65.25985
1015.66        65.55008
1016.04        65.77818
1016.41        66.00365
1016.79        66.12772
1017.17        66.04405
1017.55        65.74894
1017.93        65.24847
1018.31        64.84418
1018.69         64.9624
1019.06        65.69576
1019.44        67.03114
1019.82        68.41755
1020.20          68.592
1020.58        67.18225
1020.95        64.60349
1021.33        62.12336
1021.71        61.03589
1022.09        61.53144
1022.46        63.52534
1022.84        66.08893
1023.22        66.97697
1023.60        65.38411
1023.97        61.94742
1024.35        58.89098
1024.73        58.70714
