SpectraSmart Spectrum 2.9.0.0
--------- Device Information -----------
Spectrum Name :  反射率_0
Saving Time :  2024/04/26 23:02:27
Spectro-Module Model Name : SE2030-DUVN
Spectro-Module Serial Number : OS361AC55029948
Wavelength Start : 200
Wavelength End : 1025
Wavelength Unit : Wavelength(nm)
Spectrum Unit : Reflectance(%)
-----------Spectrum Setting ------------
Integration Time : 20ms
Average : 10
Boxcar : 0
Background removal :  enabled
linearity correction :  enabled
SC :  disabled
Intensity correction :  disabled
DWT denoise :  enabled
savitzky-golay :  disabled
FFT :  disabled
Running average :  disabled
Kalman :  disabled
High pass :  disabled
---------------BEGIN--------------------
Wavelength(nm)             Reflectance(%)
200.29               0
200.75        30.59785
201.21         25.0558
201.67        20.13918
202.13        17.32105
202.58        16.44778
203.04        17.37497
203.50        20.00002
203.96        23.34267
204.42        26.52415
204.88        29.52208
205.34        32.34796
205.80        35.35559
206.26        38.15767
206.72        39.73822
207.18        40.16793
207.64        39.82275
208.10        38.83101
208.55        37.56418
209.01        35.05825
209.47        31.13349
209.93        27.80328
210.39        26.07984
210.85        26.05303
211.31        27.82804
211.77        32.08233
212.23        41.88965
212.69        66.77823
213.14        110.8014
213.60        112.1067
214.06        83.55635
214.52        62.94791
214.98        52.64188
215.44        46.86139
215.90        41.84156
216.36        37.90413
216.81        36.12657
217.27        37.18592
217.73        42.47429
218.19          50.218
218.65        50.91308
219.11        42.72614
219.57        32.27587
220.02        26.36555
220.48        28.51348
220.94        38.47602
221.40        57.76921
221.86        85.33645
222.32        101.7962
222.77        92.06829
223.23        69.73515
223.69        49.53991
224.15         39.6654
224.61        37.90286
225.06        39.55527
225.52        42.78896
225.98         45.9984
226.44        48.74451
226.90         51.7961
227.36        54.19476
227.81        54.04582
228.27        51.44917
228.73        47.10638
229.19        42.97723
229.65        41.32447
230.10         42.2174
230.56        44.97238
231.02        48.01607
231.48         48.8159
231.93        46.98676
232.39        43.85073
232.85        40.95329
233.31         40.2937
233.77        42.04963
234.22        45.46531
234.68        49.40357
235.14        52.21972
235.60        53.39765
236.05        53.43147
236.51        52.83335
236.97        52.70693
237.43         53.5154
237.88        54.90486
238.34        56.53262
238.80        58.18887
239.26        59.90391
239.71        62.37964
240.17        65.45776
240.63        68.85097
241.08        72.37588
241.54        75.22672
242.00        78.61148
242.46        85.68984
242.91        99.27757
243.37        121.4256
243.83        152.3737
244.28         177.132
244.74        174.2372
245.20        144.9924
245.66        109.4213
246.11        83.94154
246.57        69.20293
247.03        60.43618
247.48        56.38098
247.94        55.87618
248.40        57.37286
248.85        59.86187
249.31        62.35255
249.77        63.72995
250.22        63.97703
250.68        63.26768
251.14        61.29401
251.59        58.34653
252.05        55.83433
252.51        54.49802
252.96        54.61992
253.42        56.53061
253.88        59.64882
254.33        63.02212
254.79        67.05657
255.25        71.83663
255.70        77.12018
256.16        82.86409
256.62        87.07909
257.07        86.76386
257.53        83.32536
257.99        78.80402
258.44        74.82645
258.90        73.20434
259.35        73.02306
259.81        73.93362
260.27        74.90511
260.72        74.79825
261.18        73.84523
261.63         72.1623
262.09        70.80055
262.55        70.28286
263.00         70.4023
263.46        71.02893
263.91        71.24709
264.37        70.31487
264.83        68.23427
265.28        65.42059
265.74        62.86243
266.19        61.40536
266.65        61.20588
267.11        61.80781
267.56        62.58685
268.02         62.5656
268.47        61.50626
268.93        59.79879
269.38        57.86074
269.84        56.39691
270.30         55.5574
270.75        55.05778
271.21        54.73837
271.66        54.30258
272.12        53.65181
272.57        52.87391
273.03        51.93559
273.48        50.74237
273.94        49.40767
274.39         47.9516
274.85        46.62456
275.31        45.61051
275.76        44.89932
276.22         44.4499
276.67        44.11966
277.13        43.82287
277.58        43.43653
278.04        43.01433
278.49        42.43922
278.95        41.68958
279.40        40.73395
279.86         39.7053
280.31        38.64745
280.77        37.76029
281.22        37.03659
281.68        36.49494
282.13        36.08742
282.59        35.85232
283.04         35.7234
283.50        35.71206
283.95        35.71325
284.41        35.58404
284.86         35.2935
285.32        34.91415
285.77        34.52402
286.22        34.31796
286.68        34.31964
287.13        34.41372
287.59        34.53499
288.04        34.52687
288.50        34.37762
288.95        34.11468
289.41        33.77887
289.86        33.34184
290.32        32.87901
290.77        32.40219
291.22        32.02159
291.68        31.88054
292.13        31.99491
292.59        32.34284
293.04        32.86346
293.50        33.47675
293.95        34.12496
294.40        34.81485
294.86        35.52134
295.31        36.19993
295.77        36.85221
296.22        37.47147
296.68         38.0859
297.13        38.72905
297.58        39.42456
298.04        40.16566
298.49        40.95913
298.95        41.83442
299.40        42.76457
299.85        43.72679
300.31        44.66536
300.76        45.47532
301.21        46.14315
301.67        46.72184
302.12        47.21531
302.58        47.70991
303.03        48.20103
303.48        48.69428
303.94        49.23356
304.39        49.83257
304.84        50.49717
305.30        51.21725
305.75        51.89757
306.20        52.46141
306.66        52.90305
307.11          53.233
307.57        53.49176
308.02        53.67096
308.47          53.807
308.93        53.90638
309.38        54.01881
309.83          54.292
310.29        54.73646
310.74        55.29987
311.19        55.83138
311.65        56.07117
312.10        55.95847
312.55        55.57842
313.00        55.11249
313.46        54.83619
313.91        54.79846
314.36        54.93203
314.82        55.10693
315.27        55.12695
315.72        54.92962
316.18        54.59483
316.63        54.20415
317.08        53.90294
317.53        53.72533
317.99        53.61359
318.44        53.50239
318.89         53.2766
319.35        52.91054
319.80        52.45023
320.25        51.96603
320.70        51.56554
321.16        51.27307
321.61        51.07012
322.06        50.89592
322.51        50.65683
322.97        50.32148
323.42        49.92678
323.87        49.52829
324.32        49.22288
324.78        49.01346
325.23        48.89536
325.68        48.77439
326.13        48.51265
326.59        48.08424
327.04        47.55509
327.49        47.02013
327.94        46.63394
328.39         46.4236
328.85        46.31086
329.30        46.26379
329.75        46.13134
330.20        45.87083
330.66         45.5288
331.11        45.15029
331.56         44.7655
332.01        44.39642
332.46        44.01785
332.92        43.65879
333.37        43.44675
333.82        43.37523
334.27        43.42608
334.72         43.4929
335.17        43.38937
335.63        43.06984
336.08        42.61278
336.53        42.12773
336.98        41.81771
337.43        41.73794
337.88        41.81417
338.34        41.96887
338.79        42.11428
339.24        42.18031
339.69        42.19876
340.14        42.12706
340.59        41.89802
341.05        41.53237
341.50        41.05226
341.95        40.56994
342.40        40.26252
342.85        40.16527
343.30        40.21998
343.75        40.34966
344.20        40.42046
344.66        40.39056
345.11         40.3073
345.56        40.16319
346.01        39.94883
346.46        39.68789
346.91        39.38342
347.36        39.12785
347.81        39.07212
348.26        39.22992
348.72        39.54613
349.17        39.88829
349.62        40.06003
350.07         40.0054
350.52        39.78119
350.97        39.45197
351.42        39.13182
351.87        38.87118
352.32        38.64521
352.77        38.45911
353.22        38.31396
353.67        38.20451
354.13        38.14057
354.58        38.10457
355.03         38.0588
355.48        37.98625
355.93        37.87843
356.38        37.75615
356.83        37.65533
357.28        37.57843
357.73        37.51812
358.18        37.41813
358.63        37.19284
359.08        36.83874
359.53        36.39014
359.98        35.95421
360.43         35.6861
360.88        35.60663
361.33        35.66471
361.78        35.73902
362.23        35.63483
362.68        35.31184
363.13        34.83898
363.58        34.32737
364.03        33.94687
364.48        33.74187
364.93        33.65746
365.38        33.62901
365.83        33.55454
366.28        33.39934
366.73        33.19535
367.18         32.9711
367.63        32.76626
368.08        32.59193
368.53        32.43168
368.98        32.26217
369.43        32.05142
369.88        31.79513
370.33        31.50773
370.78        31.22671
371.23        31.01264
371.68        30.88026
372.13        30.81058
372.58        30.76119
373.03        30.66293
373.48        30.49451
373.93        30.27219
374.38        30.02481
374.83        29.80238
375.28        29.61917
375.72        29.45303
376.17        29.30156
376.62        29.12331
377.07         28.9187
377.52        28.71522
377.97        28.53339
378.42        28.40808
378.87        28.34405
379.32        28.30708
379.77        28.30834
380.22         28.3679
380.67        28.47145
381.11        28.62256
381.56        28.69975
382.01        28.53234
382.46        28.11157
382.91        27.51996
383.36         26.9432
383.81        26.63547
384.26        26.63595
384.71        26.86417
385.15        27.18007
385.60        27.34452
386.05        27.28127
386.50        27.05875
386.95        26.76004
387.40        26.51645
387.85        26.36852
388.29        26.25689
388.74         26.1727
389.19        26.04362
389.64        25.85762
390.09        25.64008
390.54        25.43464
390.98        25.30047
391.43        25.26646
391.88         25.3049
392.33        25.36248
392.78        25.36528
393.23        25.29931
393.67        25.17326
394.12        25.05754
394.57        25.00772
395.02        25.03049
395.47         25.0919
395.91        25.14728
396.36        25.11078
396.81        24.97979
397.26        24.79702
397.71        24.59401
398.15        24.42806
398.60        24.34652
399.05        24.23122
399.50        24.11786
399.95        24.23744
400.39         24.5079
400.84        24.48585
401.29        24.18702
401.74        24.02102
402.18         24.0123
402.63        23.90946
403.08        23.73782
403.53        23.64694
403.97        23.64566
404.42        23.69736
404.87        23.75418
405.32        23.73553
405.76        23.62158
406.21        23.45041
406.66        23.27453
407.11        23.17759
407.55        23.18451
408.00        23.25828
408.45        23.35218
408.90        23.37334
409.34        23.29352
409.79        23.14788
410.24        22.98601
410.68        22.86869
411.13        22.81718
411.58        22.81204
412.03        22.82023
412.47        22.79026
412.92        22.70381
413.37        22.58838
413.81        22.48189
414.26         22.4572
414.71        22.51542
415.15        22.63917
415.60        22.77103
416.05        22.83283
416.49        22.80317
416.94        22.70611
417.39        22.58433
417.83        22.50215
418.28        22.47674
418.73        22.48124
419.17        22.50729
419.62        22.54243
420.07        22.57594
420.51        22.60947
420.96        22.61948
421.41        22.56269
421.85        22.43094
422.30        22.23279
422.74        22.01168
423.19        21.92958
423.64        21.96719
424.08        21.97197
424.53        21.91533
424.98        21.91627
425.42         21.9806
425.87         21.9726
426.31        21.91668
426.76        22.01179
427.21        22.19794
427.65        22.14768
428.10        21.91507
428.54        21.81833
428.99        21.88382
429.44        22.01978
429.88        22.14302
430.33         22.0367
430.77        21.76396
431.22        21.74454
431.66        21.97391
432.11         22.0633
432.56        21.99795
433.00        22.11663
433.45         22.3142
433.89        22.11229
434.34        21.63132
434.78        21.31295
435.23        21.48866
435.67        21.55477
436.12        21.55788
436.57        21.56195
437.01        21.55336
437.46        21.53809
437.90        21.50742
438.35        21.39335
438.79        21.24653
439.24        21.21564
439.68        21.31498
440.13        21.49641
440.57        21.68799
441.02        21.79157
441.46        21.77665
441.91        21.62833
442.35        21.41512
442.80        21.43636
443.24        21.61986
443.69        21.58282
444.13        21.35178
444.58          21.299
445.02         21.4297
445.47        21.53813
445.91        21.59488
446.36        21.65488
446.80        21.70387
447.24        21.72709
447.69        21.72654
448.13        21.69966
448.58        21.65585
449.02        21.59506
449.47        21.53832
449.91        21.50614
450.36        21.50863
450.80        21.53476
451.25        21.57285
451.69        21.58765
452.13        21.57444
452.58         21.5404
453.02        21.49573
453.47        21.46026
453.91        21.44101
454.36        21.43648
454.80        21.43379
455.24         21.4131
455.69        21.37531
456.13        21.30827
456.58        21.25234
457.02         21.2342
457.46        21.26501
457.91        21.33557
458.35        21.38123
458.79        21.30818
459.24        21.12724
459.68        20.86557
460.13        20.63226
460.57        20.53585
461.01        20.61259
461.46        20.80706
461.90        21.06035
462.34        21.25515
462.79        21.34173
463.23        21.35628
463.68        21.30494
464.12        21.21594
464.56         21.1055
465.01        20.99302
465.45        20.87133
465.89        20.79001
466.34        20.75397
466.78        20.75024
467.22        20.77799
467.67        20.81023
468.11        20.84921
468.55        20.89276
468.99        20.93052
469.44        20.94446
469.88        20.93463
470.32        20.90175
470.77        20.87096
471.21        20.88814
471.65        20.95864
472.10        21.07047
472.54        21.18517
472.98        21.24937
473.42        21.25064
473.87        21.21247
474.31        21.15238
474.75         21.1179
475.20        21.12598
475.64         21.1545
476.08        21.19361
476.52        21.21726
476.97        21.21882
477.41        21.21827
477.85        21.23063
478.29        21.24637
478.74        21.28689
479.18        21.40252
479.62        21.55861
480.06        21.66539
480.50        21.71524
480.95         21.7198
481.39        21.69343
481.83        21.86902
482.27        21.93276
482.72        22.12943
483.16        22.33426
483.60        22.45923
484.04         22.4813
484.48        22.53214
484.93        22.66865
485.37        22.51818
485.81        22.81338
486.25        22.97273
486.69        22.56674
487.14        22.94114
487.58        23.68728
488.02        23.68395
488.46        23.40364
488.90        23.61807
489.34        23.68705
489.79        23.93706
490.23        24.02532
490.67        24.20712
491.11         24.4064
491.55        24.34564
491.99        24.12035
492.43        24.11057
492.88        24.35884
493.32        24.66098
493.76        24.95054
494.20        25.22503
494.64        25.46562
495.08         25.6185
495.52        25.70936
495.96        25.95161
496.41        26.30199
496.85        26.34869
497.29        26.14314
497.73        26.38162
498.17         26.6791
498.61        26.86699
499.05        26.82642
499.49        26.86812
499.93        26.95204
500.37        27.20267
500.82        27.53756
501.26        27.74835
501.70        27.80526
502.14        27.82957
502.58          27.874
503.02        27.96602
503.46        28.11967
503.90        28.32293
504.34        28.52419
504.78        28.63783
505.22        28.64522
505.66        28.57801
506.10         28.4865
506.54        28.44923
506.98        28.49066
507.42        28.58823
507.86        28.72096
508.30        28.85402
508.74        28.97128
509.18        29.08117
509.62        29.18279
510.06        29.27365
510.50        29.35356
510.94        29.41959
511.38        29.47043
511.82        29.50793
512.26        29.53528
512.70         29.5546
513.14        29.57788
513.58        29.62263
514.02        29.69152
514.46        29.77937
514.90        29.86898
515.34        29.93225
515.78        29.96118
516.22        29.96166
516.66        29.94765
517.10        29.94275
517.54        29.95316
517.98        29.97202
518.42         29.9865
518.86        29.97659
519.30        29.93875
519.74        29.88135
520.18        29.82043
520.62        29.77875
521.06        29.76302
521.50         29.7692
521.93        29.78425
522.37        29.77667
522.81        29.74353
523.25        29.68965
523.69        29.63532
524.13        29.61308
524.57        29.62384
525.01        29.65064
525.45        29.66212
525.89        29.60887
526.32        29.48046
526.76        29.30896
527.20        29.11843
527.64        28.94776
528.08        28.81359
528.52        28.70477
528.96        28.63349
529.40        28.61771
529.83        28.65006
530.27        28.72305
530.71        28.79187
531.15        28.78686
531.59        28.69455
532.03        28.53616
532.46        28.34825
532.90        28.21151
533.34        28.14309
533.78        28.10596
534.22        28.08606
534.66        28.09477
535.09        28.10221
535.53        28.05256
535.97        27.95514
536.41        27.89576
536.85        27.88356
537.28         27.8694
537.72        27.86592
538.16        27.91667
538.60        28.02052
539.04        28.16044
539.47         28.3024
539.91        28.41219
540.35        28.47523
540.79        28.50663
541.22        28.52051
541.66        28.55053
542.10        28.60394
542.54        28.67073
542.97        28.75186
543.41        28.86049
543.85        28.99298
544.29        29.15506
544.72        29.31932
545.16        29.46146
545.60        29.57323
546.04        29.66352
546.47        29.77431
546.91        29.96983
547.35        30.25147
547.79        30.59035
548.22        30.92111
548.66        31.13926
549.10        31.26252
549.53        31.31255
549.97        31.33576
550.41        31.33763
550.84        31.37668
551.28        31.51866
551.72         31.7286
552.15        31.97532
552.59        32.28134
553.03        32.18079
553.46        32.62541
553.90        32.74669
554.34        32.82461
554.77        32.86573
555.21        32.90929
555.65        32.99349
556.08        33.11585
556.52        33.24851
556.96        33.36595
557.39        33.51764
557.83        33.67092
558.27        33.64497
558.70        33.48947
559.14        33.48469
559.57        33.62381
560.01        33.72689
560.45        33.78393
560.88        33.87127
561.32        33.99735
561.75        34.14815
562.19        34.30624
562.63         34.3329
563.06        34.26889
563.50        34.36261
563.93         34.5605
564.37        34.66586
564.80        34.68572
565.24        34.66865
565.68        34.56363
566.11        34.98397
566.55        34.67981
566.98        34.69627
567.42        34.73066
567.85        34.87094
568.29        35.11908
568.72        35.43719
569.16        35.81384
569.60        36.00568
570.03        36.12207
570.47        36.24597
570.90        36.46752
571.34        36.14471
571.77         36.6395
572.21        36.77966
572.64        36.84259
573.08        37.25937
573.51        36.99282
573.95        37.18674
574.38        37.55495
574.82         37.4952
575.25        37.22145
575.69        37.20956
576.12        37.51083
576.56        37.38562
576.99        37.67111
577.42        37.25158
577.86        37.43646
578.29        37.68759
578.73        37.78539
579.16        37.73156
579.60        37.38566
580.03        37.39131
580.47        37.23038
580.90        37.67362
581.33         37.5547
581.77        37.46891
582.20        36.94863
582.64        36.99281
583.07        36.89171
583.51         36.7092
583.94        36.64285
584.37        36.58537
584.81        36.61981
585.24        36.50415
585.68        36.31364
586.11        36.06421
586.54        36.13496
586.98        35.79961
587.41        35.60192
587.85        35.49487
588.28        35.53128
588.71        35.30804
589.15        35.26751
589.58         35.4734
590.01        35.56722
590.45         35.3679
590.88        35.55204
591.31        35.39067
591.75        35.22955
592.18         35.2207
592.61        35.30945
593.05        35.86176
593.48        35.70211
593.91        35.63224
594.35        35.83835
594.78        35.74471
595.21         35.5793
595.65        35.72842
596.08        36.25782
596.51        36.49116
596.94        36.30466
597.38         36.4123
597.81        36.77955
598.24        37.07162
598.68         37.3583
599.11         37.4763
599.54        38.00916
599.97         38.1008
600.41        38.19272
600.84        38.17329
601.27        38.69182
601.70        39.03409
602.14        39.46691
602.57         39.7466
603.00        40.04648
603.43        39.79112
603.87        40.56676
604.30        40.97187
604.73        41.49072
605.16        41.33334
605.60        41.87595
606.03        41.88568
606.46        41.77397
606.89        42.37772
607.32        43.05605
607.76        43.08264
608.19        43.60366
608.62        43.76987
609.05        44.06577
609.48        44.28222
609.92        44.99589
610.35        45.06446
610.78        44.77512
611.21        44.99257
611.64        45.26931
612.07        45.71881
612.50        45.90733
612.94        46.14082
613.37        46.30592
613.80         46.4757
614.23        46.23652
614.66        46.34351
615.09        46.89885
615.52        47.16558
615.96         47.1909
616.39         47.4142
616.82        47.63676
617.25        47.80791
617.68        47.87797
618.11        48.02972
618.54        48.24212
618.97        48.36379
619.40        48.41378
619.84        48.45078
620.27        48.53717
620.70        48.66987
621.13        48.81182
621.56        48.62462
621.99         48.1853
622.42        48.13427
622.85        48.53775
623.28        48.34852
623.71        48.64348
624.14        48.80312
624.57        48.91498
625.00        48.74108
625.43         49.1336
625.86        49.05003
626.29        48.85839
626.72        48.35767
627.15        48.61764
627.58        48.59512
628.01        48.51731
628.44        48.39688
628.87        48.23753
629.30        47.81827
629.73        47.56438
630.16        47.37108
630.59        47.34042
631.02        47.30132
631.45         47.2129
631.88        47.10912
632.31        46.96293
632.74        46.72988
633.17        46.41759
633.60        46.07623
634.03        45.72156
634.46        45.33727
634.89        44.94175
635.32        44.57632
635.75        44.25371
636.18        43.92613
636.61        43.59825
637.04        43.29686
637.47        43.01727
637.89        42.74424
638.32        42.46078
638.75        42.18402
639.18        41.91867
639.61        41.66642
640.04        41.42645
640.47        41.19467
640.90        40.97141
641.33        40.75984
641.76        40.57393
642.18        40.44255
642.61        40.35807
643.04        40.31492
643.47        40.29531
643.90        40.27029
644.33        40.23058
644.76        40.18729
645.18        40.14525
645.61        40.10204
646.04        40.07116
646.47        40.05893
646.90        40.09003
647.33         40.1993
647.75        40.37553
648.18        40.63378
648.61        40.96749
649.04        41.23638
649.47        41.37352
649.89        41.98354
650.32        41.96395
650.75        42.19982
651.18        42.40708
651.61        42.76279
652.03        43.28203
652.46        43.69672
652.89        43.93679
653.32        44.35843
653.74        44.84155
654.17        44.35629
654.60        45.23318
655.03        45.35828
655.46          45.508
655.88        45.90581
656.31        47.11182
656.74        47.22521
657.16        48.76969
657.59        50.55311
658.02        48.45997
658.45        48.49285
658.87        48.21376
659.30        48.69283
659.73        48.74924
660.15        49.73568
660.58         48.9858
661.01        49.09933
661.44        49.41076
661.86         49.4534
662.29        49.23901
662.72        49.72208
663.14        49.92704
663.57        50.11134
664.00        50.05229
664.42        50.21346
664.85        50.61325
665.27        51.01744
665.70        51.32103
666.13        51.50584
666.55        51.55433
666.98        51.42064
667.41        51.17922
667.83        51.28403
668.26        51.23851
668.69        51.44273
669.11        51.69002
669.54        51.89568
669.96        52.03297
670.39        52.13449
670.82        52.23184
671.24        52.32462
671.67        52.42915
672.09        52.57501
672.52        52.73833
672.94        52.80707
673.37        52.77718
673.80        52.69337
674.22        52.60616
674.65        52.55932
675.07        52.58707
675.50        52.66281
675.92         52.7683
676.35        52.86586
676.77         52.9411
677.20        52.99823
677.62        53.04653
678.05        53.09741
678.47        53.15477
678.90        53.22521
679.32        53.28436
679.75        53.30603
680.17        53.28124
680.60        53.21705
681.02        53.17528
681.45        53.22116
681.87        53.37038
682.30        53.67547
682.72        54.03559
683.15        54.05065
683.57        53.78807
684.00        53.74281
684.42        53.94592
684.85        54.05844
685.27        54.07523
685.70        54.21889
686.12        54.43543
686.54        54.54002
686.97        54.51268
687.39        54.41888
687.82        54.28593
688.24        54.20538
688.66        54.18444
689.09        54.15673
689.51        54.14535
689.94        54.32452
690.36        54.62444
690.78        54.68525
691.21        54.55951
691.63        54.61874
692.06        54.88172
692.48        55.14784
692.90         55.3265
693.33        55.37216
693.75        55.26186
694.17        54.98616
694.60        54.69453
695.02        54.62191
695.44        54.79197
695.87        55.18897
696.29        55.62661
696.71        55.57032
697.14        55.12314
697.56        54.93162
697.98        55.03695
698.41        55.39759
698.83        55.25023
699.25        55.55466
699.68        55.95884
700.10        56.13888
700.52        56.02188
700.94        55.73133
701.37        55.41884
701.79        55.31144
702.21        55.46105
702.64        55.77512
703.06        56.14136
703.48        56.36564
703.90        56.38902
704.33        56.27706
704.75        56.09074
705.17        55.91728
705.59         55.8003
706.01         55.7154
706.44        55.67767
706.86        55.72779
707.28        55.85471
707.70         56.0564
708.12        56.29792
708.55        56.49612
708.97        56.64169
709.39        56.76716
709.81        56.85106
710.23        56.92873
710.66        56.85116
711.08        56.77407
711.50        56.66932
711.92        56.57277
712.34        56.50163
712.76         56.4642
713.19        56.45008
713.61        56.46441
714.03        56.49492
714.45        56.54828
714.87        56.63877
715.29         56.7895
715.71        56.99353
716.13         57.2222
716.56         57.4257
716.98        57.60228
717.40        57.70382
717.82         57.7374
718.24        57.68627
718.66        57.52602
719.08        57.28038
719.50        56.98743
719.92        56.71965
720.34        56.58186
720.76        56.59763
721.19        56.71645
721.61        56.93559
722.03        57.20206
722.45        57.47304
722.87        57.74497
723.29        57.93769
723.71         57.9271
724.13        57.70354
724.55        57.31496
724.97        56.88301
725.39        56.61469
725.81         56.5717
726.23        56.68424
726.65        56.88754
727.07        57.19641
727.49        57.36107
727.91        57.56929
728.33         57.7582
728.75        57.92966
729.17        58.07498
729.59        58.17505
730.01        58.21875
730.43        58.19933
730.85        58.12082
731.27        57.99174
731.69         57.8414
732.10        57.71013
732.52         57.6099
732.94        57.54926
733.36        57.52836
733.78        57.43341
734.20        57.25983
734.62         57.2243
735.04        57.40258
735.46        56.94489
735.88        57.56568
736.30        57.44857
736.72         57.8225
737.13        58.01767
737.55        58.18617
737.97        58.50946
738.39        58.84143
738.81        58.53984
739.23        57.78368
739.65        57.69173
740.06        58.20858
740.48        58.40068
740.90         58.2242
741.32        58.25252
741.74        58.48837
742.16        58.62346
742.57        58.63779
742.99        58.60722
743.41        58.54911
743.83         58.4746
744.25        58.39621
744.67         58.2912
745.08         58.2149
745.50        58.24038
745.92        58.38252
746.34        58.61855
746.75        58.84919
747.17        58.90173
747.59        58.74891
748.01        58.43904
748.42        58.10051
748.84         57.9465
749.26        58.02399
749.68        58.25049
750.09        58.50531
750.51        58.62776
750.93        58.55522
751.35        58.29889
751.76        57.94857
752.18        57.70915
752.60        57.62187
753.01        57.61617
753.43        57.65363
753.85        57.71738
754.27        57.79226
754.68        57.89701
755.10         58.0132
755.52        58.10297
755.93        58.14531
756.35        58.13334
756.77        58.14025
757.18         58.1414
757.60        58.14355
758.02        58.41588
758.43        58.84724
758.85        58.13425
759.26        58.38389
759.68        57.64938
760.10        57.54016
760.51        58.20857
760.93        58.20799
761.34        58.09335
761.76        58.71293
762.18         58.8345
762.59        58.89584
763.01        58.95059
763.42        59.06435
763.84         59.0957
764.26        59.04875
764.67         58.8693
765.09        58.66142
765.50        58.64461
765.92        58.80051
766.33        58.77287
766.75        58.49707
767.16         58.3693
767.58        58.36549
768.00        58.21101
768.41         58.0053
768.83        58.40017
769.24        59.14569
769.66        59.13847
770.07        58.47565
770.49        58.07187
770.90        58.10685
771.32        58.53247
771.73        59.16512
772.15        59.43433
772.56        59.28729
772.97        58.98766
773.39        58.70431
773.80        58.73531
774.22        59.03614
774.63        59.21968
775.05         59.1913
775.46        59.22208
775.88        59.27236
776.29        59.17936
776.70          58.994
777.12        58.92556
777.53        59.01368
777.95        59.15989
778.36        59.33332
778.77        59.45125
779.19        59.49827
779.60        59.51835
780.02        59.49224
780.43        59.44234
780.84        59.39402
781.26        59.14233
781.67        58.82417
782.09        59.08102
782.50        59.73848
782.91        59.75827
783.33        59.16837
783.74        58.93621
784.15        59.09678
784.57        59.07461
784.98        58.92073
785.39        58.97735
785.81        59.25533
786.22        59.65536
786.63        60.05372
787.04        60.25582
787.46        60.22775
787.87        60.01229
788.28        59.74356
788.70        59.60157
789.11        59.61801
789.52        59.78816
789.93        60.00613
790.35        60.06483
790.76        59.93868
791.17        59.70794
791.58        59.50757
792.00        59.45285
792.41        59.54368
792.82        59.87664
793.23        60.26176
793.65         59.8812
794.06        59.00418
794.47        59.06213
794.88        59.92521
795.29        60.23492
795.71        59.91268
796.12         59.8446
796.53         60.0668
796.94         60.0307
797.35        59.81029
797.76        59.98466
798.18         60.4373
798.59         60.5719
799.00        60.32361
799.41         60.0064
799.82        59.75055
800.23        59.64441
800.64        59.73106
801.06        59.94977
801.47        60.23763
801.88        60.40528
802.29        60.39358
802.70        60.25157
803.11         60.0344
803.52        59.83781
803.93        59.71732
804.34        59.65258
804.75        59.64966
805.17        59.77948
805.58         60.0796
805.99        60.29356
806.40        60.42134
806.81        60.99822
807.22        61.74358
807.63        61.42391
808.04        60.26847
808.45        59.74462
808.86        59.99311
809.27        60.25666
809.68        60.37556
810.09        60.42977
810.50        60.36355
810.91        60.15441
811.32        59.95489
811.73        60.00497
812.14        60.34449
812.55        60.90366
812.96        61.45971
813.37        61.59966
813.78         61.2269
814.19        60.51075
814.60         59.7129
815.01        59.18195
815.42        58.99897
815.83        59.06075
816.24        59.28638
816.65        59.51395
817.05        59.67141
817.46        59.79275
817.87        59.87911
818.28        59.88419
818.69        59.81266
819.10        59.64642
819.51        59.48618
819.92        59.53091
820.33        59.81575
820.74        60.27681
821.14        60.75428
821.55        60.98397
821.96        60.90303
822.37        60.59022
822.78        60.17419
823.19        59.87662
823.60         59.7784
824.00        59.84467
824.41        59.97386
824.82        60.08091
825.23        60.12025
825.64        60.12181
826.04        60.12695
826.45        60.16105
826.86         60.2417
827.27        60.35725
827.68        60.44273
828.08        60.42161
828.49         60.2379
828.90        59.93762
829.31         59.6534
829.72        59.60097
830.12        59.84645
830.53        60.28139
830.94        60.73747
831.35        60.88044
831.75        60.63849
832.16        60.09723
832.57        59.47216
832.97        59.08688
833.38        59.03217
833.79        59.19365
834.20        59.46973
834.60        59.69728
835.01        59.82397
835.42        59.94678
835.82        60.05961
836.23        60.07621
836.64        60.02218
837.04        59.87564
837.45        59.80375
837.86         60.1452
838.26        60.96012
838.67        62.10636
839.08        63.21288
839.48        63.57817
839.89        63.02807
840.29        61.81716
840.70        60.49836
841.11        59.70493
841.51        59.60826
841.92        60.01432
842.33         60.7094
842.73         61.3086
843.14        61.56469
843.54        61.62723
843.95        61.60105
844.35        61.69862
844.76        61.94905
845.17        62.26396
845.57        62.49482
845.98        62.39567
846.38        61.95202
846.79         61.2616
847.19        60.55581
847.60        60.17465
848.00        60.21302
848.41        60.54805
848.81        61.02306
849.22        61.29599
849.62        61.29698
850.03        61.10894
850.43        60.83955
850.84        60.60585
851.24        60.49525
851.65        60.40445
852.05        60.40906
852.46         60.5542
852.86        60.82518
853.27        61.20332
853.67        61.50952
854.07        61.58313
854.48        61.38052
854.88        60.97313
855.29        60.44065
855.69        60.05479
856.10        59.85225
856.50        59.83082
856.90        59.90556
857.31        59.94382
857.71        59.94353
858.12        59.88833
858.52        59.82991
858.92        59.75034
859.33        59.63884
859.73        59.53173
860.13        59.39192
860.54        59.18746
860.94        58.96369
861.34        58.73064
861.75        58.56347
862.15         58.6138
862.55        58.88761
862.96        59.30604
863.36        59.79612
863.76        60.16014
864.17        60.31389
864.57        60.32354
864.97        60.18572
865.38        59.91795
865.78        59.57438
866.18        59.14871
866.58        58.74018
866.99        58.52309
867.39        58.56941
867.79        58.84913
868.19        59.24846
868.60         59.5584
869.00        59.74311
869.40        59.80873
869.80        59.84394
870.21        60.01294
870.61         60.3865
871.01        60.85057
871.41        61.17789
871.81         61.0617
872.22        60.46399
872.62        59.47321
873.02        58.41815
873.42        57.86189
873.82        57.95628
874.22        58.54789
874.63        59.24832
875.03        59.44643
875.43        58.98833
875.83        58.07812
876.23         57.0831
876.63        56.56586
877.03        56.66833
877.44        57.18546
877.84        57.85056
878.24        58.25148
878.64        58.20776
879.04        57.70348
879.44        57.06074
879.84        56.89111
880.24        57.27599
880.64        57.96547
881.04        58.61873
881.44        58.72387
881.84        58.16771
882.24        57.15197
882.65        56.05424
883.05        55.44565
883.45        55.48005
883.85        55.99007
884.25        56.72879
884.65        57.26798
885.05         57.4644
885.45        57.45495
885.85        57.36202
886.25        57.37265
886.65          57.538
887.05        57.75655
887.45        57.98784
887.85         58.1877
888.25        58.32088
888.65        58.41597
889.04        58.41955
889.44        58.26395
889.84        57.94475
890.24        57.49345
890.64        57.02925
891.04        56.75439
891.44        56.72197
891.84         56.8815
892.24        57.12271
892.64        57.26636
893.04        57.27306
893.44         57.2051
893.83        57.14698
894.23        57.18964
894.63         57.3724
895.03        57.62671
895.43        57.91426
895.83        58.18658
896.23        58.40163
896.63        58.56107
897.02         58.5983
897.42        58.43328
897.82        58.07219
898.22        57.58197
898.62        57.06677
899.01        56.67089
899.41        56.45756
899.81         56.3871
900.21          56.458
900.61        56.66019
901.00        56.95544
901.40        57.31447
901.80        57.65428
902.20        57.84153
902.59        57.85224
902.99        57.72132
903.39        57.47915
903.79        57.18743
904.18         56.8819
904.58        56.55429
904.98        56.32083
905.38        56.35735
905.77        56.68134
906.17        57.27224
906.57        57.88056
906.96        58.08281
907.36        57.77964
907.76        57.09876
908.15        56.41413
908.55         56.3101
908.95        56.91233
909.34        58.03429
909.74        59.23567
910.14        59.86409
910.53        59.71191
910.93        59.01519
911.33        58.05009
911.72        57.23475
912.12        56.77123
912.52        56.53559
912.91        56.46505
913.31         56.4794
913.70        56.54206
914.10        56.67142
914.49        56.91141
914.89        57.24094
915.29        57.64538
915.68        58.09129
916.08        58.42244
916.47        58.45987
916.87        58.19362
917.26        57.67979
917.66        57.14579
918.05        56.81779
918.45        56.76337
918.84        56.96093
919.24        57.27542
919.64        57.58183
920.03        57.82721
920.42        58.00188
920.82        58.18091
921.21         58.4362
921.61        58.76015
922.00         59.1413
922.40        59.42251
922.79        59.47583
923.19        59.24899
923.58         58.8203
923.98        58.35437
924.37        58.03281
924.77        57.91931
925.16        57.94601
925.55        58.04254
925.95        58.06185
926.34        57.97556
926.74        57.81429
927.13        57.61896
927.52        57.38868
927.92        57.18031
928.31        56.97734
928.70        56.83139
929.10        56.80105
929.49        56.87676
929.89        56.98956
930.28        57.19899
930.67        57.50348
931.07        57.85403
931.46        58.31238
931.85        58.63939
932.24        58.49875
932.64        57.89375
933.03        56.90587
933.42        55.98615
933.82         55.7853
934.21        56.41515
934.60        57.72851
934.99        59.21452
935.39        59.94403
935.78        59.69241
936.17        58.65581
936.56        57.37802
936.96        56.71693
937.35        56.89046
937.74        57.63786
938.13        58.50543
938.53        58.79496
938.92        58.34626
939.31        57.43031
939.70        56.43042
940.09        55.87593
940.49        55.86566
940.88        56.24209
941.27        56.79285
941.66         57.1378
942.05        57.15572
942.44        57.01165
942.84        56.81794
943.23        56.72328
943.62        56.78684
944.01        56.89412
944.40        57.10514
944.79        57.55028
945.18        58.19278
945.57        58.97826
945.97         59.5601
946.36        59.44684
946.75        58.53153
947.14        57.05888
947.53        55.46328
947.92        54.35349
948.31        53.89108
948.70        53.92556
949.09        54.30539
949.48         54.7491
949.87         55.1281
950.26        55.50644
950.65        55.87192
951.04        56.20629
951.43        56.48228
951.82        56.63186
952.21        56.62899
952.60        56.47491
952.99        56.20364
953.38        55.88206
953.77        55.54614
954.16        55.23526
954.55        54.97371
954.94        54.73397
955.33        54.64005
955.72        54.88945
956.11        55.49234
956.50        56.39703
956.89        57.23942
957.28          57.411
957.66        56.78548
958.05        55.58434
958.44        54.30582
958.83        53.68019
959.22        53.84975
959.61        54.61225
960.00        55.56644
960.39        55.96587
960.78        55.58399
961.16        54.67381
961.55        53.64599
961.94        53.01435
962.33        52.92435
962.72        53.25133
963.11         53.7862
963.49        54.16864
963.88        54.19749
964.27        53.96299
964.66        53.76143
965.04        54.05612
965.43        54.87937
965.82        56.15012
966.21        57.32303
966.60        57.38212
966.98        56.09936
967.37        53.93129
967.76        51.78111
968.15        50.77623
968.53        51.11252
968.92        52.52118
969.31        54.35725
969.69        55.30991
970.08        54.88408
970.47        53.51727
970.86        52.04943
971.24         51.6686
971.63         52.6213
972.02        54.55849
972.40        56.81103
972.79        57.83101
973.17        57.18883
973.56        55.45484
973.95        53.46637
974.33         52.2817
974.72        52.14681
975.11         52.7077
975.49        53.67801
975.88        54.47964
976.26        54.87902
976.65        55.01274
977.04        54.94294
977.42        54.71223
977.81        54.34634
978.19        53.81239
978.58        53.28732
978.96         53.0406
979.35         53.1216
979.74        53.48273
980.12        54.08403
980.51        54.60686
980.89         55.0366
981.28        55.40424
981.66        55.69658
982.05        55.87256
982.43        55.96273
982.82        55.92096
983.20        55.98718
983.59        56.53941
983.97        57.70029
984.35        59.33453
984.74        60.86399
985.12        61.54407
985.51        61.12034
985.89        59.85326
986.28        58.36521
986.66        57.51378
987.04        57.57665
987.43        58.30475
987.81        59.30469
988.20         59.7276
988.58        59.32031
988.96        58.30345
989.35        57.11221
989.73         56.3532
990.12        56.14409
990.50        56.33459
990.88        56.53736
991.27        56.12455
991.65         55.0032
992.03        53.47108
992.42        52.10192
992.80        51.64222
993.18         52.2366
993.56        53.66122
993.95         55.3879
994.33        56.54128
994.71        56.68858
995.10        56.17873
995.48        55.38869
995.86        54.98024
996.24          55.134
996.63        55.48523
997.01        56.10109
997.39        56.82939
997.77        57.49103
998.15        58.20887
998.54        58.56885
998.92        57.82086
999.30        56.05851
999.68        53.61177
1000.06        51.38191
1000.45         50.6287
1000.83        51.68861
1001.21        54.27515
1001.59         57.7249
1001.97        60.29904
1002.35        61.17569
1002.73         60.8159
1003.12         59.8644
1003.50        59.08125
1003.88        58.80585
1004.26        58.63292
1004.64        58.66972
1005.02        59.17065
1005.40        60.09239
1005.78        61.51883
1006.16        62.67666
1006.54         62.2804
1006.92        60.26611
1007.30        57.13386
1007.69        54.14254
1008.07        52.91227
1008.45        53.94228
1008.83        56.85046
1009.21        60.76022
1009.59        63.42499
1009.97        63.68403
1010.35        62.13989
1010.73        59.60961
1011.11        57.30587
1011.49        55.70914
1011.86        54.52858
1012.24        53.76296
1012.62        53.42591
1013.00        53.45388
1013.38        53.88779
1013.76          54.716
1014.14        55.69587
1014.52        56.60169
1014.90        57.38875
1015.28        57.77277
1015.66        57.47332
1016.04        56.51165
1016.41         54.9196
1016.79        53.22521
1017.17         52.4906
1017.55        52.94025
1017.93        54.21552
1018.31        55.57947
1018.69        55.92708
1019.06        55.01542
1019.44        53.16629
1019.82        50.74118
1020.20        48.81586
1020.58        47.98035
1020.95        47.77907
1021.33        48.22595
1021.71        49.28542
1022.09        50.88981
1022.46        53.38004
1022.84        55.84268
1023.22        55.96611
1023.60        53.13535
1023.97        48.06898
1024.35        43.40474
1024.73        42.09351
