SpectraSmart Spectrum 2.9.0.0
--------- Device Information -----------
Spectrum Name :  反射率_0
Saving Time :  2024/04/26 22:56:13
Spectro-Module Model Name : SE2030-DUVN
Spectro-Module Serial Number : OS361AC55029948
Wavelength Start : 200
Wavelength End : 1025
Wavelength Unit : Wavelength(nm)
Spectrum Unit : Reflectance(%)
-----------Spectrum Setting ------------
Integration Time : 20ms
Average : 10
Boxcar : 0
Background removal :  enabled
linearity correction :  enabled
SC :  disabled
Intensity correction :  disabled
DWT denoise :  enabled
savitzky-golay :  disabled
FFT :  disabled
Running average :  disabled
Kalman :  disabled
High pass :  disabled
---------------BEGIN--------------------
Wavelength(nm)             Reflectance(%)
200.29               0
200.75        28.66393
201.21        30.85005
201.67        33.55988
202.13        35.70224
202.58        37.12141
203.04        38.64098
203.50          40.273
203.96        41.31092
204.42        41.28734
204.88        39.99954
205.34        37.86578
205.80        36.30827
206.26         35.6666
206.72        35.31583
207.18        35.21976
207.64        35.21783
208.10        35.21937
208.55         35.8862
209.01        35.63859
209.47        31.53726
209.93        25.10854
210.39        19.50908
210.85        16.71674
211.31        17.42829
211.77        22.13676
212.23        34.67673
212.69        67.79764
213.14        126.5249
213.60        129.5301
214.06        92.38372
214.52        66.15841
214.98        54.90399
215.44        50.92916
215.90        48.86302
216.36        48.40409
216.81        49.85546
217.27         53.6109
217.73        62.12503
218.19        72.93917
218.65        72.84261
219.11        60.13607
219.57        44.70338
220.02        35.64004
220.48        37.20029
220.94        48.83092
221.40        72.29116
221.86        107.3809
222.32        132.4694
222.77        127.3945
223.23        105.4804
223.69        83.08216
224.15        70.01694
224.61        64.76056
225.06        62.67449
225.52        62.31762
225.98        62.14008
226.44        61.71902
226.90        61.80039
227.36         61.8279
227.81        60.70117
228.27        58.63744
228.73         55.8881
229.19        53.74524
229.65        53.78499
230.10        55.90566
230.56        59.50974
231.02        63.07063
231.48        64.14126
231.93        62.34212
232.39        59.05108
232.85         55.6601
233.31        53.98527
233.77        54.24616
234.22        55.76152
234.68        57.85108
235.14        59.59664
235.60        60.63786
236.05        61.34243
236.51         61.5807
236.97        61.14764
237.43        60.08259
237.88        58.42316
238.34        56.64844
238.80        55.86845
239.26        56.49271
239.71        58.88904
240.17        62.68244
240.63        66.72294
241.08        70.21288
241.54        72.76336
242.00        75.24332
242.46        80.00464
242.91        89.31488
243.37        104.0145
243.83        125.3958
244.28        146.9849
244.74        155.2173
245.20        147.3133
245.66        131.8529
246.11        117.9078
246.57        107.3343
247.03        98.09996
247.48         89.4196
247.94        81.89322
248.40        77.01297
248.85        74.45941
249.31        73.93225
249.77        74.50932
250.22        75.68836
250.68        77.34937
251.14        78.90409
251.59        78.60095
252.05        76.08102
252.51         72.8905
252.96        69.07008
253.42        64.89034
253.88        60.68272
254.33        56.46193
254.79        54.36589
255.25        55.86388
255.70        60.35551
256.16        66.91818
256.62        72.50481
257.07        72.60257
257.53         68.5261
257.99        63.12201
258.44        58.58328
258.90        56.96662
259.35        57.30262
259.81        58.83941
260.27        60.39321
260.72        60.60996
261.18        59.65436
261.63         57.8992
262.09        56.32076
262.55        55.44156
263.00        55.14783
263.46        55.29154
263.91        55.24125
264.37        54.52527
264.83        53.12807
265.28        51.31469
265.74        49.72617
266.19        48.84468
266.65        48.77745
267.11        49.21616
267.56         49.7822
268.02        49.88335
268.47        49.35883
268.93        48.43396
269.38         47.3123
269.84        46.36747
270.30        45.68417
270.75        45.11913
271.21        44.63936
271.66        44.14159
272.12        43.59734
272.57        43.04015
273.03        42.43384
273.48        41.69205
273.94        40.86931
274.39        39.95092
274.85        39.10758
275.31        38.43162
275.76         37.9126
276.22        37.56376
276.67        37.24259
277.13        36.84494
277.58        36.29583
278.04        35.65499
278.49        34.98032
278.95        34.48547
279.40        34.13516
279.86        33.92869
280.31        33.65417
280.77        33.12815
281.22         32.3071
281.68         31.3597
282.13        30.44934
282.59         29.8859
283.04        29.67346
283.50        29.72332
283.95        29.87039
284.41        29.87041
284.86        29.65007
285.32        29.31523
285.77        28.93451
286.22        28.66695
286.68        28.54108
287.13        28.45755
287.59        28.38593
288.04        28.24076
288.50        28.02645
288.95        27.75873
289.41        27.46074
289.86        27.08946
290.32        26.69518
290.77        26.28419
291.22         25.9402
291.68        25.77486
292.13        25.79034
292.59        25.95597
293.04        26.21079
293.50        26.47619
293.95        26.71034
294.40        26.94208
294.86        27.15537
295.31        27.31956
295.77        27.45102
296.22        27.54985
296.68        27.69457
297.13        27.99564
297.58        28.47345
298.04        29.09001
298.49        29.75056
298.95         30.3197
299.40        30.74473
299.85        31.05736
300.31        31.30758
300.76        31.56618
301.21        31.85853
301.67        32.17816
302.12        32.46771
302.58        32.70015
303.03        32.84765
303.48        32.94368
303.94        33.05515
304.39        33.24498
304.84        33.52683
305.30        33.87896
305.75        34.19392
306.20        34.36318
306.66        34.37564
307.11        34.25941
307.57         34.1041
308.02        34.00064
308.47        33.98482
308.93        34.03015
309.38        34.08881
309.83        34.13288
310.29        34.14904
310.74        34.14856
311.19        34.11776
311.65        34.02748
312.10        33.87215
312.55         33.6526
313.00        33.42289
313.46         33.2658
313.91        33.18145
314.36        33.15796
314.82        33.11745
315.27        32.94217
315.72        32.61116
316.18         32.1773
316.63        31.73216
317.08        31.42973
317.53        31.30176
317.99        31.29486
318.44        31.32983
318.89        31.26608
319.35        31.06245
319.80        30.75857
320.25        30.41172
320.70        30.11402
321.16        29.89052
321.61        29.72273
322.06        29.56627
322.51        29.35423
322.97        29.06999
323.42        28.74585
323.87        28.43974
324.32        28.24545
324.78        28.17035
325.23        28.19498
325.68        28.22915
326.13        28.13107
326.59        27.86406
327.04         27.4836
327.49        27.06863
327.94        26.74599
328.39        26.54706
328.85        26.42187
329.30         26.3494
329.75        26.24245
330.20        26.07549
330.66        25.87434
331.11        25.67312
331.56        25.49974
332.01         25.3634
332.46        25.24578
332.92         25.1221
333.37        24.99803
333.82        24.85829
334.27        24.71324
334.72        24.57077
335.17        24.43959
335.63        24.32184
336.08        24.22812
336.53        24.15665
336.98        24.11324
337.43        24.09511
337.88        24.09246
338.34        24.09466
338.79        24.11022
339.24          24.123
339.69        24.12856
340.14        24.10097
340.59        24.00262
341.05        23.84026
341.50        23.63062
341.95        23.41779
342.40        23.26642
342.85        23.19559
343.30        23.18746
343.75        23.22319
344.20        23.27173
344.66        23.31921
345.11        23.36613
345.56        23.40148
346.01        23.40979
346.46        23.39133
346.91        23.35211
347.36        23.29861
347.81        23.24619
348.26        23.20148
348.72        23.16037
349.17        23.13556
349.62        23.15722
350.07        23.22527
350.52        23.33296
350.97        23.42617
351.42        23.41902
351.87        23.29578
352.32        23.07917
352.77        22.84616
353.22        22.71063
353.67        22.69454
354.13        22.77128
354.58        22.85511
355.03         22.8075
355.48         22.6017
355.93        22.28677
356.38        21.97308
356.83        21.82273
357.28        21.86391
357.73        22.04035
358.18        22.23927
358.63        22.27914
359.08        22.11324
359.53        21.79907
359.98        21.43592
360.43        21.17091
360.88        21.03747
361.33        20.98806
361.78         20.9509
362.23         20.8145
362.68        20.55869
363.13         20.2347
363.58        19.90856
364.03        19.67463
364.48        19.55575
364.93        19.51525
365.38        19.51756
365.83        19.50718
366.28        19.46196
366.73        19.39989
367.18        19.31752
367.63        19.20889
368.08        19.07764
368.53         18.9202
368.98        18.76164
369.43        18.64617
369.88        18.58093
370.33        18.55473
370.78        18.53485
371.23        18.46396
371.68        18.32982
372.13        18.15432
372.58        17.96866
373.03         17.8216
373.48        17.72786
373.93        17.67037
374.38        17.63746
374.83        17.61205
375.28        17.58123
375.72        17.54003
376.17        17.49025
376.62        17.41116
377.07        17.30314
377.52        17.17676
377.97        17.03672
378.42        16.89628
378.87        16.76418
379.32        16.63347
379.77        16.53081
380.22        16.49258
380.67        16.51649
381.11        16.59856
381.56        16.66231
382.01        16.59489
382.46        16.38158
382.91        16.06885
383.36        15.75768
383.81        15.58788
384.26        15.58124
384.71        15.69256
385.15        15.84352
385.60        15.90599
386.05        15.84153
386.50        15.69316
386.95        15.51482
387.40        15.38898
387.85        15.33863
388.29        15.32384
388.74        15.33329
389.19        15.32071
389.64        15.27275
390.09        15.19771
390.54        15.11156
390.98        15.03417
391.43        14.98108
391.88        14.94695
392.33        14.90409
392.78        14.81214
393.23        14.67379
393.67        14.50277
394.12        14.36178
394.57        14.31401
395.02        14.36454
395.47        14.47665
395.91        14.60583
396.36        14.66581
396.81        14.63899
397.26        14.56069
397.71        14.43427
398.15        14.27436
398.60        14.11735
399.05        13.90419
399.50        13.70652
399.95        13.72739
400.39        13.93158
400.84        14.05104
401.29        14.03322
401.74         14.0094
402.18        13.96757
402.63        13.79185
403.08        13.56102
403.53        13.46429
403.97        13.53047
404.42        13.70178
404.87        13.89591
405.32        13.98023
405.76        13.91913
406.21         13.7639
406.66        13.58279
407.11        13.48056
407.55        13.48807
408.00         13.5663
408.45        13.66534
408.90          13.692
409.34        13.62063
409.79        13.49035
410.24        13.35336
410.68        13.27543
411.13        13.27498
411.58        13.32585
412.03        13.39553
412.47        13.43095
412.92        13.40911
413.37        13.35275
413.81        13.28099
414.26        13.23022
414.71        13.20498
415.15        13.19761
415.60        13.19455
416.05        13.18492
416.49        13.16702
416.94        13.14614
417.39        13.13038
417.83        13.12963
418.28        13.14275
418.73        13.15946
419.17        13.17515
419.62        13.18424
420.07        13.18288
420.51        13.17145
420.96        13.14186
421.41        13.07833
421.85        12.98164
422.30        12.86148
422.74         12.7401
423.19        12.70761
423.64        12.75061
424.08        12.77678
424.53        12.77782
424.98        12.83968
425.42        12.96281
425.87        13.05823
426.31         13.1025
426.76        13.15865
427.21        13.18308
427.65        13.00384
428.10        12.70767
428.54        12.56236
428.99        12.60121
429.44        12.74278
429.88        12.90815
430.33        12.92314
430.77        12.80624
431.22        12.81794
431.66        12.95278
432.11        12.97486
432.56        12.88534
433.00        12.85783
433.45        12.84606
433.89        12.68708
434.34        12.48543
434.78         12.1811
435.23        12.45772
435.67        12.50206
436.12        12.48224
436.57        12.43336
437.01        12.37836
437.46        12.36117
437.90        12.38096
438.35        12.38872
438.79        12.37191
439.24         12.3552
439.68        12.33895
440.13         12.3157
440.57        12.29475
441.02        12.30543
441.46        12.34741
441.91        12.37488
442.35        12.37462
442.80        12.45199
443.24        12.54986
443.69        12.46399
444.13        12.23525
444.58        12.12454
445.02        12.14787
445.47        12.17261
445.91        12.17892
446.36        12.19436
446.80        12.20816
447.24        12.21741
447.69         12.2187
448.13        12.19927
448.58        12.16279
449.02        12.11084
449.47        12.06307
449.91         12.0457
450.36        12.06616
450.80        12.11339
451.25        12.17015
451.69        12.20226
452.13        12.20225
452.58        12.17708
453.02        12.13992
453.47        12.11448
453.91        12.10719
454.36        12.11296
454.80        12.11592
455.24        12.08991
455.69        12.03546
456.13        11.95527
456.58        11.88459
457.02        11.85468
457.46         11.8764
457.91         11.9367
458.35        11.99698
458.79        11.99844
459.24        11.94138
459.68        11.83831
460.13        11.74177
460.57        11.69815
461.01        11.72736
461.46        11.80077
461.90        11.89658
462.34        11.96701
462.79         11.9912
463.23        11.98764
463.68        11.95542
464.12        11.90193
464.56        11.83429
465.01        11.76767
465.45        11.70027
465.89        11.66321
466.34        11.65888
466.78         11.6764
467.22        11.71211
467.67        11.74592
468.11        11.77594
468.55        11.80122
468.99        11.81473
469.44        11.80507
469.88        11.77234
470.32        11.71795
470.77         11.6606
471.21        11.63421
471.65        11.64396
472.10        11.68305
472.54        11.72618
472.98        11.73716
473.42        11.70925
473.87        11.66047
474.31        11.60464
474.75        11.57433
475.20        11.58032
475.64        11.60607
476.08        11.64667
476.52          11.689
476.97        11.72701
477.41        11.76967
477.85        11.81497
478.29        11.84077
478.74        11.85616
479.18        11.89452
479.62        11.94869
480.06        11.99003
480.50        12.01821
480.95        12.02946
481.39        12.02597
481.83        12.12967
482.27        12.16386
482.72        12.26747
483.16        12.36381
483.60        12.40352
484.04        12.37582
484.48        12.33515
484.93        12.35963
485.37        12.30147
485.81        12.51775
486.25         12.6758
486.69         12.4513
487.14        12.39637
487.58        13.35338
488.02        13.04939
488.46         12.6806
488.90        12.76442
489.34        12.85368
489.79        13.04542
490.23        13.03024
490.67        13.14416
491.11        13.33024
491.55        13.37432
491.99        13.31333
492.43        13.33687
492.88        13.46107
493.32        13.58602
493.76         13.6878
494.20        13.78043
494.64        13.86337
495.08          13.909
495.52        13.93768
495.96        14.07186
496.41        14.28785
496.85         14.3595
497.29        14.30415
497.73        14.48729
498.17        14.69365
498.61        14.83218
499.05        14.83358
499.49        14.86646
499.93        14.90982
500.37        15.03267
500.82        15.19998
501.26        15.31411
501.70        15.36247
502.14        15.40796
502.58        15.46825
503.02        15.53843
503.46        15.62228
503.90        15.72103
504.34        15.81586
504.78        15.87537
505.22        15.89419
505.66        15.88325
506.10        15.86719
506.54         15.8856
506.98         15.9477
507.42        16.04028
507.86        16.14537
508.30         16.2328
508.74        16.29271
509.18        16.33553
509.62        16.36645
510.06        16.39396
510.50        16.42342
510.94        16.45119
511.38        16.48502
511.82        16.53827
512.26        16.61156
512.70        16.70074
513.14         16.7913
513.58        16.85886
514.02         16.8964
514.46        16.90904
514.90        16.90703
515.34         16.9085
515.78         16.9188
516.22        16.93259
516.66        16.94381
517.10        16.94268
517.54        16.92755
517.98        16.90439
518.42        16.87892
518.86        16.85854
519.30        16.84632
519.74        16.84024
520.18        16.83854
520.62        16.83874
521.06        16.83877
521.50        16.83762
521.93        16.83633
522.37        16.83002
522.81        16.81984
523.25        16.80605
523.69        16.78414
524.13        16.74784
524.57        16.69657
525.01        16.63112
525.45        16.56293
525.89        16.51061
526.32        16.47621
526.76        16.45932
527.20         16.4421
527.64        16.39749
528.08        16.32205
528.52        16.22613
528.96        16.13187
529.40         16.0733
529.83        16.05693
530.27        16.07125
530.71        16.09496
531.15        16.09604
531.59        16.06473
532.03        16.00892
532.46        15.93868
532.90        15.88155
533.34        15.84172
533.78        15.80421
534.22        15.76076
534.66        15.71804
535.09        15.66463
535.53        15.57231
535.97        15.46297
536.41         15.4097
536.85        15.42066
537.28        15.45903
537.72         15.5148
538.16        15.58255
538.60        15.65283
539.04        15.72644
539.47        15.78809
539.91         15.8253
540.35        15.83583
540.79        15.82592
541.22        15.81855
541.66        15.85692
542.10        15.94745
542.54        16.07776
542.97        16.22264
543.41        16.34784
543.85        16.44134
544.29        16.51532
544.72        16.57935
545.16        16.66083
545.60        16.76314
546.04        16.87906
546.47        17.00598
546.91        17.13657
547.35        17.26521
547.79        17.39622
548.22        17.52283
548.66        17.63006
549.10        17.73829
549.53        17.84236
549.97        17.95356
550.41        18.04932
550.84        18.14999
551.28        18.30022
551.72         18.4722
552.15        18.63588
552.59        18.80661
553.03        18.71841
553.46        18.94498
553.90        19.01302
554.34         19.0932
554.77        19.18085
555.21        19.28718
555.65        19.41306
556.08        19.54773
556.52         19.6789
556.96        19.79068
557.39        19.91318
557.83        20.02794
558.27        20.02449
558.70        19.93633
559.14        19.93844
559.57        20.03106
560.01        20.10796
560.45        20.15851
560.88         20.2289
561.32        20.32563
561.75        20.41486
562.19        20.49867
562.63        20.57547
563.06        20.64118
563.50        20.69949
563.93        20.73899
564.37        20.79607
564.80        20.88186
565.24        20.93787
565.68        20.92381
566.11        21.23151
566.55        21.09959
566.98        21.16456
567.42        21.23786
567.85        21.35409
568.29        21.52061
568.72        21.74143
569.16        22.02258
569.60        22.20652
570.03        22.35878
570.47        22.54709
570.90          22.804
571.34        22.64051
571.77        23.00862
572.21        23.07512
572.64        23.06429
573.08        23.40292
573.51        23.37995
573.95        23.52522
574.38        23.58858
574.82        24.06171
575.25        23.76072
575.69        23.79392
576.12        23.75307
576.56        23.80882
576.99         23.9931
577.42        23.89608
577.86        24.07441
578.29        24.32331
578.73        24.26657
579.16        24.21612
579.60        24.00522
580.03        23.97392
580.47        23.81398
580.90        23.97692
581.33        23.69894
581.77        23.85803
582.20        23.52447
582.64        23.40179
583.07        23.38177
583.51         23.2825
583.94        23.18542
584.37        23.11788
584.81        23.09092
585.24        22.89378
585.68        22.58887
586.11        22.53664
586.54        22.50393
586.98        22.30325
587.41        22.21728
587.85        22.24115
588.28        22.02763
588.71        22.04778
589.15        22.16489
589.58        21.90466
590.01        22.25526
590.45        22.05829
590.88        22.10282
591.31         22.0212
591.75        22.04316
592.18        21.93517
592.61        21.65708
593.05        22.30427
593.48        22.44647
593.91        22.07709
594.35          22.309
594.78        22.23696
595.21        22.31739
595.65        22.45628
596.08        22.70705
596.51        22.83614
596.94         22.7625
597.38        22.87283
597.81        23.15728
598.24        23.38093
598.68        23.58001
599.11        23.88334
599.54        24.42305
599.97        24.43396
600.41        24.82092
600.84        24.92347
601.27        25.37218
601.70        25.63004
602.14        26.01602
602.57        26.38858
603.00        26.85132
603.43        27.04478
603.87        27.85973
604.30        28.22252
604.73        28.41577
605.16        28.67885
605.60         29.0382
606.03         29.3115
606.46        29.50971
606.89        29.94784
607.32        30.71836
607.76        31.12198
608.19         31.5094
608.62        31.75614
609.05        32.06185
609.48        32.44279
609.92        33.30408
610.35         33.5113
610.78        33.46006
611.21        33.80319
611.64        34.17166
612.07        34.63099
612.50        34.82779
612.94        35.12475
613.37        35.45978
613.80        35.60464
614.23        35.64302
614.66        35.94902
615.09        36.51101
615.52        36.93914
615.96        37.17642
616.39        37.49726
616.82        37.92094
617.25         37.9283
617.68        38.18391
618.11        38.40843
618.54        38.77483
618.97        39.05155
619.40        39.23305
619.84        39.51661
620.27        39.56373
620.70        39.83403
621.13        40.19864
621.56        39.91909
621.99        39.71145
622.42        39.73762
622.85        40.18564
623.28        40.06464
623.71        40.28281
624.14        40.14512
624.57        40.41536
625.00        40.43831
625.43        40.33899
625.86        40.29231
626.29        40.34129
626.72        39.85041
627.15        39.98952
627.58        39.79536
628.01        39.58541
628.44        39.39259
628.87        39.24546
629.30        38.75446
629.73        38.56128
630.16        38.33102
630.59        38.05479
631.02        37.85533
631.45          37.647
631.88        37.38158
632.31        37.03492
632.74        36.62765
633.17        36.17281
633.60        35.68904
634.03        35.19172
634.46        34.68045
634.89        34.16377
635.32        33.66177
635.75        33.18318
636.18        32.69282
636.61        32.21239
637.04        31.78896
637.47        31.42152
637.89        31.09168
638.32        30.75601
638.75        30.37755
639.18         29.9528
639.61        29.49998
640.04        29.06452
640.47        28.71317
640.90        28.45979
641.33        28.28627
641.76        28.15596
642.18        28.01159
642.61        27.82976
643.04         27.6323
643.47        27.45151
643.90        27.33776
644.33         27.3037
644.76        27.33407
645.18        27.39877
645.61        27.44479
646.04        27.46292
646.47         27.4701
646.90        27.50667
647.33        27.62991
647.75        27.84497
648.18        28.16479
648.61        28.55515
649.04        28.86806
649.47        29.06475
649.89        29.58116
650.32        29.68449
650.75        30.14415
651.18        30.71149
651.61        31.23806
652.03        31.73295
652.46        32.28461
652.89         32.8739
653.32        33.37839
653.74        33.90738
654.17        33.94245
654.60        35.10071
655.03        35.11105
655.46        35.58991
655.88        36.15879
656.31        37.70774
656.74        39.45439
657.16          40.818
657.59        42.36585
658.02         40.0199
658.45         39.9842
658.87        40.09359
659.30        40.54237
659.73        40.86437
660.15        41.90336
660.58        41.30061
661.01        41.62199
661.44        42.20959
661.86        42.51842
662.29        42.53981
662.72        43.20059
663.14        43.64877
663.57         44.0136
664.00        44.10273
664.42        44.39749
664.85        44.92522
665.27        45.44838
665.70        45.87332
666.13        46.19139
666.55        46.38783
666.98        46.42749
667.41        46.36998
667.83        46.61236
668.26        46.70066
668.69        46.99741
669.11        47.33733
669.54        47.67556
669.96        47.99292
670.39        48.32612
670.82        48.65077
671.24        48.85836
671.67         48.9688
672.09        49.07169
672.52        49.21381
672.94        49.41922
673.37        49.66482
673.80        49.81518
674.22        49.88978
674.65        50.01987
675.07        50.22114
675.50        50.39302
675.92        50.52069
676.35        50.62164
676.77        50.69807
677.20        50.74257
677.62         50.7949
678.05        50.91804
678.47        51.12162
678.90        51.39397
679.32        51.67993
679.75        51.89922
680.17        52.02661
680.60        52.08522
681.02        52.13092
681.45        52.23813
681.87        52.43427
682.30        52.72137
682.72        53.04266
683.15        53.19331
683.57        53.19255
684.00        53.23942
684.42        53.37784
684.85        53.51504
685.27        53.65539
685.70        53.90755
686.12        54.18831
686.54        54.27637
686.97        54.22546
687.39        54.10191
687.82        54.39197
688.24        54.42555
688.66        54.35153
689.09        54.32973
689.51        54.39755
689.94        54.50275
690.36        54.64953
690.78        54.81631
691.21        55.00567
691.63         55.2639
692.06        55.55716
692.48        55.77745
692.90        55.89212
693.33        55.92934
693.75        55.88052
694.17        55.73347
694.60        55.62406
695.02        55.49107
695.44        55.83205
695.87        56.26084
696.29         56.7421
696.71        56.74598
697.14         56.3807
697.56        56.24846
697.98        56.37243
698.41         56.8354
698.83        56.67754
699.25        57.01056
699.68        57.43633
700.10        57.67751
700.52        57.63713
700.94        57.44995
701.37        57.24541
701.79        57.22329
702.21        57.42845
702.64        57.77768
703.06        58.16589
703.48        58.40871
703.90         58.4555
704.33        58.37264
704.75        58.22882
705.17        58.12377
705.59        58.10055
706.01        58.12579
706.44        58.20707
706.86        58.36944
707.28        58.59045
707.70         58.8763
708.12        59.17841
708.55        59.37102
708.97        59.45283
709.39        59.51791
709.81         59.5772
710.23        59.59745
710.66        59.58854
711.08        59.59455
711.50        59.60878
711.92         59.6264
712.34        59.66574
712.76        59.70303
713.19        59.70979
713.61         59.8077
714.03        60.01334
714.45        59.77357
714.87        60.07761
715.29        60.20998
715.71        60.45574
716.13        60.75829
716.56        61.05496
716.98        61.31218
717.40        61.46256
717.82        61.50391
718.24        61.44041
718.66        61.35148
719.08        61.23682
719.50        60.97127
719.92        60.64487
720.34        60.52508
720.76        60.64151
721.19          60.848
721.61        61.13482
722.03        61.47422
722.45        61.81872
722.87        62.16179
723.29        62.40505
723.71        62.39598
724.13        62.12519
724.55        61.64968
724.97        61.14212
725.39        60.89012
725.81        60.96665
726.23        61.27437
726.65        61.68013
727.07        62.09698
727.49        62.23258
727.91        62.32637
728.33        62.36947
728.75        62.46593
729.17         62.6386
729.59        62.83302
730.01        63.01284
730.43        63.12919
730.85        63.16655
731.27        63.14975
731.69        63.08614
732.10        62.99193
732.52        62.89742
732.94        62.75779
733.36         62.6096
733.78        62.58788
734.20        62.73796
734.62        62.50396
735.04        63.27758
735.46        62.83686
735.88        63.42998
736.30        63.44894
736.72         63.5126
737.13        63.76788
737.55        64.08913
737.97        64.35641
738.39        64.43615
738.81        63.95789
739.23        63.16763
739.65        63.17102
740.06        63.86334
740.48        64.17529
740.90        64.04024
741.32        64.10979
741.74        64.40754
742.16        64.60224
742.57        64.67403
742.99        64.73693
743.41        64.75899
743.83         64.6096
744.25        64.33825
744.67        64.08424
745.08         63.9571
745.50        64.05025
745.92        64.34638
746.34        64.68831
746.75        64.97194
747.17        65.12381
747.59        65.11662
748.01        64.95231
748.42        64.68936
748.84        64.49699
749.26        64.45833
749.68        64.40467
750.09        64.38073
750.51        64.84674
750.93        65.53474
751.35        65.45972
751.76        64.75186
752.18        64.36017
752.60        64.30915
753.01        64.56059
753.43         64.3072
753.85        64.02315
754.27        64.28502
754.68        64.41824
755.10         64.6236
755.52        64.74855
755.93        64.90009
756.35        64.95557
756.77        65.02187
757.18        65.11932
757.60        65.26113
758.02        65.64953
758.43        66.13689
758.85         65.7076
759.26        65.65611
759.68        65.04526
760.10        64.90491
760.51        65.21202
760.93         65.9117
761.34        66.11147
761.76        65.78359
762.18        65.59937
762.59        65.69331
763.01        65.70671
763.42        65.70224
763.84         66.0151
764.26         66.4935
764.67           66.28
765.09        65.60638
765.50        65.54652
765.92        66.05863
766.33        66.14936
766.75        65.73946
767.16        65.57541
767.58        65.66183
768.00        65.55255
768.41        65.35524
768.83        65.59219
769.24        66.12313
769.66        66.34284
770.07        66.22263
770.49        65.97305
770.90        65.78383
771.32        66.17555
771.73        66.97148
772.15        67.26655
772.56        67.02538
772.97        66.61421
773.39        66.15651
773.80        66.34097
774.22        66.31358
774.63        66.31052
775.05        66.82915
775.46        66.93771
775.88        66.82876
776.29        66.58078
776.70        66.32758
777.12        66.26355
777.53          66.437
777.95         66.7365
778.36        67.08336
778.77         67.3143
779.19        67.40057
779.60        67.42368
780.02        67.35636
780.43        67.26695
780.84        67.22784
781.26        66.81981
781.67        66.27341
782.09        66.93169
782.50        68.47058
782.91        68.28024
783.33        67.53719
783.74        67.16588
784.15        67.53302
784.57        67.74379
784.98        67.77848
785.39        67.39478
785.81        67.15895
786.22        67.73787
786.63        68.45785
787.04         68.8565
787.46        68.67958
787.87        68.42032
788.28        68.23798
788.70        68.13293
789.11        68.12796
789.52        68.37488
789.93        68.72787
790.35        68.61068
790.76        68.13247
791.17        68.08137
791.58        68.45909
792.00        68.54082
792.41        68.29155
792.82        68.29232
793.23        68.48426
793.65        68.09622
794.06        67.41621
794.47        67.70805
794.88        68.72554
795.29        69.34827
795.71         68.8819
796.12        68.72906
796.53         68.7858
796.94        68.53609
797.35        68.19743
797.76        68.37995
798.18        69.35976
798.59        69.87488
799.00        69.41874
799.41        69.01104
799.82        68.68415
800.23        68.49828
800.64        68.51254
801.06        68.67889
801.47        68.93519
801.88        69.07491
802.29        69.03413
802.70        68.86388
803.11        68.62433
803.52        68.41559
803.93        68.30151
804.34        68.26987
804.75         68.3045
805.17        68.46993
805.58        68.80958
805.99        68.96971
806.40        69.02343
806.81        69.84578
807.22        71.06599
807.63         70.9204
808.04        69.61291
808.45        69.01241
808.86        69.26852
809.27        69.36109
809.68        69.18876
810.09        69.08149
810.50        69.02969
810.91        68.95537
811.32         68.9329
811.73        69.07108
812.14         69.3746
812.55        69.80913
812.96        70.23834
813.37        70.40115
813.78        70.23076
814.19        69.82907
814.60        69.33562
815.01        68.93664
815.42        68.68378
815.83        68.52293
816.24        68.45886
816.65        68.49839
817.05        68.63338
817.46        68.84289
817.87        69.07058
818.28         69.1722
818.69        69.12804
819.10        68.96461
819.51        68.79449
819.92        68.85136
820.33        69.18636
820.74        69.65022
821.14        70.12788
821.55         70.5767
821.96        70.87281
822.37         70.7505
822.78        70.30733
823.19        70.01482
823.60        69.95623
824.00        69.91845
824.41        69.85243
824.82         69.8878
825.23        70.01286
825.64        70.20379
826.04        70.41152
826.45        70.50346
826.86        70.46567
827.27        70.34384
827.68        70.17009
828.08        70.03118
828.49        69.91155
828.90        69.80259
829.31        69.76726
829.72        69.90949
830.12        70.25464
830.53        70.71677
830.94        71.13562
831.35        71.18425
831.75        70.81293
832.16        70.11048
832.57        69.32768
832.97        68.84419
833.38         68.7667
833.79        68.96328
834.20        69.33327
834.60        69.70947
835.01        70.02183
835.42        70.36411
835.82        70.66483
836.23        70.71574
836.64        70.52174
837.04        70.09111
837.45        69.69038
837.86        69.82959
838.26        70.61947
838.67        71.87585
839.08        73.15056
839.48        73.58894
839.89        72.97267
840.29        71.61368
840.70        70.14926
841.11        69.31209
841.51         69.2944
841.92        69.85189
842.33        70.73387
842.73        71.49187
843.14        71.83655
843.54        71.95495
843.95        71.93465
844.35        71.96924
844.76        72.09443
845.17        72.21944
845.57        72.28134
845.98        72.17387
846.38        71.90382
846.79        71.52319
847.19        71.12831
847.60        70.83369
848.00        70.68775
848.41        70.63638
848.81        70.66223
849.22        70.64601
849.62        70.60114
850.03        70.55852
850.43          70.545
850.84        70.53281
851.24        70.56845
851.65        70.57082
852.05        70.68736
852.46        71.05774
852.86        71.66354
853.27        72.41703
853.67        73.00945
854.07        73.14201
854.48        72.75076
854.88        71.96377
855.29        70.96308
855.69        70.23254
856.10        69.87891
856.50         69.8725
856.90         70.0523
857.31        70.14719
857.71        70.12036
858.12        69.99435
858.52        69.87979
858.92        69.83689
859.33        69.86694
859.73         69.9629
860.13        70.03024
860.54         69.9558
860.94        69.76395
861.34        69.49125
861.75         69.2244
862.15        69.14458
862.55        69.26933
862.96        69.49563
863.36        69.80257
863.76        70.06671
864.17        70.21483
864.57        70.30876
864.97        70.23826
865.38        69.84014
865.78        69.15054
866.18        68.23092
866.58        67.34042
866.99        66.93941
867.39        67.17651
867.79        67.90559
868.19        68.87505
868.60        69.67299
869.00        70.19761
869.40        70.51222
869.80        70.66554
870.21        70.76066
870.61        70.88565
871.01        70.92773
871.41         70.8138
871.81        70.45596
872.22        69.85275
872.62        69.06876
873.02        68.27654
873.42        67.74786
873.82        67.57418
874.22        67.69546
874.63        67.95058
875.03        68.08923
875.43        68.02108
875.83        67.80839
876.23        67.57053
876.63        67.49921
877.03        67.63547
877.44        67.88131
877.84         68.1282
878.24         68.2115
878.64        68.05457
879.04        67.60519
879.44        67.07725
879.84        66.89314
880.24        67.09692
880.64        67.51176
881.04        67.90584
881.44        67.92617
881.84        67.49443
882.24        66.76171
882.65        65.94912
883.05        65.38326
883.45        65.18005
883.85        65.25837
884.25         65.5621
884.65        65.98663
885.05        66.45412
885.45        66.96062
885.85          67.461
886.25        67.89353
886.65        68.23476
887.05        68.47755
887.45        68.57763
887.85        68.48817
888.25        68.21835
888.65        67.79321
889.04        67.33549
889.44        67.06133
889.84        66.99825
890.24        67.09619
890.64        67.22603
891.04        67.16142
891.44        66.86533
891.84        66.44963
892.24        66.02407
892.64        65.73969
893.04        65.65677
893.44        65.73415
893.83        66.00603
894.23        66.47695
894.63         67.1236
895.03        67.88692
895.43        68.65462
895.83         69.2535
896.23        69.60105
896.63        69.70485
897.02        69.54135
897.42        69.12423
897.82        68.51525
898.22        67.79402
898.62        67.08014
899.01        66.52958
899.41        66.20932
899.81        66.06467
900.21        66.12978
900.61        66.43851
901.00        66.94485
901.40        67.61185
901.80        68.20798
902.20        68.36768
902.59        68.03741
902.99         67.3118
903.39        66.48148
903.79        66.03719
904.18        66.09477
904.58        66.50558
904.98        67.07481
905.38        67.50388
905.77        67.70633
906.17        67.81039
906.57        67.81178
906.96        67.69904
907.36        67.49689
907.76        67.20831
908.15        67.03224
908.55        67.27968
908.95        67.98667
909.34        69.03793
909.74        70.09901
910.14         70.7021
910.53        70.67876
910.93        70.19485
911.33        69.37682
911.72        68.41859
912.12        67.51574
912.52        66.66125
912.91        65.98343
913.31        65.68806
913.70         65.7976
914.10        66.22618
914.49        66.91497
914.89        67.64396
915.29        68.32074
915.68         68.9804
916.08        69.41226
916.47        69.37125
916.87         68.8633
917.26        67.94205
917.66        67.03418
918.05        66.64798
918.45        66.89095
918.84        67.68295
919.24        68.62715
919.64        69.13675
920.03        69.05067
920.42        68.50128
920.82        67.88914
921.21        67.78918
921.61        68.30545
922.00        69.27899
922.40        70.28772
922.79        70.74314
923.19        70.44939
923.58         69.6635
923.98        68.73264
924.37         68.0817
924.77        67.85326
925.16        67.87011
925.55        68.06884
925.95        68.32444
926.34        68.57352
926.74        68.84074
927.13        69.00321
927.52        68.78515
927.92        68.21954
928.31        67.39114
928.70        66.56844
929.10        66.14484
929.49        66.19717
929.89         66.5527
930.28        67.17759
930.67        67.87914
931.07        68.51637
931.46        69.21317
931.85        69.68576
932.24        69.53365
932.64        68.77241
933.03         67.4878
933.42        66.25773
933.82        65.93443
934.21         66.6725
934.60        68.28714
934.99        70.14589
935.39        71.08501
935.78        70.81226
936.17        69.57136
936.56        68.02465
936.96        67.22132
937.35        67.42863
937.74        68.32668
938.13        69.34347
938.53        69.60157
938.92        68.90437
939.31        67.59486
939.70         66.1976
940.09        65.43791
940.49        65.45464
940.88        66.04887
941.27        66.87843
941.66        67.33044
942.05        67.22477
942.44        66.80083
942.84        66.33975
943.23         66.2564
943.62         66.6621
944.01        67.34106
944.40        68.17921
944.79        69.03272
945.18        69.77586
945.57        70.42527
945.97        70.73577
946.36        70.40662
946.75        69.40586
947.14        67.94658
947.53        66.40497
947.92        65.30611
948.31        64.79446
948.70        64.73906
949.09        65.09087
949.48        65.72871
949.87        66.54108
950.26        67.53815
950.65        68.48904
951.04        69.01611
951.43         69.0276
951.82        68.58154
952.21        67.93209
952.60        67.53987
952.99        67.54625
953.38        67.84832
953.77        68.28462
954.16        68.59003
954.55        68.67177
954.94        68.58145
955.33        68.43124
955.72        68.40224
956.11        68.53458
956.50        68.77959
956.89        68.89497
957.28        68.50021
957.66        67.55065
958.05        66.25204
958.44        65.02825
958.83        64.46811
959.22        64.66605
959.61        65.44976
960.00        66.42735
960.39        66.87195
960.78        66.55426
961.16        65.69003
961.55        64.68342
961.94        64.03876
962.33        63.90473
962.72        64.17036
963.11        64.63715
963.49        64.96861
963.88        64.96479
964.27        64.71912
964.66        64.54657
965.04        64.94335
965.43        65.93262
965.82        67.41846
966.21        68.79908
966.60        68.93962
966.98        67.58204
967.37        65.25484
967.76        62.91056
968.15        61.73749
968.53        61.95375
968.92        63.24741
969.31        65.04876
969.69        66.19081
970.08        66.15417
970.47        65.30444
970.86        64.26392
971.24        63.91446
971.63        64.45897
972.02        65.63696
972.40        66.96827
972.79        67.29758
973.17        66.40417
973.56        64.75616
973.95        63.10338
974.33        62.38498
974.72        62.78564
975.11        63.98183
975.49        65.57993
975.88        66.73115
976.26        67.12786
976.65        66.95307
977.04        66.39859
977.42        65.74049
977.81        65.08067
978.19        64.32096
978.58        63.66196
978.96         63.4042
979.35        63.57814
979.74        64.17621
980.12        65.01297
980.51        65.46716
980.89         65.5056
981.28        65.27734
981.66        65.04284
982.05        65.18324
982.43        65.79319
982.82        66.66198
983.20        67.83952
983.59        69.28934
983.97        70.95068
984.35        72.77425
984.74         74.1238
985.12         74.2041
985.51        72.85214
985.89        70.41065
986.28        67.83643
986.66        66.47151
987.04        66.70502
987.43        68.18211
987.81        70.30323
988.20        71.70774
988.58        71.89561
988.96        71.13251
989.35        69.93184
989.73        69.04044
990.12        68.63687
990.50        68.52633
990.88        68.28516
991.27        67.27477
991.65        65.47564
992.03        63.27073
992.42        61.41231
992.80        60.82485
993.18        61.69293
993.56        63.77821
993.95        66.35511
994.33        68.16708
994.71        68.59268
995.10        68.01213
995.48        67.05682
995.86        66.82912
996.24        67.59171
996.63        68.84126
997.01        70.28418
997.39        70.98518
997.77        70.57993
998.15        69.56426
998.54        68.10539
998.92        66.24479
999.30        64.25611
999.68        62.17924
1000.06        60.69404
1000.45        60.74416
1000.83        62.54849
1001.21        65.96973
1001.59        70.14507
1001.97        72.86277
1002.35        73.20356
1002.73        71.75845
1003.12        69.72093
1003.50        68.62248
1003.88        68.95578
1004.26        70.14351
1004.64        71.92443
1005.02        73.68974
1005.40        74.99654
1005.78        76.16668
1006.16        76.65295
1006.54        75.54366
1006.92        72.97355
1007.30        69.36467
1007.69        66.04027
1008.07          64.739
1008.45        65.95346
1008.83        69.24237
1009.21        73.70283
1009.59        76.92812
1009.97        77.57209
1010.35        76.24619
1010.73        73.42628
1011.11        69.88544
1011.49        66.26261
1011.86         62.6048
1012.24        59.60002
1012.62        58.08751
1013.00        58.15356
1013.38        59.67429
1013.76        62.33146
1014.14        64.99342
1014.52        66.87751
1014.90        68.00609
1015.28        68.39492
1015.66        68.31573
1016.04        67.93446
1016.41        67.12756
1016.79          66.028
1017.17        65.07475
1017.55        64.44707
1017.93        64.12714
1018.31        64.06657
1018.69        64.09761
1019.06        64.14989
1019.44         64.2685
1019.82        64.27629
1020.20        63.82743
1020.58        62.87381
1020.95        61.51933
1021.33        60.26159
1021.71        59.48101
1022.09        59.26177
1022.46        59.72737
1022.84        60.55296
1023.22        60.99242
1023.60        60.76612
1023.97        59.79068
1024.35        59.36126
1024.73         61.0624
