SpectraSmart Spectrum 2.9.0.0
--------- Device Information -----------
Spectrum Name :  反射率_0
Saving Time :  2024/04/26 22:55:42
Spectro-Module Model Name : SE2030-DUVN
Spectro-Module Serial Number : OS361AC55029948
Wavelength Start : 200
Wavelength End : 1025
Wavelength Unit : Wavelength(nm)
Spectrum Unit : Reflectance(%)
-----------Spectrum Setting ------------
Integration Time : 20ms
Average : 10
Boxcar : 0
Background removal :  enabled
linearity correction :  enabled
SC :  disabled
Intensity correction :  disabled
DWT denoise :  enabled
savitzky-golay :  disabled
FFT :  disabled
Running average :  disabled
Kalman :  disabled
High pass :  disabled
---------------BEGIN--------------------
Wavelength(nm)             Reflectance(%)
200.29               0
200.75         28.8314
201.21        28.98882
201.67        28.82759
202.13        27.22023
202.58        23.85948
203.04        19.03569
203.50        13.49958
203.96        10.37469
204.42        11.99217
204.88        17.82373
205.34        26.09349
205.80        32.75014
206.26        35.80728
206.72        36.12266
207.18        34.37352
207.64        30.98632
208.10        25.88918
208.55        17.97152
209.01        7.336041
209.47        1.437484
209.93          4.5335
210.39        11.88242
210.85        18.50611
211.31        22.53119
211.77        24.98151
212.23        27.60557
212.69        31.61934
213.14        36.80615
213.60        32.72766
214.06        25.73716
214.52        23.00107
214.98        24.44407
215.44        28.36624
215.90        33.86671
216.36        39.59066
216.81        43.03333
217.27         43.5949
217.73        42.02932
218.19        37.63256
218.65        31.35837
219.11        26.89657
219.57        24.75976
220.02        24.61554
220.48        26.28431
220.94        29.65555
221.40        35.55071
221.86        44.04065
222.32        50.09489
222.77        48.70926
223.23        43.09931
223.69        36.80791
224.15        31.86948
224.61        28.35413
225.06        25.71282
225.52        24.13336
225.98        23.79327
226.44         24.5138
226.90        26.07598
227.36        28.10976
227.81        29.84011
228.27        30.96602
228.73        31.51339
229.19        31.66717
229.65        31.70843
230.10        31.72882
230.56        31.71259
231.02        31.50975
231.48        30.93538
231.93        30.03556
232.39        29.13134
232.85        28.53739
233.31        28.71069
233.77        29.61988
234.22        31.08654
234.68        32.67169
235.14        33.81444
235.60        34.33114
236.05        34.38131
236.51        34.02891
236.97        33.43681
237.43        32.74838
237.88        31.93703
238.34        31.25901
238.80        31.29773
239.26        32.29155
239.71        34.62663
240.17        37.87735
240.63        40.66437
241.08        42.05985
241.54        41.60623
242.00        40.72049
242.46        42.75415
242.91        50.07812
243.37         64.2633
243.83        85.64153
244.28        103.6227
244.74        103.5522
245.20        86.03796
245.66        65.05047
246.11        53.02822
246.57        50.44311
247.03        53.05082
247.48        57.38346
247.94        57.66914
248.40        53.73625
248.85        48.83884
249.31        44.58894
249.77        40.99623
250.22        37.34063
250.68        32.78519
251.14        27.15345
251.59        22.20385
252.05         20.3192
252.51         21.5769
252.96        24.33208
253.42        26.80571
253.88        28.58869
254.33        29.59564
254.79        31.07053
255.25        34.03437
255.70        38.33659
256.16         43.6584
256.62        47.68882
257.07        47.07047
257.53        43.19323
257.99        38.45255
258.44        34.95511
258.90        34.55487
259.35        36.33995
259.81        39.39091
260.27        42.29844
260.72        43.31828
261.18         42.5282
261.63        40.59703
262.09         38.6567
262.55        37.51479
263.00        37.13103
263.46        37.23716
263.91        37.21128
264.37        36.47379
264.83        35.03855
265.28        33.23244
265.74        31.69131
266.19          30.986
266.65        31.18842
267.11         31.9557
267.56        32.86948
268.02        33.25824
268.47        32.94116
268.93        32.17441
269.38        31.14005
269.84        30.16107
270.30        29.35186
270.75        28.59601
271.21        27.99679
271.66        27.68172
272.12        27.63595
272.57        27.81401
273.03        27.98075
273.48        27.73332
273.94        27.04479
274.39        26.03992
274.85        25.00764
275.31        24.24933
275.76         23.8168
276.22        23.62178
276.67        23.54701
277.13        23.48515
277.58        23.35325
278.04         23.2039
278.49        22.98559
278.95        22.70662
279.40        22.33809
279.86         21.9374
280.31        21.48847
280.77        21.05202
281.22        20.62507
281.68        20.24179
282.13        19.92171
282.59        19.74696
283.04        19.69002
283.50        19.72422
283.95        19.76902
284.41        19.70026
284.86        19.49072
285.32        19.20569
285.77         18.8818
286.22        18.61311
286.68        18.42779
287.13        18.27755
287.59        18.18521
288.04        18.15226
288.50        18.18387
288.95        18.25818
289.41        18.33571
289.86        18.30889
290.32        18.18937
290.77        18.00008
291.22        17.82099
291.68        17.76594
292.13        17.85042
292.59        18.04481
293.04        18.29788
293.50        18.54542
293.95        18.75416
294.40        18.94648
294.86        19.13095
295.31        19.31244
295.77        19.50765
296.22        19.71823
296.68        19.95299
297.13         20.2192
297.58        20.52274
298.04        20.85262
298.49        21.23093
298.95         21.7028
299.40        22.24883
299.85        22.84215
300.31        23.38103
300.76        23.71028
301.21        23.80957
301.67        23.74445
302.12        23.61547
302.58         23.6242
303.03        23.79404
303.48        24.07415
303.94        24.39108
304.39        24.61083
304.84        24.70922
305.30        24.74749
305.75        24.73671
306.20        24.73243
306.66        24.75945
307.11        24.78428
307.57        24.82688
308.02        24.89207
308.47        24.97813
308.93         25.0838
309.38        25.16843
309.83        25.20201
310.29        25.17804
310.74        25.10553
311.19        24.99197
311.65        24.84913
312.10         24.6861
312.55        24.50068
313.00        24.32833
313.46         24.2198
313.91        24.16903
314.36        24.16767
314.82        24.15745
315.27        24.04753
315.72        23.82196
316.18        23.52369
316.63        23.20971
317.08        22.97984
317.53        22.85819
317.99        22.80607
318.44         22.8006
318.89        22.79451
319.35         22.7642
319.80        22.72079
320.25        22.64449
320.70        22.50363
321.16        22.29725
321.61        22.04208
322.06        21.77281
322.51        21.55456
322.97        21.40246
323.42         21.2998
323.87        21.23653
324.32        21.19539
324.78        21.15676
325.23        21.14178
325.68        21.09445
326.13        20.92869
326.59        20.63526
327.04        20.24485
327.49        19.86352
327.94        19.66124
328.39        19.67017
328.85        19.84098
329.30        20.06773
329.75        20.11653
330.20         19.9209
330.66        19.54292
331.11        19.12163
331.56        18.86739
332.01        18.83723
332.46        18.96433
332.92        19.13669
333.37        19.19442
333.82        19.07245
334.27        18.83041
334.72        18.54163
335.17        18.32172
335.63        18.20878
336.08        18.17418
336.53        18.18081
336.98        18.17875
337.43         18.1465
337.88        18.09713
338.34        18.04286
338.79        18.01757
339.24        18.01994
339.69        18.03789
340.14         18.0327
340.59        17.94888
341.05        17.78701
341.50        17.56777
341.95        17.35421
342.40        17.23962
342.85        17.24479
343.30        17.34191
343.75        17.47434
344.20        17.54958
344.66        17.54332
345.11        17.47827
345.56        17.39456
346.01        17.35712
346.46        17.38463
346.91         17.4567
347.36        17.53906
347.81        17.58299
348.26        17.57707
348.72        17.53714
349.17        17.49641
349.62        17.51566
350.07        17.60435
350.52        17.74258
350.97        17.87125
351.42        17.89757
351.87        17.80448
352.32        17.62384
352.77          17.428
353.22        17.32292
353.67        17.33053
354.13        17.42143
354.58        17.52874
355.03        17.54758
355.48        17.45139
355.93        17.27598
356.38        17.08496
356.83        16.97174
357.28        16.95518
357.73         17.0021
358.18         17.0577
358.63        17.03556
359.08        16.91523
359.53        16.72929
359.98         16.5253
360.43        16.37082
360.88        16.28141
361.33         16.2333
361.78        16.19698
362.23        16.12795
362.68         16.0155
363.13        15.87867
363.58        15.73681
364.03        15.61589
364.48        15.52437
364.93        15.45415
365.38        15.39809
365.83         15.3466
366.28        15.29537
366.73        15.24516
367.18        15.19948
367.63        15.16369
368.08        15.13482
368.53        15.10643
368.98          15.064
369.43        14.98607
369.88        14.86925
370.33        14.72257
370.78        14.56273
371.23        14.41796
371.68        14.30158
372.13        14.21191
372.58        14.14606
373.03        14.09591
373.48        14.05616
373.93         14.0253
374.38        14.00238
374.83         13.9868
375.28        13.97159
375.72        13.94449
376.17        13.90094
376.62        13.81794
377.07        13.69615
377.52        13.55001
377.97        13.39432
378.42        13.25506
378.87        13.14508
379.32        13.05718
379.77        13.00271
380.22        12.99631
380.67        13.03127
381.11        13.10322
381.56        13.16362
382.01        13.14231
382.46        13.02794
382.91        12.85061
383.36        12.66003
383.81        12.52493
384.26        12.46067
384.71         12.4464
385.15        12.46547
385.60        12.49425
386.05        12.51699
386.50        12.53914
386.95        12.55121
387.40        12.53835
387.85        12.49975
388.29        12.43174
388.74        12.35947
389.19        12.29202
389.64        12.23299
390.09        12.17831
390.54         12.1296
390.98        12.08546
391.43        12.05383
391.88        12.03536
392.33        12.02204
392.78         12.0013
393.23        11.97103
393.67        11.92676
394.12        11.89216
394.57        11.87922
395.02        11.88766
395.47        11.90682
395.91        11.92111
396.36        11.89641
396.81        11.83494
397.26        11.75341
397.71        11.66525
398.15        11.59563
398.60         11.5665
399.05        11.52264
399.50        11.47915
399.95        11.54317
400.39        11.67583
400.84        11.66496
401.29        11.52175
401.74        11.44779
402.18        11.45419
402.63        11.41911
403.08        11.34689
403.53        11.29803
403.97        11.27572
404.42        11.26662
404.87        11.25432
405.32        11.20979
405.76        11.12771
406.21        11.02538
406.66        10.92961
407.11        10.88261
407.55        10.89615
408.00        10.95261
408.45        11.02403
408.90        11.05437
409.34        11.02673
409.79        10.95917
410.24        10.88238
410.68        10.83709
411.13        10.83533
411.58        10.86134
412.03        10.89295
412.47        10.89381
412.92        10.85141
413.37        10.78578
413.81        10.71471
414.26        10.66997
414.71         10.6543
415.15        10.65749
415.60        10.67052
416.05         10.6854
416.49        10.69743
416.94        10.71049
417.39        10.71369
417.83        10.68913
418.28        10.63458
418.73        10.55143
419.17        10.46899
419.62        10.43598
420.07        10.46033
420.51        10.52476
420.96        10.58946
421.41        10.58929
421.85         10.5119
422.30        10.38312
422.74        10.24014
423.19        10.18456
423.64        10.21273
424.08        10.23909
424.53        10.25153
424.98        10.31207
425.42        10.41779
425.87        10.50351
426.31        10.54378
426.76        10.57783
427.21        10.56965
427.65        10.38296
428.10        10.10822
428.54        9.991231
428.99        10.06262
429.44        10.24758
429.88        10.45424
430.33        10.49832
430.77        10.38797
431.22        10.34851
431.66        10.40404
432.11        10.40992
432.56        10.37992
433.00         10.4411
433.45        10.53032
433.89        10.46039
434.34        10.29846
434.78        10.01081
435.23        10.18732
435.67        10.19932
436.12         10.1949
436.57        10.19228
437.01        10.18788
437.46        10.18101
437.90        10.16435
438.35        10.11253
438.79        10.04569
439.24         10.0269
439.68        10.06323
440.13        10.13124
440.57        10.20874
441.02         10.2694
441.46        10.29879
441.91        10.27769
442.35        10.21587
442.80        10.22619
443.24        10.26883
443.69         10.1689
444.13        9.962593
444.58        9.867149
445.02        9.895227
445.47        9.941548
445.91        9.979769
446.36        10.01475
446.80        10.03366
447.24        10.03542
447.69        10.03095
448.13        10.03267
448.58        10.04642
449.02        10.06534
449.47        10.08357
449.91        10.08897
450.36         10.0817
450.80        10.06485
451.25        10.04992
451.69        10.04828
452.13        10.06323
452.58         10.0899
453.02        10.11682
453.47        10.12757
453.91        10.11803
454.36        10.09393
454.80        10.06337
455.24        10.03759
455.69        10.02321
456.13        10.00943
456.58        10.00077
457.02        9.987787
457.46         9.97302
457.91        9.957052
458.35         9.93288
458.79        9.889858
459.24         9.83786
459.68        9.776198
460.13        9.724852
460.57        9.686574
461.01        9.672103
461.46        9.668908
461.90        9.685184
462.34        9.723742
462.79        9.777803
463.23        9.848727
463.68        9.905684
464.12         9.90582
464.56        9.842381
465.01        9.744375
465.45        9.637014
465.89        9.581746
466.34        9.587686
466.78        9.635898
467.22        9.705696
467.67        9.750191
468.11        9.760655
468.55        9.747883
468.99        9.728415
469.44        9.727137
469.88        9.751152
470.32        9.788722
470.77        9.832592
471.21        9.875708
471.65        9.911671
472.10        9.945001
472.54        9.968261
472.98        9.973591
473.42        9.962147
473.87        9.941596
474.31        9.915895
474.75        9.902165
475.20         9.90655
475.64        9.918906
476.08        9.941068
476.52        9.969583
476.97        10.00132
477.41        10.04241
477.85        10.08325
478.29        10.09275
478.74        10.07759
479.18        10.07038
479.62        10.07962
480.06         10.1047
480.50        10.14811
480.95        10.19666
481.39        10.23561
481.83        10.34509
482.27        10.37203
482.72        10.44456
483.16         10.5087
483.60        10.55021
484.04        10.55281
484.48        10.54939
484.93        10.63633
485.37        10.65888
485.81        10.78834
486.25        11.19985
486.69        10.56976
487.14        10.32772
487.58        11.33303
488.02        11.26593
488.46        11.15833
488.90         11.2193
489.34         11.1098
489.79        11.27759
490.23        11.46013
490.67        11.64696
491.11        11.77207
491.55        11.77681
491.99        11.70983
492.43        11.73244
492.88        11.86142
493.32        11.98511
493.76        12.08052
494.20        12.17699
494.64        12.27208
495.08        12.33234
495.52        12.36327
495.96        12.45773
496.41         12.5934
496.85        12.57833
497.29        12.45405
497.73        12.57471
498.17        12.76075
498.61        12.92584
499.05        12.98851
499.49        13.05926
499.93         13.1092
500.37        13.20811
500.82        13.34297
501.26        13.45696
501.70        13.54479
502.14        13.65023
502.58        13.76884
503.02        13.86603
503.46         13.9382
503.90        13.99653
504.34        14.04365
504.78          14.083
505.22        14.11821
505.66        14.14888
506.10         14.1801
506.54        14.22084
506.98        14.27232
507.42        14.33133
507.86        14.39417
508.30        14.45325
508.74        14.50572
509.18        14.55488
509.62        14.59633
510.06        14.62395
510.50        14.63897
510.94        14.64286
511.38        14.65168
511.82        14.69092
512.26        14.76445
512.70        14.86481
513.14        14.96861
513.58        15.03746
514.02        15.06192
514.46        15.05198
514.90        15.02987
515.34        15.03279
515.78        15.06923
516.22        15.12605
516.66         15.1841
517.10        15.21273
517.54        15.20507
517.98        15.17488
518.42        15.13441
518.86        15.10211
519.30        15.08487
519.74        15.07486
520.18        15.07471
520.62        15.08896
521.06        15.11517
521.50        15.15301
521.93        15.18646
522.37        15.18218
522.81        15.13763
523.25        15.06208
523.69         14.9801
524.13        14.93096
524.57        14.92191
525.01        14.93837
525.45        14.96067
525.89         14.9565
526.32        14.91528
526.76        14.85367
527.20        14.77751
527.64        14.69636
528.08        14.61764
528.52        14.53927
528.96        14.47357
529.40        14.44035
529.83        14.44017
530.27        14.46593
530.71        14.49713
531.15        14.50115
531.59        14.46902
532.03        14.40915
532.46        14.33117
532.90         14.2619
533.34         14.2079
533.78        14.15666
534.22        14.10758
534.66        14.07674
535.09        14.05353
535.53        14.00686
535.97        13.94582
536.41        13.91992
536.85        13.93201
537.28        13.95413
537.72        13.98011
538.16        14.01048
538.60        14.04151
539.04          14.074
539.47        14.10235
539.91        14.12737
540.35        14.14827
540.79        14.16708
541.22        14.19428
541.66        14.25146
542.10        14.33993
542.54        14.45411
542.97        14.57706
543.41        14.68757
543.85        14.77842
544.29        14.85703
544.72        14.93314
545.16        15.03364
545.60        15.16091
546.04        15.30853
546.47        15.46744
546.91        15.61938
547.35        15.75582
547.79        15.88173
548.22        15.99889
548.66         16.1073
549.10        16.22738
549.53        16.34952
549.97        16.47379
550.41        16.56229
550.84        16.63175
551.28        16.73254
551.72        16.84994
552.15        16.97284
552.59        17.12084
553.03        17.04604
553.46         17.2709
553.90        17.36442
554.34        17.47815
554.77        17.60622
555.21        17.74631
555.65        17.87867
556.08         17.9903
556.52        18.07705
556.96        18.13856
557.39        18.22528
557.83        18.32611
558.27        18.33244
558.70        18.26945
559.14        18.28822
559.57        18.38443
560.01        18.46389
560.45        18.51198
560.88        18.56313
561.32        18.62405
561.75        18.66683
562.19        18.70368
562.63        18.75013
563.06          18.806
563.50        18.86889
563.93        18.92151
564.37        18.98527
564.80        19.06653
565.24        19.11626
565.68        19.09656
566.11        19.36336
566.55        19.22331
566.98        19.25585
567.42        19.29738
567.85        19.39434
568.29        19.55399
568.72        19.77183
569.16        20.03791
569.60        20.20174
570.03        20.32586
570.47        20.45415
570.90        20.62274
571.34        20.52787
571.77        20.76067
572.21        20.82186
572.64        20.88741
573.08        21.03527
573.51        21.26388
573.95         21.4011
574.38        21.44625
574.82        21.57534
575.25        21.29228
575.69        21.38668
576.12        21.65086
576.56        21.74658
576.99        21.79355
577.42        21.67113
577.86        21.39163
578.29        21.90164
578.73        21.59772
579.16        21.63084
579.60        21.49126
580.03        21.56314
580.47        21.57057
580.90        21.48776
581.33        21.38864
581.77        21.57354
582.20        20.99478
582.64        20.87609
583.07        20.94498
583.51        20.97854
583.94        21.00092
584.37         20.9227
584.81         20.7508
585.24        20.55116
585.68        20.42648
586.11        20.22321
586.54        20.29773
586.98        20.24689
587.41        20.18928
587.85        20.04086
588.28         19.8368
588.71        19.98879
589.15        19.83156
589.58        19.84216
590.01        19.99133
590.45        19.91958
590.88        19.92585
591.31         19.8679
591.75        19.87961
592.18        19.91866
592.61        19.92838
593.05        20.19304
593.48        20.25258
593.91        19.91674
594.35        19.99436
594.78         19.9881
595.21         20.1658
595.65        20.38144
596.08        20.64731
596.51        20.82717
596.94        20.86118
597.38        21.01077
597.81        21.25851
598.24        21.58455
598.68        21.71162
599.11        21.89062
599.54         22.4081
599.97        22.06721
600.41        22.65115
600.84        22.67977
601.27        22.99126
601.70        23.26331
602.14        23.59063
602.57        23.95664
603.00        24.37394
603.43        24.51757
603.87        25.15065
604.30        25.51057
604.73        25.84086
605.16        26.09808
605.60        26.31211
606.03        26.47575
606.46        26.77863
606.89        27.01326
607.32        27.72768
607.76        28.08013
608.19        28.46421
608.62        28.78652
609.05         29.1761
609.48        29.52346
609.92        30.18347
610.35        30.34919
610.78        30.17181
611.21        30.49467
611.64        30.76965
612.07        31.22439
612.50        31.47368
612.94        31.75588
613.37        31.99533
613.80        32.16393
614.23        32.08019
614.66        32.34497
615.09        32.86697
615.52         33.2695
615.96        33.49602
616.39        33.80155
616.82        34.19954
617.25        34.26593
617.68        34.49406
618.11        34.70964
618.54        35.04633
618.97        35.29562
619.40        35.44686
619.84        35.75769
620.27         35.8857
620.70        36.09372
621.13        36.26558
621.56        36.24322
621.99        36.25238
622.42        36.23114
622.85         36.2552
623.28        36.30037
623.71        36.39101
624.14        36.36746
624.57        36.62174
625.00        36.68695
625.43        36.65299
625.86        36.66731
626.29        36.76572
626.72        36.35863
627.15        36.50842
627.58        36.31938
628.01         36.0834
628.44        36.00042
628.87        35.70403
629.30        35.46004
629.73        35.15933
630.16        35.03192
630.59         34.7621
631.02        34.60714
631.45        34.45507
631.88        34.20217
632.31        33.81791
632.74         33.5964
633.17        33.08167
633.60        32.69622
634.03        32.31139
634.46        31.92868
634.89        31.53601
635.32        31.12975
635.75        30.71605
636.18        30.26795
636.61        29.81099
637.04        29.39749
637.47        29.03328
637.89        28.69843
638.32        28.37182
638.75        28.05001
639.18        27.73193
639.61        27.42403
640.04        27.13173
640.47        26.85881
640.90        26.60493
641.33        26.36834
641.76        26.14887
642.18        25.95184
642.61        25.77344
643.04        25.61864
643.47        25.49152
643.90         25.3966
644.33         25.3344
644.76        25.30479
645.18        25.30231
645.61        25.31266
646.04        25.33492
646.47        25.37172
646.90        25.43765
647.33        25.54968
647.75        25.70597
648.18         25.9352
648.61        26.22489
649.04        26.46856
649.47        26.64036
649.89        27.12105
650.32        27.23056
650.75        27.67956
651.18        28.20761
651.61        28.63819
652.03        28.98651
652.46        29.33303
652.89        29.71116
653.32        30.20336
653.74        30.80724
654.17        30.89526
654.60        31.52813
655.03        31.60791
655.46        32.03542
655.88        32.48365
656.31        33.22181
656.74        33.11974
657.16        34.17942
657.59         35.8928
658.02        35.02852
658.45         35.4346
658.87        35.50385
659.30        36.06572
659.73        36.54092
660.15        36.94911
660.58        37.07399
661.01        37.28711
661.44        37.62911
661.86        37.74923
662.29        37.69353
662.72        38.22412
663.14        38.55905
663.57        38.78581
664.00         38.7585
664.42        38.99619
664.85        39.52753
665.27        40.09417
665.70         40.5654
666.13        40.87315
666.55        40.98705
666.98        40.89398
667.41        40.69471
667.83         40.8133
668.26        40.87308
668.69        41.17289
669.11        41.53056
669.54        41.84618
669.96        42.08381
670.39        42.28882
670.82        42.47729
671.24        42.61014
671.67        42.71258
672.09        42.86271
672.52        43.05293
672.94        43.17413
673.37        43.22964
673.80        43.27529
674.22        43.35514
674.65        43.48632
675.07        43.68665
675.50        43.94197
675.92        44.19594
676.35        44.35044
676.77        44.38935
677.20        44.33901
677.62        44.27846
678.05        44.33276
678.47        44.52687
678.90        44.82696
679.32        45.14919
679.75        45.35514
680.17        45.40576
680.60        45.38224
681.02         45.3583
681.45        45.33932
681.87        45.39908
682.30        45.75232
682.72        46.28778
683.15          46.474
683.57        46.33078
684.00        46.33849
684.42        46.52803
684.85        46.62116
685.27        46.62455
685.70        46.70914
686.12        46.85859
686.54        46.98196
686.97        47.06845
687.39        47.14809
687.82        47.22446
688.24        47.31348
688.66        47.41678
689.09        47.52555
689.51        47.63723
689.94        47.72858
690.36        47.80334
690.78        47.85626
691.21        47.92253
691.63        48.05134
692.06        48.25109
692.48        48.51432
692.90        48.77417
693.33        48.92137
693.75        48.93609
694.17        48.83926
694.60        48.72949
695.02        48.76178
695.44        48.94905
695.87         49.2621
696.29        49.59902
696.71        49.61859
697.14        49.38624
697.56        49.37061
697.98        49.59995
698.41         49.7467
698.83         49.8068
699.25        50.02106
699.68        50.31228
700.10        50.47858
700.52        50.47726
700.94        50.37705
701.37        50.27447
701.79        50.33162
702.21        50.57623
702.64         50.9411
703.06        51.33329
703.48        51.58819
703.90        51.66145
704.33        51.61026
704.75        51.49596
705.17        51.40979
705.59        51.38914
706.01        51.40416
706.44        51.46633
706.86        51.59132
707.28        51.75894
707.70        52.01773
708.12        52.31139
708.55        52.41786
708.97        52.37577
709.39        52.47657
709.81        52.70808
710.23        52.81198
710.66        52.77615
711.08        52.76762
711.50        52.79165
711.92         52.7971
712.34        52.79491
712.76        52.81482
713.19         52.8489
713.61        52.91008
714.03        52.99027
714.45        53.08745
714.87        53.22741
715.29        53.45555
715.71        53.76736
716.13        54.13013
716.56        54.46749
716.98        54.72461
717.40        54.84281
717.82        54.84509
718.24         54.7501
718.66        54.59264
719.08        54.41026
719.50        54.21907
719.92        54.06805
720.34        54.02578
720.76        54.10429
721.19        54.26839
721.61        54.51279
722.03        54.78102
722.45        55.03417
722.87        55.26696
723.29        55.42431
723.71        55.42494
724.13        55.26671
724.55        54.98679
724.97        54.66938
725.39        54.46094
725.81        54.40958
726.23        54.46293
726.65        54.59481
727.07        54.87725
727.49        55.08647
727.91        55.38978
728.33           55.69
728.75        55.92723
729.17        56.07807
729.59        56.13985
730.01        56.14805
730.43        56.17666
730.85         56.2428
731.27        56.30661
731.69        56.33857
732.10        56.33381
732.52        56.26652
732.94        56.07938
733.36        55.84787
733.78        55.67886
734.20        55.59868
734.62        55.72611
735.04         56.0934
735.46        55.79802
735.88        56.44846
736.30         56.5523
736.72        56.87355
737.13        57.09187
737.55        57.24137
737.97        57.43477
738.39        57.58949
738.81        57.36865
739.23        56.88946
739.65        56.79466
740.06        57.07331
740.48        57.24225
740.90        57.27021
741.32        57.47109
741.74        57.81162
742.16        58.04671
742.57        58.13799
742.99         58.1521
743.41        58.10448
743.83        57.97243
744.25        57.79581
744.67        57.64369
745.08        57.57436
745.50         57.5941
745.92         57.7149
746.34        57.94835
746.75        58.21537
747.17         58.3493
747.59        58.32667
748.01         58.2037
748.42        58.02824
748.84        57.92086
749.26        57.92212
749.68        57.87123
750.09        57.80639
750.51        58.07457
750.93        58.52904
751.35        58.53621
751.76        58.13105
752.18        57.91488
752.60        57.91526
753.01        57.79915
753.43         57.5765
753.85        57.46495
754.27         57.4904
754.68        57.60239
755.10        57.77637
755.52        57.96605
755.93        58.13501
756.35        58.28597
756.77        58.45083
757.18         58.5367
757.60        58.54956
758.02        58.74397
758.43        59.06865
758.85        58.37203
759.26        58.75718
759.68        57.90726
760.10        58.31396
760.51        58.53915
760.93        59.05065
761.34        58.77861
761.76        58.95361
762.18        58.84761
762.59        58.93611
763.01        59.17138
763.42        59.54745
763.84        59.96117
764.26        60.23982
764.67        59.94132
765.09         59.2851
765.50        58.99954
765.92        59.13279
766.33        59.13249
766.75        58.92183
767.16        58.89442
767.58        58.88828
768.00        58.97441
768.41        59.14935
768.83        59.33532
769.24        59.68404
769.66        59.78226
770.07         59.7047
770.49        59.38425
770.90        59.04711
771.32        59.45814
771.73         60.4226
772.15        60.81506
772.56        60.55959
772.97        60.18691
773.39        59.88042
773.80        59.92328
774.22        60.10714
774.63        60.33936
775.05        60.43818
775.46        60.50895
775.88        60.50563
776.29         60.3926
776.70        60.23792
777.12        60.19487
777.53        60.30424
777.95        60.49619
778.36        60.71703
778.77        60.82928
779.19        60.81399
779.60         60.7429
780.02        60.62741
780.43        60.53635
780.84        60.52859
781.26        60.35669
781.67        60.12632
782.09        60.57402
782.50        61.50766
782.91        61.30991
783.33        60.84897
783.74        60.63772
784.15        60.83418
784.57        60.89967
784.98        60.82266
785.39          60.833
785.81        60.96326
786.22        61.35634
786.63        61.86208
787.04        62.01955
787.46         61.8431
787.87        61.62845
788.28        61.47071
788.70        61.58513
789.11        61.39218
789.52         61.6078
789.93        61.93401
790.35        61.82435
790.76        61.36553
791.17        61.27353
791.58        61.58167
792.00         61.6414
792.41        61.43721
792.82        61.59645
793.23        61.98842
793.65        61.59025
794.06        60.69505
794.47        60.82274
794.88        61.78477
795.29        62.24683
795.71        61.85239
796.12         61.7299
796.53        61.87799
796.94        61.86154
797.35        61.76054
797.76        62.04523
798.18        62.58624
798.59        62.84285
799.00        62.74129
799.41        62.53704
799.82        62.33405
800.23        62.24761
800.64         62.3288
801.06        62.33625
801.47        62.55527
801.88        62.59565
802.29        62.51117
802.70        62.32977
803.11        62.10235
803.52        61.90474
803.93        61.78767
804.34        61.74921
804.75        61.77084
805.17        61.91736
805.58        62.23038
805.99        62.33917
806.40        62.31036
806.81        63.06281
807.22        64.20434
807.63        63.86714
808.04        62.32608
808.45        61.63291
808.86        61.98211
809.27        62.35041
809.68        62.52737
810.09        62.60062
810.50            62.5
810.91         62.2309
811.32        61.99088
811.73        62.06546
812.14        62.50857
812.55         63.2444
812.96        63.99924
813.37        64.25697
813.78         63.8894
814.19        63.09734
814.60        62.19951
815.01         61.6263
815.42        61.47984
815.83        61.63454
816.24        61.97447
816.65        62.27452
817.05        62.43295
817.46        62.49019
817.87        62.48902
818.28        62.44521
818.69        62.38646
819.10        62.29013
819.51        62.18755
819.92        62.21176
820.33        62.39495
820.74        62.54101
821.14        62.64713
821.55        63.08783
821.96        63.66128
822.37        63.48243
822.78        62.68552
823.19        62.33219
823.60         62.5317
824.00        62.71949
824.41        62.77034
824.82        62.84211
825.23        62.90071
825.64        62.91755
826.04        62.90612
826.45        62.84665
826.86         62.7575
827.27        62.65512
827.68        62.56113
828.08        62.53217
828.49        62.53687
828.90        62.58053
829.31        62.67495
829.72        62.83632
830.12        63.07515
830.53        63.32776
830.94        63.52496
831.35        63.50945
831.75        63.27159
832.16        62.85204
832.57        62.39378
832.97        62.10349
833.38        62.04191
833.79          62.133
834.20        62.34573
834.60        62.62166
835.01        62.92662
835.42        63.31838
835.82        63.69833
836.23        63.82391
836.64        63.67818
837.04        63.28093
837.45        62.90398
837.86        63.05561
838.26        63.84525
838.67        65.09256
839.08        66.33565
839.48        66.70755
839.89        65.99717
840.29        64.52606
840.70        62.96326
841.11        62.09324
841.51        62.11419
841.92        62.77946
842.33        63.78314
842.73        64.57411
843.14        64.84146
843.54        64.78302
843.95        64.57883
844.35        64.56722
844.76         64.8119
845.17        65.18206
845.57        65.48578
845.98        65.40578
846.38        64.91178
846.79        64.14112
847.19        63.34806
847.60        62.90074
848.00        62.90822
848.41        63.22838
848.81        63.72654
849.22        64.09815
849.62        64.26809
850.03        64.29999
850.43        64.22984
850.84         64.0567
851.24         63.8434
851.65        63.51457
852.05        63.22377
852.46        63.15751
852.86        63.35581
853.27        63.76731
853.67        64.16194
854.07        64.30833
854.48        64.14141
854.88         63.7562
855.29        63.25039
855.69        62.92699
856.10        62.82672
856.50        62.93534
856.90        63.13644
857.31          63.255
857.71        63.28043
858.12        63.20087
858.52        63.11378
858.92        63.07281
859.33        63.08215
859.73        63.16193
860.13        63.20927
860.54        63.08175
860.94        62.80213
861.34        62.41151
861.75        62.05945
862.15        62.02655
862.55        62.34285
862.96        62.87428
863.36        63.48362
863.76        63.85817
864.17        63.88214
864.57        63.68252
864.97        63.26891
865.38        62.66844
865.78        61.96627
866.18        61.15884
866.58        60.45727
866.99        60.23127
867.39        60.58021
867.79        61.39554
868.19        62.38904
868.60        63.09249
869.00        63.40231
869.40        63.38286
869.80         63.1919
870.21        63.14765
870.61        63.39515
871.01        63.77402
871.41        64.05365
871.81        63.91995
872.22        63.32516
872.62        62.37975
873.02        61.38639
873.42         60.8472
873.82        60.90143
874.22        61.40771
874.63        62.02256
875.03        62.20996
875.43        61.83563
875.83        61.08557
876.23        60.27774
876.63        59.90237
877.03         60.0781
877.44        60.60361
877.84        61.26895
878.24        61.74716
878.64        61.86927
879.04        61.60496
879.44        61.15857
879.84        60.95282
880.24        61.05614
880.64        61.29444
881.04        61.49935
881.44        61.44572
881.84        61.08515
882.24        60.51677
882.65        59.94889
883.05        59.68337
883.45        59.79753
883.85        60.21025
884.25        60.73769
884.65        61.06572
885.05        61.10298
885.45        60.93692
885.85        60.73346
886.25        60.75187
886.65        61.04221
887.05         61.5018
887.45        61.97095
887.85        62.19218
888.25         62.0951
888.65        61.77784
889.04        61.35855
889.44        61.04219
889.84        60.88225
890.24        60.81957
890.64        60.82618
891.04        60.85999
891.44        60.89477
891.84        60.95296
892.24        61.00906
892.64        61.00743
893.04        60.95623
893.44          60.893
893.83         60.8692
894.23        60.92599
894.63         61.0928
895.03        61.31247
895.43        61.61897
895.83         62.0751
896.23        62.63547
896.63        63.24049
897.02         63.6595
897.42         63.5588
897.82        62.90412
898.22        61.86774
898.62        60.72112
899.01        59.85776
899.41        59.41773
899.81        59.29417
900.21        59.44123
900.61        59.76933
901.00        60.20048
901.40        60.73273
901.80        61.24952
902.20        61.55716
902.59        61.61868
902.99        61.46603
903.39        61.17317
903.79        60.88696
904.18        60.66462
904.58        60.47834
904.98        60.39955
905.38        60.53721
905.77        60.89032
906.17        61.44994
906.57        62.01262
906.96        62.22823
907.36        62.01223
907.76         61.4793
908.15        60.92105
908.55        60.79039
908.95        61.19324
909.34        61.98083
909.74        62.84965
910.14        63.38353
910.53        63.42036
910.93         63.1124
911.33        62.55979
911.72        61.90391
912.12        61.29423
912.52         60.7122
912.91        60.22811
913.31        59.96327
913.70         59.9419
914.10        60.11971
914.49         60.5112
914.89        61.03885
915.29        61.65695
915.68        62.35421
916.08        62.92846
916.47        63.12507
916.87        62.90785
917.26        62.32138
917.66        61.65913
918.05        61.24846
918.45        61.17723
918.84        61.41196
919.24        61.72779
919.64        61.84889
920.03        61.71162
920.42        61.37716
920.82        61.08426
921.21        61.14439
921.61        61.59655
922.00        62.35737
922.40        63.12748
922.79        63.51788
923.19        63.38707
923.58        62.90044
923.98         62.2976
924.37        61.87143
924.77        61.72816
925.16        61.74228
925.55        61.88364
925.95        62.08239
926.34        62.29576
926.74        62.52162
927.13        62.65264
927.52        62.44526
927.92        61.92495
928.31        61.17111
928.70        60.39241
929.10        59.88564
929.49        59.71309
929.89        59.73872
930.28        59.99284
930.67        60.41061
931.07        60.90072
931.46        61.55067
931.85        62.05656
932.24        61.97073
932.64        61.28144
933.03        60.09446
933.42        58.95446
933.82        58.66366
934.21        59.37443
934.60        60.90882
934.99        62.69538
935.39        63.68573
935.78        63.60707
936.17        62.66768
936.56        61.45347
936.96        60.89721
937.35        61.22297
937.74        62.12868
938.13        63.07669
938.53        63.24756
938.92        62.47176
939.31        61.09005
939.70        59.59484
940.09        58.65994
940.49        58.42633
940.88        58.71332
941.27        59.27238
941.66        59.65108
942.05        59.70345
942.44        59.61463
942.84        59.52249
943.23        59.61668
943.62        59.94981
944.01        60.36261
944.40        60.85443
944.79        61.47377
945.18        62.15424
945.57        62.86016
945.97        63.26834
946.36        62.93888
946.75        61.80435
947.14        60.12742
947.53        58.36467
947.92        57.14302
948.31        56.63354
948.70        56.69056
949.09        57.17836
949.48        57.83369
949.87        58.51292
950.26        59.24866
950.65        59.97059
951.04        60.57268
951.43        60.99421
951.82        61.18342
952.21        61.12282
952.60        60.83927
952.99        60.39667
953.38        59.87087
953.77        59.35513
954.16        58.97358
954.55        58.76585
954.94        58.68267
955.33        58.78732
955.72        59.16576
956.11        59.77587
956.50        60.57239
956.89        61.21566
957.28        61.14828
957.66         60.2823
958.05        58.86871
958.44        57.37833
958.83        56.48702
959.22        56.34234
959.61        56.75557
960.00        57.48402
960.39        58.05534
960.78        58.26767
961.16        58.24097
961.55        58.08826
961.94        57.92029
962.33        57.79881
962.72        57.68434
963.11        57.56932
963.49        57.50943
963.88        57.46208
964.27        57.42601
964.66        57.50433
965.04          57.864
965.43        58.46499
965.82        59.31352
966.21        60.06134
966.60        60.05242
966.98        59.14219
967.37        57.62827
967.76        56.12193
968.15        55.39895
968.53        55.59609
968.92        56.52567
969.31        57.75048
969.69        58.37899
970.08        58.06266
970.47        57.12677
970.86        56.13551
971.24        55.88882
971.63         56.5494
972.02        57.84876
972.40         59.3962
972.79        60.18787
973.17        59.94622
973.56         59.0377
973.95        57.86253
974.33        56.90212
974.72        56.30719
975.11        55.88298
975.49        55.70489
975.88        55.89573
976.26        56.47011
976.65        57.35445
977.04        58.23391
977.42        58.55719
977.81        58.19789
978.19        57.32052
978.58        56.34359
978.96        55.92989
979.35        56.23131
979.74        57.02647
980.12        58.14769
980.51        59.05217
980.89        59.63147
981.28        60.03215
981.66        60.19601
982.05        59.99706
982.43        59.48819
982.82        58.61655
983.20        57.89342
983.59        58.21756
983.97        59.84504
984.35        62.50076
984.74        65.17503
985.12        66.35895
985.51        65.59852
985.89        63.41366
986.28        60.79264
986.66        59.14329
987.04        58.91338
987.43        59.68026
987.81        61.00956
988.20        61.95635
988.58        62.15214
988.96        61.82521
989.35        61.24152
989.73        60.75291
990.12        60.45766
990.50         60.2728
990.88        59.95369
991.27        59.18008
991.65        57.97083
992.03        56.51626
992.42         55.3867
992.80        55.31113
993.18        56.41367
993.56          58.532
993.95        60.90367
994.33        62.20171
994.71        61.87091
995.10        60.35416
995.48        58.50936
995.86        57.71899
996.24        58.29199
996.63        59.71374
997.01         61.5142
997.39        62.40497
997.77        61.90107
998.15         60.5977
998.54        58.84562
998.92        56.98692
999.30         55.3306
999.68        53.77027
1000.06        52.83546
1000.45        53.28516
1000.83        55.28417
1001.21        58.76561
1001.59        62.88937
1001.97        65.48316
1002.35        65.68566
1002.73        64.09901
1003.12        61.96653
1003.50        60.91359
1003.88        61.42324
1004.26        62.85714
1004.64        64.95206
1005.02        67.05392
1005.40        68.65623
1005.78        70.11957
1006.16        70.64302
1006.54        68.94456
1006.92        65.18033
1007.30          59.916
1007.69        55.04424
1008.07        53.12172
1008.45        54.82872
1008.83        59.67295
1009.21        66.17781
1009.59        70.50127
1009.97        70.74951
1010.35        67.95724
1010.73        63.65124
1011.11        60.11744
1011.49        58.12732
1011.86        57.01869
1012.24        56.63806
1012.62        56.84579
1013.00        57.51283
1013.38        58.80098
1013.76        60.59514
1014.14         62.2687
1014.52        63.35145
1014.90        63.75959
1015.28         63.3983
1015.66        62.30751
1016.04         60.6202
1016.41        58.40224
1016.79        56.07681
1017.17        54.53498
1017.55         54.0859
1017.93        54.50672
1018.31        55.45664
1018.69        56.40496
1019.06        57.18524
1019.44        57.96756
1019.82        58.55731
1020.20        58.54976
1020.58        57.83095
1020.95        56.41246
1021.33        54.98769
1021.71        54.25736
1022.09        54.34406
1022.46        55.34614
1022.84         56.6419
1023.22        56.73526
1023.60        55.19942
1023.97        52.38458
1024.35        50.18277
1024.73        50.75341
