SpectraSmart Spectrum 2.9.0.0
--------- Device Information -----------
Spectrum Name :  反射率_0
Saving Time :  2024/04/26 22:54:09
Spectro-Module Model Name : SE2030-DUVN
Spectro-Module Serial Number : OS361AC55029948
Wavelength Start : 200
Wavelength End : 1025
Wavelength Unit : Wavelength(nm)
Spectrum Unit : Reflectance(%)
-----------Spectrum Setting ------------
Integration Time : 20ms
Average : 10
Boxcar : 0
Background removal :  enabled
linearity correction :  enabled
SC :  disabled
Intensity correction :  disabled
DWT denoise :  enabled
savitzky-golay :  disabled
FFT :  disabled
Running average :  disabled
Kalman :  disabled
High pass :  disabled
---------------BEGIN--------------------
Wavelength(nm)             Reflectance(%)
200.29               0
200.75        62.84196
201.21        55.58582
201.67        49.03901
202.13        46.27196
202.58        47.42672
203.04        52.12007
203.50        60.21083
203.96         69.1686
204.42        76.43108
204.88         82.0396
205.34        84.98841
205.80        84.99194
206.26        82.60593
206.72          77.691
207.18        72.89214
207.64        70.49333
208.10        70.54282
208.55        73.90704
209.01        78.49433
209.47         77.4484
209.93        69.97149
210.39        61.51228
210.85        56.78809
211.31        58.29685
211.77        67.25271
212.23        90.26412
212.69        148.8692
213.14        244.7992
213.60        236.4273
214.06        165.9252
214.52         119.949
214.98        100.9434
215.44        94.91718
215.90        93.27955
216.36        95.06038
216.81        100.2502
217.27        109.3357
217.73        126.7231
218.19        149.8979
218.65        157.7763
219.11        143.8418
219.57        122.0723
220.02        107.8489
220.48         109.868
220.94        127.1993
221.40         161.864
221.86        213.2858
222.32        249.0056
222.77         239.453
223.23        205.7596
223.69        171.5071
224.15        150.1996
224.61        140.1056
225.06        134.9324
225.52        133.7162
225.98        135.0705
226.44        138.2353
226.90        143.6277
227.36        149.7332
227.81        153.3548
228.27        154.0076
228.73        152.2863
229.19        150.2693
229.65        150.6406
230.10        153.4926
230.56        158.0703
231.02        162.4063
231.48        163.4832
231.93        160.8637
232.39        156.5905
232.85        152.4282
233.31        150.7439
233.77        151.7421
234.22        154.3542
234.68         157.717
235.14         160.556
235.60        162.2927
236.05        163.5185
236.51        163.3606
236.97        160.7352
237.43        155.5626
237.88        148.2714
238.34        140.5248
238.80        135.4382
239.26        134.0211
239.71        136.9317
240.17        142.8923
240.63        148.6891
241.08        152.2898
241.54        152.8876
242.00        153.0336
242.46        158.5182
242.91        173.8987
243.37        200.7838
243.83        239.4856
244.28        271.3849
244.74        268.4928
245.20         232.113
245.66        188.0598
246.11        157.7819
246.57        141.7632
247.03         133.591
247.48        128.5118
247.94        121.0869
248.40        112.3433
248.85        105.1652
249.31        100.6347
249.77        97.87309
250.22        96.03134
250.68         94.3231
251.14         92.8149
251.59        92.40424
252.05        93.96281
252.51        97.65876
252.96        101.3374
253.42        103.8031
253.88        105.0114
254.33        104.6999
254.79        106.0099
255.25        111.3822
255.70        120.2825
256.16        131.9028
256.62        141.2569
257.07        140.8947
257.53         133.605
257.99        124.3248
258.44        117.1199
258.90        115.8895
259.35        118.7466
259.81        124.2114
260.27        129.7093
260.72        132.0891
261.18         131.635
261.63        129.1777
262.09        126.8635
262.55        125.9056
263.00        126.0856
263.46        127.1024
263.91        127.6426
264.37        126.8582
264.83        124.6535
265.28        121.5555
265.74        118.7825
266.19        117.1448
266.65        116.9042
267.11         117.509
267.56         118.351
268.02        118.5279
268.47        117.7592
268.93        116.4307
269.38        114.8073
269.84        113.4333
270.30        112.4138
270.75        111.5044
271.21        110.7086
271.66        109.9146
272.12        109.0819
272.57        108.1895
273.03        107.1212
273.48        105.6059
273.94        103.7677
274.39        101.6567
274.85        99.62965
275.31        97.85107
275.76        96.32266
276.22        95.10117
276.67        94.04057
277.13        93.21854
277.58        92.43858
278.04        91.71171
278.49         90.8429
278.95        89.82575
279.40         88.5363
279.86         87.2011
280.31         85.6356
280.77        83.87565
281.22         81.8878
281.68        79.88474
282.13        78.09161
282.59        77.06181
283.04        76.71494
283.50        76.92246
283.95        77.20863
284.41        76.89288
284.86        75.80704
285.32        74.24916
285.77        72.56399
286.22        71.38787
286.68        70.82806
287.13         70.5938
287.59        70.44414
288.04        69.90781
288.50        68.95242
288.95        67.70861
289.41        66.40739
289.86        65.21259
290.32        64.26044
290.77        63.42175
291.22        62.71519
291.68        62.14126
292.13        61.64575
292.59        61.26925
293.04         60.9367
293.50        60.57037
293.95        60.13884
294.40        59.66476
294.86        59.22713
295.31        58.93358
295.77         58.8217
296.22        58.83955
296.68        58.91798
297.13        58.90809
297.58        58.79058
298.04        58.61235
298.49        58.44298
298.95        58.42666
299.40        58.57267
299.85        58.82866
300.31        59.11842
300.76        59.29626
301.21        59.33409
301.67         59.2923
302.12        59.18134
302.58        59.11291
303.03        59.07081
303.48        59.05415
303.94        59.06135
304.39        59.02517
304.84        58.95726
305.30        58.89043
305.75        58.80821
306.20        58.76385
306.66        58.78174
307.11        58.82356
307.57        58.87954
308.02        58.85386
308.47        58.75251
308.93         58.6058
309.38        58.45535
309.83        58.44048
310.29        58.57785
310.74        58.81566
311.19        59.03552
311.65        59.03928
312.10        58.78099
312.55        58.32579
313.00        57.83128
313.46         57.5328
313.91        57.45796
314.36        57.54626
314.82        57.65433
315.27        57.56538
315.72        57.22553
316.18        56.73623
316.63         56.2051
317.08        55.81953
317.53        55.62658
317.99        55.54867
318.44        55.53833
318.89        55.50686
319.35        55.40996
319.80         55.2706
320.25        55.06924
320.70        54.77238
321.16        54.38405
321.61        53.94126
322.06        53.47839
322.51        53.06473
322.97         52.7243
323.42        52.44658
323.87        52.26845
324.32        52.25281
324.78         52.3687
325.23        52.62007
325.68        52.83555
326.13        52.73904
326.59        52.27692
327.04        51.55655
327.49        50.77592
327.94        50.26025
328.39        50.09391
328.85        50.16711
329.30        50.41959
329.75        50.62265
330.20        50.68895
330.66         50.6721
331.11        50.61509
331.56        50.54742
332.01        50.48646
332.46        50.38955
332.92        50.24633
333.37        50.14073
333.82        50.05984
334.27        50.01105
334.72        49.95839
335.17        49.82709
335.63        49.60491
336.08         49.3512
336.53        49.12847
336.98        49.05447
337.43        49.15704
337.88        49.38799
338.34        49.68338
338.79        49.98805
339.24        50.23596
339.69        50.43409
340.14        50.53934
340.59         50.4928
341.05         50.3101
341.50        50.01146
341.95        49.68575
342.40        49.46939
342.85        49.40422
343.30        49.46233
343.75         49.6038
344.20        49.75603
344.66         49.8885
345.11        50.00768
345.56         50.1077
346.01        50.18251
346.46        50.23263
346.91        50.25809
347.36        50.24608
347.81        50.18677
348.26        50.08624
348.72        49.95193
349.17        49.83307
349.62        49.82453
350.07        49.93786
350.52         50.1496
350.97        50.35593
351.42        50.38692
351.87        50.21225
352.32        49.88815
352.77        49.54053
353.22         49.3568
353.67        49.37061
354.13        49.51388
354.58        49.68438
355.03        49.70544
355.48        49.52878
355.93        49.22029
356.38        48.85736
356.83        48.54984
357.28        48.32951
357.73        48.15548
358.18        48.00524
358.63        47.85079
359.08        47.67581
359.53        47.48892
359.98        47.28035
360.43         47.0256
360.88         46.7207
361.33        46.37614
361.78        45.99741
362.23        45.60048
362.68        45.20504
363.13        44.81776
363.58        44.47303
364.03        44.21775
364.48        44.05221
364.93        43.95612
365.38        43.88356
365.83        43.75892
366.28        43.56118
366.73        43.31223
367.18         43.0304
367.63        42.74842
368.08        42.47882
368.53        42.20719
368.98        41.94819
369.43        41.72589
369.88        41.53955
370.33        41.38618
370.78        41.22569
371.23        40.98977
371.68        40.66824
372.13        40.28466
372.58        39.89565
373.03        39.59138
373.48        39.39126
373.93        39.26374
374.38        39.16364
374.83        39.01904
375.28        38.80797
375.72        38.54641
376.17        38.27413
376.62        38.00272
377.07        37.74788
377.52        37.51157
377.97        37.30524
378.42        37.15392
378.87        37.05987
379.32        37.00307
379.77        36.98537
380.22        37.00851
380.67        37.05593
381.11        37.13034
381.56        37.13858
382.01        36.97134
382.46        36.62605
382.91        36.16325
383.36         35.6997
383.81        35.39291
384.26          35.267
384.71        35.26893
385.15        35.33751
385.60        35.36306
386.05        35.30778
386.50        35.20803
386.95        35.06253
387.40        34.87222
387.85        34.65304
388.29        34.38205
388.74        34.15114
389.19        34.00713
389.64        33.95098
390.09        33.95995
390.54         33.9765
390.98        33.89506
391.43        33.71955
391.88        33.49097
392.33         33.2627
392.78        33.10852
393.23        33.04533
393.67        33.02731
394.12        33.07298
394.57        33.14928
395.02        33.23854
395.47        33.33252
395.91        33.41128
396.36         33.4229
396.81        33.37493
397.26        33.28958
397.71        33.17073
398.15        33.04869
398.60        32.97614
399.05        32.81021
399.50        32.62273
399.95        32.75792
400.39        33.11238
400.84        33.07899
401.29        32.66532
401.74        32.40131
402.18        32.31949
402.63        32.09857
403.08        31.79379
403.53        31.63322
403.97        31.63661
404.42        31.74456
404.87        31.89236
405.32        31.97052
405.76        31.94302
406.21        31.85582
406.66         31.7525
407.11        31.70624
407.55        31.74512
408.00        31.82953
408.45        31.92657
408.90        31.96635
409.34        31.92531
409.79        31.83151
410.24        31.72606
410.68        31.65687
411.13        31.64219
411.58        31.66477
412.03        31.68464
412.47        31.63848
412.92        31.50695
413.37        31.33045
413.81        31.15722
414.26        31.08281
414.71        31.11073
415.15        31.22033
415.60        31.35688
416.05        31.45658
416.49         31.4945
416.94        31.48438
417.39        31.43913
417.83        31.37669
418.28        31.30643
418.73        31.21589
419.17        31.12944
419.62        31.08885
420.07        31.10376
420.51        31.16523
420.96        31.23664
421.41        31.24889
421.85        31.18184
422.30         31.0439
422.74        30.88639
423.19        30.92445
423.64        31.12426
424.08        31.26215
424.53        31.28676
424.98        31.34883
425.42        31.45147
425.87        31.41967
426.31         31.2935
426.76        31.33634
427.21        31.48993
427.65        31.36158
428.10         31.0387
428.54         30.9389
428.99        31.09383
429.44        31.35916
429.88        31.61452
430.33        31.59252
430.77         31.3486
431.22         31.3636
431.66        31.61754
432.11        31.70408
432.56        31.63519
433.00        31.62432
433.45        31.60147
433.89        31.58469
434.34         31.6454
434.78        30.94423
435.23         31.2868
435.67        31.12664
436.12         31.0063
436.57        31.01086
437.01        31.12136
437.46        31.15727
437.90        31.08984
438.35        31.01506
438.79        30.95155
439.24        30.93213
439.68        30.95809
440.13        31.01258
440.57        31.09807
441.02        31.19257
441.46        31.26795
441.91        31.39535
442.35        31.49948
442.80        31.45221
443.24        31.28329
443.69        31.26863
444.13        31.38602
444.58        31.40575
445.02        31.31718
445.47        31.26381
445.91        31.25918
446.36        31.26621
446.80        31.27878
447.24         31.3101
447.69         31.3403
448.13        31.32389
448.58        31.26429
449.02         31.1709
449.47        31.07807
449.91         31.0261
450.36        31.03417
450.80        31.07504
451.25        31.14642
451.69        31.22297
452.13        31.29729
452.58        31.36896
453.02        31.41859
453.47        31.41994
453.91        31.37195
454.36        31.29104
454.80        31.19408
455.24        31.11025
455.69        31.05987
456.13        31.01334
456.58        31.00724
457.02        31.04761
457.46        31.14074
457.91        31.28119
458.35         31.3928
458.79         31.3666
459.24         31.2174
459.68        30.97131
460.13        30.75058
460.57        30.66614
461.01        30.76366
461.46        30.97545
461.90        31.26129
462.34        31.52814
462.79         31.7234
463.23        31.88159
463.68        31.95061
464.12        31.86964
464.56         31.6438
465.01        31.34014
465.45        31.02277
465.89         30.8635
466.34        30.88429
466.78        31.03582
467.22        31.25234
467.67        31.38164
468.11        31.39516
468.55        31.32169
468.99        31.21672
469.44        31.16671
469.88        31.19956
470.32        31.28006
470.77        31.37528
471.21        31.44181
471.65        31.46168
472.10        31.45497
472.54        31.43325
472.98          31.421
473.42        31.42569
473.87        31.44903
474.31        31.46065
474.75         31.4454
475.20        31.40954
475.64        31.34982
476.08        31.30017
476.52        31.29496
476.97        31.33855
477.41        31.43179
477.85        31.54912
478.29        31.60264
478.74        31.60279
479.18        31.64677
479.62        31.72264
480.06        31.75576
480.50        31.75671
480.95         31.7364
481.39        31.67811
481.83        31.86497
482.27        31.81924
482.72        31.90114
483.16        32.00373
483.60         32.0764
484.04        32.09575
484.48        32.34431
484.93         32.7357
485.37        32.29104
485.81        32.23848
486.25        32.22937
486.69        31.79435
487.14        32.72969
487.58        33.38065
488.02        33.04642
488.46        32.83219
488.90        33.05429
489.34        33.29621
489.79        33.67759
490.23        33.77217
490.67        33.64886
491.11        33.37685
491.55        33.28311
491.99        33.40385
492.43        33.46155
492.88         33.4661
493.32        33.62153
493.76        33.88759
494.20         34.1106
494.64        34.27505
495.08        34.35302
495.52        34.37106
495.96        34.58163
496.41        34.91905
496.85        34.88505
497.29        34.54446
497.73         34.7078
498.17         34.9111
498.61        35.16307
499.05        35.26614
499.49        35.34865
499.93        35.33499
500.37        35.53413
500.82        35.87437
501.26        36.08109
501.70        36.12654
502.14        36.16733
502.58        36.23716
503.02        36.31561
503.46         36.4123
503.90        36.53358
504.34        36.65043
504.78        36.71525
505.22        36.72062
505.66         36.6824
506.10        36.64289
506.54        36.66931
506.98        36.77531
507.42         36.9378
507.86        37.11648
508.30        37.24585
508.74        37.30616
509.18        37.31629
509.62        37.30112
510.06        37.30183
510.50        37.33184
510.94        37.37787
511.38        37.43069
511.82        37.47536
512.26        37.50905
512.70        37.54334
513.14        37.58128
513.58        37.62515
514.02        37.67561
514.46         37.7252
514.90        37.78166
515.34         37.8598
515.78        37.95631
516.22        38.06359
516.66        38.15118
517.10        38.17099
517.54        38.11732
517.98        38.01017
518.42        37.88822
518.86        37.81341
519.30        37.80332
519.74        37.83932
520.18        37.90246
520.62        37.96079
521.06        38.00184
521.50        38.03637
521.93        38.06113
522.37        38.05731
522.81        38.02988
523.25        37.97927
523.69        37.92359
524.13         37.8952
524.57        37.89654
525.01         37.9119
525.45        37.92334
525.89        37.90023
526.32        37.83123
526.76        37.74305
527.20        37.63035
527.64        37.48814
528.08        37.32628
528.52        37.14812
528.96        37.00054
529.40        36.95574
529.83        37.01937
530.27        37.17028
530.71        37.33325
531.15        37.39043
531.59        37.31485
532.03        37.13998
532.46        36.92694
532.90        36.80049
533.34        36.78375
533.78        36.81842
534.22        36.85974
534.66        36.88528
535.09         36.8512
535.53        36.69809
535.97        36.47273
536.41        36.34037
536.85        36.32404
537.28        36.34345
537.72        36.38553
538.16        36.45774
538.60        36.54797
539.04        36.65506
539.47        36.75504
539.91        36.83372
540.35        36.88081
540.79        36.90155
541.22        36.91519
541.66        36.96746
542.10        37.06276
542.54        37.18834
542.97         37.3192
543.41        37.43191
543.85         37.5157
544.29        37.58764
544.72        37.65309
545.16        37.74306
545.60        37.85993
546.04        38.00097
546.47        38.17457
546.91        38.38825
547.35        38.63105
547.79        38.89307
548.22        39.14738
548.66        39.34551
549.10        39.52288
549.53        39.67398
549.97        39.80318
550.41        39.83086
550.84         39.8092
551.28        39.85312
551.72         39.9533
552.15        40.12538
552.59         40.4186
553.03        40.23473
553.46        40.76083
553.90        40.90589
554.34        41.01343
554.77        41.09394
555.21        41.18394
555.65         41.3085
556.08        41.45856
556.52        41.60191
556.96        41.71485
557.39        41.87628
557.83        42.04821
558.27        41.99615
558.70        41.78219
559.14        41.75747
559.57        41.91538
560.01        42.03501
560.45        42.09176
560.88        42.17994
561.32        42.31382
561.75        42.42287
562.19         42.5167
562.63         42.6083
563.06        42.69185
563.50        42.75127
563.93        42.76148
564.37        42.83874
564.80        42.98252
565.24        42.97956
565.68        42.76741
566.11        43.26058
566.55        42.91259
566.98         42.9506
567.42        42.98781
567.85        43.12813
568.29        43.38057
568.72        43.71843
569.16        44.12181
569.60        44.33431
570.03        44.50313
570.47         44.5974
570.90         44.6957
571.34        44.59268
571.77        44.86659
572.21        45.01714
572.64        45.13553
573.08        45.40061
573.51        45.27025
573.95        45.39517
574.38        45.71931
574.82        45.70721
575.25        45.75585
575.69        45.75506
576.12        45.82656
576.56        45.78537
576.99        45.96766
577.42        45.95292
577.86        45.83594
578.29        46.56422
578.73        46.25581
579.16         46.2462
579.60        45.97496
580.03        46.05666
580.47        45.84443
580.90        46.31018
581.33         46.1599
581.77        46.27535
582.20        45.62453
582.64        45.73814
583.07        45.73047
583.51        45.73581
583.94        45.65999
584.37        45.57762
584.81        45.52564
585.24        45.37422
585.68        45.17757
586.11        45.06248
586.54        44.90596
586.98        44.62755
587.41        44.58226
587.85        44.67108
588.28        44.33572
588.71        44.46545
589.15        44.18987
589.58        44.55338
590.01        44.55071
590.45        44.39927
590.88        44.86767
591.31        44.71091
591.75        44.41646
592.18        44.18106
592.61        44.00734
593.05        45.10344
593.48        45.11922
593.91        44.91438
594.35          44.876
594.78        44.65524
595.21        44.63183
595.65        44.89763
596.08        45.50854
596.51        45.74297
596.94        45.63765
597.38        45.73179
597.81        45.98981
598.24        46.62165
598.68         46.9087
599.11        46.66497
599.54        47.48636
599.97        47.43755
600.41         47.7773
600.84        47.70742
601.27        48.15674
601.70        48.51617
602.14        48.88137
602.57        49.13601
603.00        49.42743
603.43        49.33339
603.87        50.58157
604.30        51.06959
604.73        51.37788
605.16        51.36977
605.60        51.56321
606.03        51.85258
606.46        52.35838
606.89        52.47176
607.32        53.34345
607.76        53.67208
608.19        54.16232
608.62        54.53353
609.05        54.96076
609.48        55.26105
609.92        56.14941
610.35        56.18262
610.78        56.04799
611.21        56.26074
611.64        56.60405
612.07        57.07265
612.50         57.3826
612.94        57.70736
613.37        57.98137
613.80        58.02467
614.23        57.78818
614.66        58.06459
615.09        58.78807
615.52         59.2159
615.96        59.24064
616.39        59.78568
616.82        60.19719
617.25        60.00348
617.68        60.26764
618.11        60.54877
618.54        61.11427
618.97        61.33773
619.40        61.24373
619.84        61.25815
620.27        61.42371
620.70        61.57099
621.13        61.66651
621.56        61.60088
621.99        61.42987
622.42          61.487
622.85        61.76006
623.28        61.85764
623.71        61.75473
624.14        61.96848
624.57        62.13305
625.00          62.021
625.43        62.03576
625.86        61.98205
626.29        62.08778
626.72        61.52109
627.15         61.7942
627.58        61.67173
628.01        61.55664
628.44        61.40399
628.87        61.22485
629.30        60.84336
629.73        60.60661
630.16        60.33305
630.59        60.11425
631.02        59.95441
631.45         59.8446
631.88        59.62132
632.31        59.23016
632.74        59.27177
633.17        58.71484
633.60        58.34956
634.03        57.88097
634.46        57.34532
634.89        56.78369
635.32        56.29645
635.75        55.92001
636.18        55.56231
636.61        55.22359
637.04         54.9274
637.47        54.65446
637.89        54.40746
638.32        54.14756
638.75        53.81056
639.18         53.3847
639.61        53.11223
640.04        52.63515
640.47        52.34271
640.90        52.13066
641.33        51.99567
641.76        51.89705
642.18        51.78043
642.61        51.61811
643.04        51.42771
643.47        51.25036
643.90         51.1516
644.33        51.14275
644.76         51.2029
645.18        51.28271
645.61        51.28883
646.04        51.21585
646.47        51.10687
646.90        51.02887
647.33        51.08519
647.75         51.2831
648.18        51.61092
648.61        52.05962
649.04        52.47443
649.47        52.74922
649.89        53.60454
650.32        53.61773
650.75        53.93424
651.18        54.19958
651.61         54.6114
652.03        55.17278
652.46         55.6964
652.89        56.13409
653.32         56.5321
653.74        57.01245
654.17        57.11816
654.60        57.84838
655.03        58.46705
655.46        58.24184
655.88        58.32064
656.31         59.7175
656.74        60.02739
657.16        62.48569
657.59        64.30211
658.02        61.54186
658.45        62.29489
658.87        62.34864
659.30        62.90255
659.73        62.96516
660.15        64.42003
660.58        63.85588
661.01         64.1723
661.44        64.47875
661.86        64.41657
662.29        64.07638
662.72        64.86623
663.14        65.44459
663.57         65.7121
664.00        65.41064
664.42         65.5936
664.85        66.29912
665.27        66.95621
665.70        67.39931
666.13        67.68375
666.55        67.78262
666.98        67.62354
667.41        67.30305
667.83        67.41707
668.26        67.31604
668.69        67.52528
669.11        67.81771
669.54        68.13496
669.96        68.44471
670.39        68.81844
670.82        69.20593
671.24        69.34511
671.67        69.28506
672.09        69.36031
672.52        69.58746
672.94        69.68506
673.37        69.66824
673.80        69.70355
674.22        69.83177
674.65        69.99084
675.07        70.19724
675.50        70.45348
675.92        70.71368
676.35        70.89057
676.77        70.95948
677.20         70.9463
677.62        70.93051
678.05        70.98416
678.47         71.0799
678.90         71.5362
679.32        71.51237
679.75         71.6826
680.17        71.78648
680.60        71.85036
681.02        71.93751
681.45        71.92528
681.87        72.26233
682.30        72.57724
682.72        72.93001
683.15        73.13164
683.57         73.1801
684.00        73.15906
684.42        73.14198
684.85        73.21956
685.27        73.40594
685.70        73.68192
686.12        73.96278
686.54        74.15111
686.97        74.20472
687.39        74.13488
687.82        74.06467
688.24        74.02248
688.66        74.07288
689.09        74.07721
689.51        74.07652
689.94         74.3747
690.36        74.85479
690.78        74.86886
691.21        74.52386
691.63        74.58681
692.06        75.05944
692.48        75.38768
692.90        75.49888
693.33        75.59732
693.75        75.66078
694.17        75.59122
694.60        75.49551
695.02         75.4826
695.44        75.60964
695.87        76.12323
696.29        76.82416
696.71        76.83325
697.14         76.2534
697.56        76.06729
697.98        76.35748
698.41        76.52876
698.83        76.58018
699.25         76.9277
699.68        77.41549
700.10        77.64615
700.52        77.53585
700.94        77.21879
701.37        76.87098
701.79        76.78326
702.21        77.01804
702.64        77.45979
703.06        77.97105
703.48        78.31103
703.90         78.4049
704.33        78.32886
704.75        78.16344
705.17        78.02555
705.59          77.973
706.01        77.97504
706.44        78.02866
706.86        78.17211
707.28        78.38886
707.70        78.61739
708.12        78.86268
708.55         79.2332
708.97        79.65662
709.39        79.83407
709.81        79.76652
710.23        79.75057
710.66        79.80611
711.08        79.77692
711.50        79.66079
711.92        79.56726
712.34        79.51994
712.76        79.49345
713.19        79.48207
713.61        79.56021
714.03        79.72176
714.45         79.7859
714.87         80.0613
715.29        80.28168
715.71        80.52595
716.13        80.76338
716.56          80.965
716.98        81.19135
717.40        81.39124
717.82        81.56079
718.24        81.64075
718.66        81.53886
719.08         81.2687
719.50        80.89506
719.92        80.54024
720.34         80.3857
720.76        80.47143
721.19         80.7125
721.61        81.08157
722.03        81.46524
722.45        81.79724
722.87         82.0919
723.29        82.26926
723.71        82.20448
724.13        81.89935
724.55        81.41225
724.97        80.90753
725.39         80.6165
725.81        80.60429
726.23        80.86987
726.65        81.34553
727.07        81.61335
727.49        82.08018
727.91        82.39967
728.33        82.70106
728.75        82.95751
729.17        83.16241
729.59        83.28429
730.01        83.32597
730.43        83.32832
730.85        83.30155
731.27        83.24416
731.69        83.15825
732.10        83.03904
732.52        82.89116
732.94        82.74614
733.36        82.64662
733.78        82.49265
734.20        82.28284
734.62         82.3511
735.04         82.7847
735.46        82.18228
735.88        82.97239
736.30        83.14065
736.72        83.43068
737.13        83.80737
737.55        84.16306
737.97        84.66692
738.39        85.10838
738.81        84.68436
739.23        83.67788
739.65        83.60866
740.06        84.37393
740.48        84.69872
740.90        84.53058
741.32        84.39134
741.74        84.83041
742.16        85.05315
742.57        85.18092
742.99        85.36406
743.41        85.53362
743.83        85.35759
744.25        84.92296
744.67        84.69328
745.08        84.74055
745.50        84.77959
745.92        84.81677
746.34        85.03061
746.75        85.36855
747.17        85.55504
747.59        85.54693
748.01        85.59434
748.42        85.64277
748.84          85.255
749.26        84.65382
749.68        84.58942
750.09        85.01863
750.51        85.46261
750.93          85.665
751.35        85.28001
751.76        84.50677
752.18        83.99535
752.60        84.19389
753.01        84.31277
753.43        84.37459
753.85        84.44003
754.27         84.4744
754.68        84.74557
755.10        84.74671
755.52        84.94541
755.93        85.16631
756.35        85.36182
756.77        85.52036
757.18        85.63355
757.60        85.71973
758.02        85.88043
758.43        85.93212
758.85        85.85479
759.26        84.96619
759.68        84.70368
760.10        85.01279
760.51        85.71967
760.93        86.59589
761.34        86.50194
761.76        86.24815
762.18        86.13332
762.59        86.59727
763.01        86.40229
763.42        86.99249
763.84        87.16298
764.26        87.22829
764.67        86.83736
765.09        86.23232
765.50        85.83288
765.92        85.74493
766.33        85.90384
766.75        86.12787
767.16        86.08053
767.58        85.76866
768.00        85.80164
768.41        86.24709
768.83        86.70377
769.24        87.01704
769.66          87.255
770.07        87.36021
770.49        86.98727
770.90        86.43933
771.32        86.91076
771.73        88.16751
772.15        88.64417
772.56        88.25636
772.97        87.71769
773.39        87.30127
773.80        87.40105
774.22        87.92803
774.63        88.20875
775.05        88.10468
775.46        88.14113
775.88        88.26648
776.29        88.14895
776.70        87.87659
777.12         87.8287
777.53        88.05614
777.95        88.37313
778.36        88.69932
778.77        88.83676
779.19        88.76392
779.60        88.64202
780.02        88.44916
780.43        88.17387
780.84        87.97249
781.26        87.54768
781.67        87.11123
782.09        88.12711
782.50        90.08884
782.91        89.69249
783.33        87.99349
783.74        87.88506
784.15        88.25599
784.57         88.8695
784.98        89.08682
785.39        88.90832
785.81        88.47877
786.22        88.70693
786.63        89.49541
787.04        89.77766
787.46        89.52561
787.87         89.3152
788.28        89.27452
788.70          89.297
789.11        89.38498
789.52        89.65333
789.93        89.98777
790.35        90.08589
790.76        89.94303
791.17         89.7884
791.58        89.74947
792.00        89.67197
792.41        89.57804
792.82        90.02627
793.23        90.73382
793.65         90.1007
794.06        88.63552
794.47        88.89709
794.88        90.53274
795.29        91.52837
795.71        90.62804
796.12        90.37633
796.53        90.56624
796.94        90.33787
797.35        89.88057
797.76        90.19695
798.18        91.09734
798.59        91.58126
799.00        91.53822
799.41        91.10261
799.82        91.13569
800.23        91.00322
800.64        90.97221
801.06        90.98364
801.47        91.04703
801.88        91.05724
802.29        90.97229
802.70        90.81322
803.11        90.62436
803.52        90.46884
803.93        90.39904
804.34        90.45558
804.75        90.57205
805.17         90.6959
805.58        90.91753
805.99        90.90941
806.40        90.82825
806.81        91.90127
807.22        93.60886
807.63        93.42814
808.04        91.64542
808.45        90.93709
808.86        91.50031
809.27         91.8481
809.68        91.79659
810.09        91.77235
810.50         91.7409
810.91         91.5855
811.32        91.45689
811.73        91.59301
812.14        92.02462
812.55        92.69224
812.96        93.35786
813.37        93.56551
813.78         93.2054
814.19        92.45976
814.60        91.60005
815.01        90.98755
815.42        90.71133
815.83        90.66746
816.24         90.7945
816.65        90.96796
817.05        91.13284
817.46        91.30496
817.87        91.47123
818.28        91.53819
818.69        91.49864
819.10        91.34019
819.51        91.19098
819.92        91.30602
820.33        91.72896
820.74        92.35313
821.14        92.97324
821.55        93.29865
821.96        93.23092
822.37        92.75785
822.78        92.08553
823.19        91.67352
823.60        91.64306
824.00         91.8681
824.41        92.15311
824.82        92.34116
825.23        92.35455
825.64        92.26299
826.04        92.14972
826.45        92.08479
826.86        92.11868
827.27        92.22179
827.68        92.35513
828.08        92.49603
828.49        92.56364
828.90        92.58737
829.31        92.62698
829.72        92.77928
830.12        93.08723
830.53         93.4442
830.94        93.73041
831.35        93.68618
831.75        93.28988
832.16        92.61306
832.57        91.89683
832.97        91.48822
833.38        91.47815
833.79        91.73589
834.20        92.15395
834.60        92.55352
835.01        92.86536
835.42        93.19846
835.82        93.48379
836.23        93.49374
836.64        93.24764
837.04        92.75075
837.45        92.32434
837.86         92.5846
838.26        93.65667
838.67        95.30402
839.08        96.94462
839.48        97.47372
839.89        96.61328
840.29        94.77458
840.70        92.78782
841.11          91.605
841.51        91.48254
841.92        92.11056
842.33        93.18808
842.73        94.17681
843.14         94.7038
843.54           94.98
843.95         95.0901
844.35        95.24175
844.76        95.46217
845.17        95.65421
845.57        95.69712
845.98        95.39188
846.38         94.7616
846.79        93.90453
847.19        93.07722
847.60        92.63474
848.00        92.67771
848.41        93.06736
848.81        93.63562
849.22        93.97879
849.62        94.02908
850.03        93.88142
850.43        93.64928
850.84        93.43011
851.24        93.34022
851.65        93.23846
852.05        93.29953
852.46          93.671
852.86        94.33306
853.27        95.20547
853.67        95.92715
854.07        96.16337
854.48        95.82963
854.88        95.07319
855.29         94.0591
855.69        93.29778
856.10         92.8856
856.50        92.81686
856.90         92.9509
857.31        93.06249
857.71        93.13894
858.12        93.16476
858.52        93.24236
858.92        93.37716
859.33        93.54251
859.73        93.76134
860.13        93.89636
860.54        93.77528
860.94        93.43481
861.34        92.91583
861.75        92.40385
862.15        92.26183
862.55        92.53455
862.96        93.06145
863.36        93.70072
863.76        94.07706
864.17        94.05972
864.57        93.80654
864.97         93.3267
865.38        92.64474
865.78        91.86013
866.18        90.96833
866.58        90.21192
866.99        90.02019
867.39        90.50963
867.79        91.52493
868.19        92.72692
868.60        93.55896
869.00        93.90032
869.40        93.83704
869.80        93.51794
870.21        93.26456
870.61        93.27557
871.01        93.38295
871.41        93.41887
871.81        93.14647
872.22        92.52038
872.62        91.64594
873.02        90.77347
873.42        90.29675
873.82         90.3291
874.22        90.76163
874.63        91.31074
875.03        91.54175
875.43        91.32941
875.83        90.79935
876.23        90.22646
876.63         90.0302
877.03        90.31091
877.44        90.92772
877.84        91.63416
878.24        91.96551
878.64        91.77853
879.04        91.15543
879.44        90.46342
879.84        90.28122
880.24        90.68893
880.64        91.49769
881.04        92.23548
881.44        92.13235
881.84        91.05597
882.24        89.31663
882.65        87.51365
883.05        86.55582
883.45        86.67921
883.85        87.61024
884.25        88.93642
884.65        89.94203
885.05        90.36977
885.45        90.42242
885.85        90.27644
886.25        90.20796
886.65        90.30894
887.05        90.45123
887.45        90.58977
887.85        90.68906
888.25        90.72212
888.65        90.72595
889.04        90.69044
889.44         90.6114
889.84        90.47729
890.24        90.29462
890.64        90.07442
891.04        89.84622
891.44        89.63203
891.84        89.44228
892.24        89.30228
892.64        89.23222
893.04        89.25211
893.44        89.39262
893.83        89.65034
894.23        89.94572
894.63        90.27564
895.03        90.59633
895.43        90.98724
895.83        91.59802
896.23        92.39126
896.63        93.25938
897.02        93.90153
897.42        93.87711
897.82        93.14069
898.22        91.92747
898.62        90.55766
899.01        89.49164
899.41        88.90313
899.81        88.63338
900.21        88.69147
900.61        89.07265
901.00        89.69719
901.40        90.55721
901.80         91.3446
902.20        91.54942
902.59        91.10236
902.99         90.1319
903.39        89.04192
903.79        88.52096
904.18        88.72536
904.58        89.43434
904.98        90.37604
905.38        91.13856
905.77        91.59551
906.17        91.91748
906.57        92.06483
906.96        91.96938
907.36        91.65109
907.76        91.12167
908.15        90.70687
908.55        90.91936
908.95        91.83787
909.34        93.30739
909.74        94.80914
910.14        95.58501
910.53         95.3906
910.93        94.47607
911.33        93.16183
911.72        91.93729
912.12        91.08114
912.52         90.4958
912.91        90.13076
913.31        89.93994
913.70        89.88983
914.10        89.97381
914.49        90.32227
914.89        90.99876
915.29        91.98786
915.68        93.21812
916.08        94.25783
916.47        94.52847
916.87        93.94325
917.26        92.66582
917.66        91.29505
918.05        90.53664
918.45         90.5715
918.84        91.27028
919.24        92.19251
919.64         92.7175
920.03        92.66432
920.42         92.1656
920.82        91.64096
921.21        91.67754
921.61        92.36207
922.00        93.54406
922.40        94.69244
922.79        95.09447
923.19        94.53383
923.58        93.31583
923.98        91.96911
924.37        91.15102
924.77        91.04965
925.16        91.41032
925.55        92.00296
925.95        92.40027
926.34        92.46941
926.74        92.33333
927.13        92.00571
927.52        91.42256
927.92        90.69375
928.31         89.8276
928.70        89.06519
929.10        88.75083
929.49         88.9333
929.89        89.45001
930.28        90.24135
930.67          91.028
931.07        91.64202
931.46         92.2371
931.85        92.57167
932.24        92.33615
932.64         91.5907
933.03         90.4071
933.42        89.34764
933.82         89.2324
934.21        90.20224
934.60        92.06516
934.99        94.20387
935.39        95.47649
935.78        95.57532
936.17        94.67458
936.56        93.31798
936.96        92.37847
937.35         92.1149
937.74        92.31251
938.13        92.53362
938.53        92.11996
938.92        90.98166
939.31        89.44059
939.70        88.06262
940.09          87.625
940.49        88.22467
940.88        89.62194
941.27         91.3371
941.66        92.49075
942.05        92.78337
942.44        92.50059
942.84         91.9246
943.23         91.5101
943.62        91.43298
944.01        91.48624
944.40        91.75198
944.79        92.40196
945.18        93.38013
945.57        94.63997
945.97        95.69551
946.36         95.8254
946.75        94.84959
947.14        93.09512
947.53        91.13199
947.92        89.77847
948.31        89.26266
948.70        89.37674
949.09        89.95568
949.48        90.69242
949.87        91.41849
950.26        92.18935
950.65          92.929
951.04        93.50526
951.43        93.86371
951.82        93.97762
952.21        93.83499
952.60         93.4747
952.99        92.97758
953.38        92.41021
953.77        91.93275
954.16        91.78097
954.55        91.98674
954.94        92.44254
955.33        93.06396
955.72        93.67025
956.11        94.15575
956.50        94.59019
956.89        94.72929
957.28        94.19832
957.66        92.99688
958.05        91.32227
958.44        89.78854
958.83        89.28108
959.22        89.93837
959.61        91.53812
960.00        93.43605
960.39        94.40185
960.78        94.05487
961.16        92.74605
961.55        91.21046
961.94        90.39893
962.33        90.57877
962.72        91.53588
963.11        92.84659
963.49        93.74553
963.88        93.82319
964.27        93.28751
964.66        92.74547
965.04        93.13919
965.43        94.56794
965.82        96.82433
966.21        98.91475
966.60         98.9772
966.98        96.60007
967.37        92.66453
967.76        88.71655
968.15        86.65573
968.53        86.81824
968.92        88.69962
969.31        91.38744
969.69        93.02602
970.08        92.82539
970.47        91.39081
970.86        89.71133
971.24        89.18203
971.63        90.12355
972.02        92.09962
972.40        94.38603
972.79        95.24013
973.17        94.24599
973.56        92.06844
973.95        89.72897
974.33        88.51477
974.72        88.69923
975.11        89.86613
975.49         91.5171
975.88        92.54112
976.26        92.62292
976.65        92.06786
977.04          91.258
977.42         90.7271
977.81        90.61681
978.19        90.69021
978.58        90.99348
978.96        91.63108
979.35        92.49303
979.74        93.58772
980.12        94.63663
980.51        94.82619
980.89        94.15668
981.28          92.893
981.66        91.48763
982.05        90.59016
982.43         90.3728
982.82        90.59496
983.20        91.38231
983.59        92.72808
983.97        94.61722
984.35        96.97241
984.74        99.02112
985.12        99.74579
985.51        98.85705
985.89        96.66796
986.28        94.18645
986.66        92.88381
987.04        93.18114
987.43        94.64439
987.81        96.60422
988.20        97.49237
988.58        96.85937
988.96        95.12048
989.35        93.00994
989.73        91.48959
990.12        90.79782
990.50        90.67579
990.88         90.6943
991.27          90.177
991.65        89.01504
992.03        87.51675
992.42        86.26174
992.80        85.91536
993.18        86.64539
993.56        88.25357
993.95        90.11373
994.33         91.3214
994.71        91.38343
995.10        90.65489
995.48        89.70633
995.86        89.53381
996.24        90.36536
996.63        91.70908
997.01        93.33132
997.39        94.26369
997.77        94.10019
998.15        93.29518
998.54        91.96914
998.92        90.08682
999.30        87.93768
999.68        85.60059
1000.06        83.83707
1000.45        83.68491
1000.83        85.40401
1001.21        88.84955
1001.59        93.14527
1001.97        96.01869
1002.35        96.51933
1002.73        95.24805
1003.12        93.40771
1003.50        92.52531
1003.88        93.10513
1004.26        94.52312
1004.64        96.49648
1005.02        98.37059
1005.40         99.6814
1005.78        100.8153
1006.16        101.1368
1006.54        99.59484
1006.92        96.36073
1007.30        91.91987
1007.69        87.91661
1008.07        86.54921
1008.45        88.40709
1008.83        92.98508
1009.21        98.97028
1009.59        102.9381
1009.97        103.1455
1010.35        100.5585
1010.73        96.25768
1011.11        91.88412
1011.49        88.24124
1011.86        84.97524
1012.24        82.64218
1012.62        81.88393
1013.00        82.66636
1013.38        84.92855
1013.76        88.00582
1014.14        90.00105
1014.52        89.95959
1014.90        88.28164
1015.28        85.66477
1015.66        83.17149
1016.04        81.16573
1016.41        79.39855
1016.79        78.04305
1017.17        77.58105
1017.55        78.03485
1017.93         79.2198
1018.31        80.73763
1018.69        81.97244
1019.06        82.82312
1019.44        83.48276
1019.82        83.68161
1020.20        82.97083
1020.58        81.38953
1020.95        78.99908
1021.33        77.13168
1021.71        77.18976
1022.09        79.39964
1022.46        83.99282
1022.84        89.38968
1023.22        91.62706
1023.60        89.21426
1023.97        83.16121
1024.35         77.4144
1024.73        76.72775
