SpectraSmart Spectrum 2.9.0.0
--------- Device Information -----------
Spectrum Name :  反射率_0
Saving Time :  2024/04/26 22:53:36
Spectro-Module Model Name : SE2030-DUVN
Spectro-Module Serial Number : OS361AC55029948
Wavelength Start : 200
Wavelength End : 1025
Wavelength Unit : Wavelength(nm)
Spectrum Unit : Reflectance(%)
-----------Spectrum Setting ------------
Integration Time : 20ms
Average : 10
Boxcar : 0
Background removal :  enabled
linearity correction :  enabled
SC :  disabled
Intensity correction :  disabled
DWT denoise :  enabled
savitzky-golay :  disabled
FFT :  disabled
Running average :  disabled
Kalman :  disabled
High pass :  disabled
---------------BEGIN--------------------
Wavelength(nm)             Reflectance(%)
200.29               0
200.75        26.07452
201.21        31.35447
201.67        36.72125
202.13        40.10064
202.58        41.47977
203.04        42.32125
203.50        43.02604
203.96        43.99919
204.42        45.54519
204.88        46.77757
205.34        48.58247
205.80         52.9159
206.26        58.94343
206.72        64.76591
207.18        68.35699
207.64        68.06657
208.10        63.79108
208.55        55.67638
209.01        42.51529
209.47         30.4463
209.93        26.81017
210.39        29.36645
210.85        33.73947
211.31        37.73701
211.77        42.27128
212.23        50.66738
212.69        71.77909
213.14        114.8233
213.60        125.9532
214.06        104.7991
214.52        85.96714
214.98        74.51807
215.44        66.08458
215.90        57.53157
216.36        49.81961
216.81        45.09919
217.27        44.38012
217.73        48.33133
218.19        56.41963
218.65        61.54367
219.11        60.11625
219.57        56.06402
220.02        54.00282
220.48        57.65835
220.94         67.4967
221.40        84.59891
221.86        109.4581
222.32        128.6832
222.77        127.6994
223.23        114.7872
223.69        99.02647
224.15        85.75822
224.61        75.45634
225.06        66.58193
225.52        60.40683
225.98        57.88821
226.44        58.48515
226.90        61.60078
227.36        65.37289
227.81        66.57453
228.27        64.82004
228.73        61.21664
229.19        57.91971
229.65        57.44317
230.10        59.83953
230.56         64.1515
231.02        68.48338
231.48        69.88275
231.93        67.85242
232.39         63.9992
232.85        60.07465
233.31        58.31342
233.77        58.96445
234.22        61.21738
234.68        63.98472
235.14         65.6855
235.60        65.80986
236.05        64.87045
236.51        63.29384
236.97        62.08418
237.43        61.73763
237.88        62.01776
238.34        62.64706
238.80         63.4681
239.26        64.45415
239.71        66.15664
240.17        68.41666
240.63        71.17676
241.08        74.34711
241.54        77.15849
242.00        80.11948
242.46        84.76948
242.91        92.73907
243.37        104.7858
243.83         120.762
244.28        132.0755
244.74         127.159
245.20        107.8683
245.66        86.57439
246.11        72.53687
246.57        65.79576
247.03        63.19159
247.48        62.96136
247.94        62.43836
248.40        61.20879
248.85        60.18517
249.31         59.4693
249.77        58.40502
250.22        56.64179
250.68         53.6557
251.14        49.99786
251.59        48.38588
252.05        50.36574
252.51        54.83467
252.96        58.34005
253.42        58.04547
253.88        54.53709
254.33        49.29047
254.79        45.39006
255.25        45.13004
255.70         48.1641
256.16          53.383
256.62        58.10217
257.07         58.3882
257.53        55.22033
257.99        50.96695
258.44        47.52064
258.90        46.68535
259.35        47.58882
259.81        49.51146
260.27        51.26562
260.72        51.45173
261.18        50.27501
261.63        48.27116
262.09        46.44949
262.55        45.43447
263.00        45.13991
263.46        45.33264
263.91        45.47631
264.37         45.1527
264.83        44.31016
265.28        43.16169
265.74        42.14677
266.19         41.5366
266.65        41.42235
267.11        41.58352
267.56        41.83969
268.02        41.90907
268.47        41.70801
268.93        41.37007
269.38         40.9038
269.84        40.37905
270.30        39.81555
270.75        39.15246
271.21        38.55604
271.66        38.23052
272.12        38.19834
272.57        38.39939
273.03        38.53916
273.48        38.12686
273.94        37.15713
274.39        35.78824
274.85        34.49231
275.31        33.79158
275.76        33.72087
276.22        34.08918
276.67        34.52413
277.13         34.5869
277.58        34.13406
278.04        33.36631
278.49        32.42389
278.95        31.62618
279.40        31.01109
279.86        30.55056
280.31        30.12389
280.77        29.67235
281.22        29.14291
281.68        28.63377
282.13        28.17748
282.59        27.89014
283.04        27.74303
283.50        27.70303
283.95        27.66743
284.41        27.50076
284.86        27.16842
285.32        26.73513
285.77         26.2694
286.22        25.92479
286.68        25.72219
287.13        25.58201
287.59        25.44124
288.04        25.15983
288.50        24.74467
288.95        24.24002
289.41        23.72919
289.86        23.26878
290.32        22.91101
290.77        22.61466
291.22        22.40354
291.68        22.30196
292.13        22.28864
292.59        22.36447
293.04        22.46328
293.50        22.49999
293.95        22.44736
294.40         22.3303
294.86        22.20933
295.31        22.17685
295.77        22.26327
296.22        22.43955
296.68        22.66023
297.13        22.84036
297.58        22.96479
298.04        23.05868
298.49        23.16905
298.95        23.38308
299.40        23.70235
299.85         24.0862
300.31        24.45969
300.76        24.70786
301.21        24.80834
301.67        24.81505
302.12        24.76841
302.58        24.77524
303.03        24.84586
303.48        24.96498
303.94        25.12036
304.39        25.27186
304.84          25.412
305.30        25.55954
305.75        25.68951
306.20        25.80496
306.66        25.90876
307.11        25.98479
307.57        26.03918
308.02        26.05214
308.47        26.03135
308.93         25.9897
309.38        25.93414
309.83        25.91081
310.29        25.92654
310.74        25.96417
311.19        25.99511
311.65        25.96784
312.10        25.86814
312.55        25.71396
313.00        25.54194
313.46        25.40437
313.91        25.30669
314.36        25.24375
314.82        25.18782
315.27        25.10209
315.72        24.97626
316.18         24.8272
316.63        24.68223
317.08        24.59467
317.53        24.56997
317.99        24.58352
318.44        24.59141
318.89        24.51463
319.35        24.33596
319.80         24.0795
320.25        23.79431
320.70        23.55956
321.16         23.3963
321.61        23.29165
322.06        23.20805
322.51        23.08427
322.97        22.90142
323.42        22.68364
323.87        22.47057
324.32        22.32806
324.78        22.26279
325.23        22.26451
325.68        22.26852
326.13        22.17498
326.59        21.96122
327.04        21.66861
327.49        21.36937
327.94         21.1785
328.39        21.12054
328.85        21.15219
329.30        21.22923
329.75        21.23096
330.20        21.12198
330.66        20.93632
331.11        20.73088
331.56        20.58018
332.01        20.50678
332.46        20.47859
332.92        20.46427
333.37        20.44728
333.82        20.40371
334.27        20.35268
334.72        20.28557
335.17        20.18277
335.63        20.04749
336.08        19.89709
336.53         19.7709
336.98        19.74373
337.43        19.82845
337.88          19.995
338.34        20.19365
338.79        20.35728
339.24        20.44667
339.69        20.47988
340.14         20.4473
340.59        20.34008
341.05        20.17996
341.50        19.97422
341.95        19.78231
342.40        19.69571
342.85        19.73253
343.30        19.86502
343.75        20.04199
344.20         20.1759
344.66        20.23595
345.11        20.23752
345.56        20.19013
346.01        20.11324
346.46        20.02367
346.91        19.92369
347.36        19.82237
347.81        19.73794
348.26        19.67712
348.72        19.63651
349.17        19.63133
349.62        19.69097
350.07        19.81196
350.52         19.9867
350.97        20.14467
351.42        20.17341
351.87        20.05666
352.32        19.82907
352.77        19.59279
353.22         19.5035
353.67         19.5875
354.13        19.79424
354.58        20.02286
355.03        20.10786
355.48         20.0064
355.93        19.78018
356.38        19.50678
356.83        19.30024
357.28        19.19286
357.73         19.1436
358.18        19.12985
358.63        19.11839
359.08        19.09061
359.53        19.05933
359.98        19.00796
360.43        18.90523
360.88        18.74857
361.33        18.54546
361.78        18.32316
362.23        18.13173
362.68        17.98792
363.13        17.88166
363.58        17.79899
364.03        17.71382
364.48        17.61642
364.93        17.51416
365.38        17.41094
365.83        17.31313
366.28        17.22214
366.73        17.13196
367.18        17.03765
367.63        16.93405
368.08        16.81941
368.53        16.69629
368.98        16.56795
369.43         16.4381
369.88        16.30936
370.33        16.18308
370.78        16.05986
371.23        15.94148
371.68        15.82978
372.13        15.72486
372.58        15.63295
373.03        15.56135
373.48        15.51017
373.93        15.47846
374.38        15.44962
374.83        15.39841
375.28        15.31944
375.72        15.21158
376.17        15.11051
376.62        15.05181
377.07        15.04032
377.52        15.06425
377.97        15.08521
378.42        15.04288
378.87        14.92692
379.32        14.75796
379.77        14.58441
380.22        14.47554
380.67        14.44344
381.11        14.47109
381.56        14.50483
382.01        14.46863
382.46        14.34711
382.91        14.17306
383.36        13.99621
383.81        13.88229
384.26         13.8429
384.71        13.85546
385.15        13.88785
385.60        13.89279
386.05        13.85445
386.50        13.78974
386.95        13.71874
387.40        13.67167
387.85        13.65495
388.29        13.64588
388.74        13.64581
389.19        13.62888
389.64        13.58794
390.09        13.52607
390.54        13.45055
390.98        13.36932
391.43        13.29777
391.88        13.23823
392.33        13.18014
392.78        13.10724
393.23        13.02039
393.67        12.91828
394.12        12.84352
394.57        12.83231
395.02        12.88592
395.47        12.98534
395.91        13.08477
396.36        13.09821
396.81        13.01575
397.26        12.86932
397.71        12.70599
398.15        12.60242
398.60        12.59067
399.05        12.59276
399.50        12.59829
399.95        12.68705
400.39        12.80896
400.84        12.74569
401.29        12.53102
401.74        12.41828
402.18        12.43084
402.63        12.42679
403.08        12.39897
403.53        12.39483
403.97        12.41086
404.42        12.43684
404.87        12.45809
405.32        12.44786
405.76        12.39958
406.21        12.32623
406.66        12.25078
407.11        12.21225
407.55        12.22153
408.00        12.26103
408.45        12.30455
408.90        12.29942
409.34         12.2328
409.79        12.12703
410.24        12.01358
410.68        11.93077
411.13        11.89184
411.58        11.88346
412.03         11.8917
412.47        11.89422
412.92        11.87954
413.37        11.86001
413.81        11.84197
414.26        11.84314
414.71        11.86329
415.15         11.8988
415.60        11.93929
416.05        11.97646
416.49        12.00627
416.94        12.02808
417.39        12.04511
417.83        12.06302
418.28        12.08063
418.73        12.09176
419.17        12.09493
419.62        12.08827
420.07        12.07308
420.51        12.05347
420.96        12.02666
421.41        11.98441
421.85        11.92644
422.30        11.85498
422.74         11.7887
423.19        11.81005
423.64        11.90339
424.08        11.98226
424.53        12.02184
424.98        12.07581
425.42         12.1414
425.87        12.14532
426.31        12.09562
426.76        12.09688
427.21        12.12099
427.65        11.99889
428.10        11.78913
428.54        11.70335
428.99        11.76315
429.44        11.90552
429.88        12.06496
430.33        12.09136
430.77        12.00546
431.22        12.04278
431.66        12.20206
432.11        12.26856
432.56        12.24198
433.00         12.2864
433.45        12.34233
433.89        12.21989
434.34        12.01164
434.78         11.6725
435.23        11.88128
435.67        11.89328
436.12        11.87824
436.57        11.86028
437.01        11.84842
437.46        11.86176
437.90        11.89198
438.35        11.89992
438.79        11.88053
439.24        11.86748
439.68        11.86419
440.13        11.85895
440.57        11.85797
441.02         11.8855
441.46        11.93975
441.91        11.97901
442.35        11.99181
442.80        12.08191
443.24        12.19595
443.69        12.13561
444.13        11.94106
444.58        11.86805
445.02        11.93147
445.47        11.99901
445.91        12.04806
446.36        12.10223
446.80        12.14874
447.24        12.18412
447.69        12.20276
448.13        12.18909
448.58        12.14808
449.02        12.08471
449.47        12.02331
449.91        11.99711
450.36        12.01608
450.80        12.06704
451.25        12.13397
451.69        12.18424
452.13         12.2082
452.58        12.21084
453.02        12.19644
453.47        12.17471
453.91        12.14963
454.36        12.12086
454.80        12.08232
455.24        12.02403
455.69        11.95231
456.13        11.86699
456.58        11.79968
457.02        11.77535
457.46        11.80293
457.91        11.87186
458.35        11.94481
458.79        11.96405
459.24        11.92925
459.68        11.85076
460.13        11.77894
460.57        11.75855
461.01        11.80886
461.46        11.90051
461.90        12.01296
462.34        12.10042
462.79         12.1418
463.23        12.15536
463.68        12.13482
464.12        12.07934
464.56        11.99612
465.01        11.90466
465.45        11.81339
465.89        11.76699
466.34        11.76961
466.78        11.80688
467.22        11.86602
467.67        11.91037
468.11        11.93397
468.55         11.9414
468.99        11.93588
469.44        11.92237
469.88        11.90532
470.32        11.88062
470.77        11.85899
471.21        11.86193
471.65        11.89001
472.10        11.93894
472.54         11.9875
472.98        12.00587
473.42          11.989
473.87        11.95332
474.31        11.90726
474.75        11.87595
475.20           11.87
475.64        11.87599
476.08        11.89862
476.52        11.93908
476.97        11.99326
477.41        12.06491
477.85        12.14001
478.29        12.17658
478.74        12.17865
479.18        12.18631
479.62        12.20235
480.06        12.21297
480.50        12.22401
480.95        12.23033
481.39        12.22685
481.83        12.32605
482.27        12.34494
482.72        12.42699
483.16        12.50965
483.60        12.55704
484.04        12.55637
484.48        12.58849
484.93         12.6968
485.37        12.62349
485.81        12.74292
486.25        12.94744
486.69          12.591
487.14        12.67179
487.58        13.54165
488.02        13.26808
488.46        12.92698
488.90        12.97154
489.34        12.96868
489.79        13.21087
490.23        13.35416
490.67        13.47035
491.11        13.51781
491.55        13.49589
491.99         13.4513
492.43        13.45423
492.88        13.52435
493.32        13.62656
493.76        13.74063
494.20        13.85748
494.64        13.97318
495.08         14.0629
495.52        14.13351
495.96        14.28808
496.41        14.49724
496.85        14.53524
497.29        14.43209
497.73        14.57654
498.17        14.75688
498.61        14.87763
499.05        14.86743
499.49        14.89088
499.93        14.92597
500.37        15.04544
500.82        15.21423
501.26         15.3338
501.70        15.38989
502.14        15.44162
502.58        15.50803
503.02        15.58721
503.46        15.68271
503.90        15.79664
504.34        15.89908
504.78        15.94113
505.22         15.9158
505.66        15.83873
506.10        15.75998
506.54        15.75714
506.98        15.84629
507.42        16.00698
507.86        16.18723
508.30        16.28792
508.74         16.3067
509.18        16.25339
509.62        16.17986
510.06        16.16015
510.50        16.21403
510.94         16.3163
511.38        16.43295
511.82        16.51061
512.26        16.53539
512.70        16.52892
513.14        16.51317
513.58        16.52124
514.02        16.56338
514.46        16.62461
514.90        16.69773
515.34        16.77371
515.78        16.84474
516.22         16.9121
516.66        16.96446
517.10        16.98308
517.54        16.96625
517.98        16.92061
518.42        16.86151
518.86        16.81492
519.30        16.78937
519.74        16.77895
520.18        16.78012
520.62         16.7848
521.06        16.79003
521.50        16.80119
521.93        16.81313
522.37        16.81024
522.81        16.79247
523.25        16.75871
523.69        16.72464
524.13        16.71682
524.57        16.73655
525.01        16.77332
525.45        16.79998
525.89        16.77249
526.32        16.68305
526.76        16.55587
527.20        16.41848
527.64        16.31457
528.08        16.25729
528.52        16.23194
528.96        16.23349
529.40         16.2533
529.83        16.28265
530.27        16.32433
530.71        16.35646
531.15        16.34539
531.59        16.28596
532.03         16.1851
532.46        16.07101
532.90        16.00216
533.34        15.98803
533.78         16.0051
534.22        16.02461
534.66        16.02041
535.09        15.97223
535.53        15.85997
535.97        15.71914
536.41        15.64532
536.85        15.65268
537.28        15.69743
537.72        15.76014
538.16        15.82114
538.60         15.8685
539.04        15.90971
539.47         15.9405
539.91          15.964
540.35        15.98066
540.79        15.99042
541.22        16.00549
541.66         16.0527
542.10        16.13378
542.54        16.24107
542.97        16.35653
543.41        16.45735
543.85         16.5351
544.29        16.59901
544.72         16.6546
545.16        16.72278
545.60        16.80625
546.04        16.90166
546.47        17.01136
546.91        17.13556
547.35        17.26975
547.79         17.4136
548.22        17.55671
548.66        17.67902
549.10        17.79848
549.53        17.91146
549.97        18.02516
550.41        18.11055
550.84        18.18836
551.28        18.30519
551.72        18.44312
552.15        18.58866
552.59        18.75929
553.03        18.68318
553.46        18.92142
553.90        18.98353
554.34        19.03588
554.77         19.0815
555.21        19.13788
555.65        19.21553
556.08        19.31065
556.52        19.41161
556.96        19.50644
557.39        19.63041
557.83        19.76377
558.27        19.79128
558.70        19.74255
559.14        19.78524
559.57        19.91418
560.01         20.0239
560.45        20.08837
560.88        20.13177
561.32        20.16156
561.75        20.15372
562.19        20.14015
562.63        20.16616
563.06        20.23703
563.50        20.34141
563.93        20.44165
564.37         20.5303
564.80        20.60719
565.24        20.62986
565.68          20.572
566.11        20.83861
566.55        20.68935
566.98        20.74046
567.42         20.8082
567.85        20.93173
568.29        21.11613
568.72        21.35748
569.16        21.64172
569.60        21.82635
570.03        21.97862
570.47        22.09413
570.90        22.20665
571.34        22.18307
571.77        22.32385
572.21        22.40753
572.64        22.46676
573.08        22.57895
573.51        22.74037
573.95         22.7881
574.38        22.79005
574.82        22.98263
575.25          22.998
575.69        23.08223
576.12         23.1098
576.56        23.09763
576.99        23.15256
577.42        23.02702
577.86        23.35596
578.29        23.55623
578.73        23.38281
579.16        23.28685
579.60        23.13346
580.03        23.15511
580.47         23.0421
580.90        23.21435
581.33        23.12078
581.77        23.24168
582.20         22.8378
582.64        22.77586
583.07        22.79331
583.51        22.74195
583.94        22.65078
584.37        22.52226
584.81         22.3877
585.24        22.29026
585.68        22.27229
586.11        22.02179
586.54        22.07605
586.98        21.91669
587.41        21.85299
587.85        21.83419
588.28         21.6213
588.71        21.82833
589.15        21.65138
589.58         21.6389
590.01        21.65671
590.45        21.70594
590.88        21.76775
591.31        21.68651
591.75        21.55667
592.18        21.45064
592.61        21.35835
593.05        21.91047
593.48         22.1255
593.91         21.8223
594.35        21.88954
594.78        21.81428
595.21        21.94832
595.65        22.12883
596.08        22.38202
596.51        22.52011
596.94        22.46996
597.38        22.57091
597.81        22.80239
598.24         23.0982
598.68        23.17661
599.11        23.42304
599.54        23.72766
599.97        23.64583
600.41        24.00585
600.84        24.05627
601.27        24.40207
601.70         24.7087
602.14        25.03342
602.57        25.36653
603.00         25.7414
603.43        25.74063
603.87        26.35999
604.30        26.66105
604.73        26.94149
605.16        27.07616
605.60        27.40869
606.03        27.71266
606.46         28.0412
606.89        28.26966
607.32        28.66689
607.76        28.97921
608.19        29.27799
608.62        29.57533
609.05        29.91052
609.48        30.16992
609.92        30.74259
610.35        30.89514
610.78        30.92931
611.21        31.13687
611.64        31.48485
612.07        31.87873
612.50         32.0803
612.94        32.33376
613.37        32.57781
613.80        32.63368
614.23        32.56218
614.66        32.78355
615.09        33.28594
615.52        33.62919
615.96        33.74765
616.39         34.1264
616.82        34.44991
617.25        34.41895
617.68        34.68046
618.11        34.85701
618.54        35.06595
618.97         35.2592
619.40        35.40794
619.84        35.67719
620.27        35.71459
620.70        35.93208
621.13         36.1534
621.56        35.95078
621.99        35.46762
622.42        35.45516
622.85        35.87848
623.28        36.07627
623.71        36.04557
624.14        35.92192
624.57        36.31746
625.00        36.23713
625.43        36.30737
625.86        36.18738
626.29        36.03249
626.72        36.00724
627.15        35.89423
627.58        35.84747
628.01         35.7586
628.44        35.62647
628.87        35.44958
629.30        35.09462
629.73        34.86751
630.16        34.59873
630.59        34.38139
631.02        34.19019
631.45        34.01117
631.88        33.81786
632.31        33.59549
632.74        33.35261
633.17        33.08032
633.60        32.76578
634.03        32.41052
634.46         32.0158
634.89        31.60233
635.32        31.21219
635.75        30.85898
636.18        30.50443
636.61        30.14925
637.04         29.8078
637.47        29.47689
637.89        29.15121
638.32        28.82397
638.75        28.51477
639.18        28.22931
639.61        27.96321
640.04        27.71887
640.47        27.49653
640.90        27.29361
641.33        27.11365
641.76        26.94436
642.18        26.77021
642.61        26.58401
643.04        26.39293
643.47        26.22896
643.90        26.14305
644.33        26.14208
644.76        26.21133
645.18         26.3026
645.61        26.33044
646.04        26.28131
646.47        26.18455
646.90         26.0983
647.33        26.11259
647.75        26.24377
648.18        26.48501
648.61        26.82333
649.04        27.09296
649.47         27.2556
649.89        27.75663
650.32         27.8771
650.75        28.20856
651.18        28.53714
651.61        28.89962
652.03        29.28703
652.46        29.66077
652.89        30.04627
653.32        30.43853
653.74        30.82637
654.17        31.33076
654.60        31.48817
655.03        31.82375
655.46        32.15436
655.88        32.47841
656.31        33.84089
656.74        34.49231
657.16        36.00087
657.59        37.91589
658.02        35.78442
658.45        35.48902
658.87        35.37986
659.30        35.37941
659.73        35.61711
660.15        36.65689
660.58        36.14084
661.01        36.42291
661.44        36.80315
661.86        36.90089
662.29        36.74587
662.72        37.20703
663.14        37.55378
663.57        37.80779
664.00        37.81399
664.42        38.06295
664.85        38.57169
665.27        39.08999
665.70        39.49354
666.13        39.72681
666.55        39.76537
666.98        39.59171
667.41        39.31467
667.83        39.36368
668.26        39.38065
668.69        39.65259
669.11        39.99111
669.54        40.28225
669.96        40.48821
670.39        40.64157
670.82        40.77638
671.24        40.92611
671.67        41.09821
672.09        41.26325
672.52        41.41438
672.94        41.52365
673.37        41.59472
673.80        41.63999
674.22        41.69013
674.65        41.76607
675.07        41.88822
675.50        42.04261
675.92        42.21297
676.35        42.36557
676.77        42.49158
677.20        42.59429
677.62        42.69384
678.05        42.82151
678.47         42.9806
678.90        43.16367
679.32        43.33474
679.75        43.44642
680.17        43.48768
680.60        43.47837
681.02        43.46695
681.45        43.51963
681.87        43.66063
682.30        43.88292
682.72        44.14573
683.15        44.30865
683.57        44.37807
684.00        44.46721
684.42        44.60409
684.85        44.75159
685.27        44.90938
685.70         45.1208
686.12        45.34055
686.54        45.46855
686.97        45.49929
687.39        45.51016
687.82         45.5202
688.24        45.53132
688.66        45.55648
689.09        45.60883
689.51        45.69601
689.94        45.79463
690.36         45.9046
690.78        46.02005
691.21         46.1451
691.63        46.27899
692.06        46.41861
692.48        46.57113
692.90        46.71148
693.33        46.77439
693.75        46.74754
694.17         46.7135
694.60        46.67871
695.02        46.64263
695.44         46.9342
695.87        47.25277
696.29        47.59764
696.71        47.61072
697.14        47.36485
697.56        47.33408
697.98        47.54506
698.41        47.68984
698.83        47.72231
699.25        47.92517
699.68        48.20359
700.10        48.33933
700.52        48.28961
700.94        48.13257
701.37        47.97485
701.79        47.99194
702.21        48.21679
702.64        48.57808
703.06        48.98161
703.48        49.26244
703.90        49.37097
704.33        49.35928
704.75        49.28082
705.17        49.21521
705.59        49.19937
706.01        49.21188
706.44        49.26623
706.86        49.37711
707.28        49.52895
707.70        49.76147
708.12        50.05595
708.55        50.16629
708.97        50.38555
709.39         50.5103
709.81        50.62423
710.23        50.69691
710.66        50.72772
711.08        50.73466
711.50        50.71181
711.92        50.66841
712.34        50.61557
712.76         50.5696
713.19        50.52776
713.61         50.5098
714.03        50.51486
714.45        50.54758
714.87        50.63387
715.29        50.82029
715.71        51.10284
716.13        51.43682
716.56         51.7506
716.98        52.05264
717.40        52.18997
717.82        52.25655
718.24        52.21951
718.66        52.08027
719.08        51.86974
719.50        51.61532
719.92         51.3961
720.34        51.32678
720.76         51.4291
721.19        51.65314
721.61        51.96851
722.03        52.27614
722.45        52.52702
722.87        52.73657
723.29         52.8611
723.71        52.83818
724.13        52.67398
724.55        52.39172
724.97        52.09615
725.39         51.9669
725.81        52.04916
726.23        52.28183
726.65        52.57527
727.07        52.89452
727.49        53.00347
727.91        53.09027
728.33        53.14534
728.75        53.25488
729.17        53.43381
729.59        53.64116
730.01        53.82753
730.43        53.91922
730.85        53.89954
731.27         53.7997
731.69        53.66329
732.10        53.55246
732.52        53.49025
732.94        53.47622
733.36        53.51682
733.78        53.51393
734.20        53.44825
734.62        53.53917
735.04        53.85386
735.46         53.4924
735.88        54.03698
736.30        54.18528
736.72        54.39011
737.13        54.55357
737.55        54.61771
737.97        54.76822
738.39        54.92183
738.81        54.60115
739.23        53.98911
739.65        54.03656
740.06        54.63641
740.48        54.90479
740.90        54.78755
741.32        54.74384
741.74        54.92143
742.16        55.03822
742.57        55.12704
742.99        55.22136
743.41        55.29841
743.83        55.30935
744.25        55.25139
744.67        55.12989
745.08        55.01633
745.50        55.01042
745.92        55.13746
746.34        55.35938
746.75        55.59347
747.17        55.69535
747.59        55.63977
748.01        55.47328
748.42         55.2692
748.84        55.16481
749.26        55.19777
749.68         55.2662
750.09        55.33875
750.51        55.50205
750.93        55.66076
751.35        55.55993
751.76        55.26615
752.18        55.07712
752.60        54.99977
753.01         55.1519
753.43        55.03931
753.85        55.00324
754.27        55.01011
754.68        55.15649
755.10         55.2394
755.52        55.29163
755.93        55.28218
756.35        55.44117
756.77        55.78419
757.18        55.98484
757.60         56.0195
758.02        56.33058
758.43        56.79605
758.85        56.14272
759.26        56.03892
759.68        55.39587
760.10        55.16252
760.51        55.73441
760.93        56.73077
761.34        56.21432
761.76        56.40025
762.18        56.23512
762.59        56.49711
763.01         56.7007
763.42        56.85416
763.84        57.02045
764.26        57.10925
764.67        56.92179
765.09        56.60241
765.50        56.38891
765.92        56.37079
766.33        56.58029
766.75        56.86065
767.16        56.84767
767.58        56.53234
768.00         56.3687
768.41        56.45861
768.83        56.66969
769.24         56.8656
769.66        56.93365
770.07        56.81549
770.49        56.36964
770.90        55.86526
771.32        56.31319
771.73        57.47903
772.15        57.95045
772.56        57.62906
772.97        57.17948
773.39        56.85129
773.80        56.94204
774.22        57.40391
774.63        57.74006
775.05        57.79327
775.46        57.84275
775.88        57.83286
776.29        57.55708
776.70        57.15026
777.12        56.99745
777.53        57.16997
777.95        57.51369
778.36        57.91158
778.77        58.13963
779.19        58.14498
779.60        58.02393
780.02         57.8214
780.43        57.66505
780.84        57.61826
781.26        57.41943
781.67        57.18371
782.09        57.59969
782.50        58.42699
782.91        58.44603
783.33        57.75038
783.74        57.53241
784.15        57.83702
784.57        58.08458
784.98        58.20329
785.39        58.09543
785.81        57.88591
786.22        58.19269
786.63        58.89065
787.04         59.1797
787.46        59.01686
787.87         58.8214
788.28        58.70079
788.70        58.62033
789.11        58.59966
789.52        58.68848
789.93          58.831
790.35        58.90027
790.76        58.88968
791.17        58.85109
791.58        58.83754
792.00        58.85709
792.41        58.88496
792.82        58.98929
793.23        59.06458
793.65        58.64209
794.06        58.00079
794.47        58.12419
794.88        58.82698
795.29        59.61369
795.71        59.14697
796.12        59.24487
796.53        59.53901
796.94        59.45259
797.35        59.07047
797.76         59.0977
798.18        59.49813
798.59        59.66349
799.00         59.5435
799.41        59.48486
799.82        59.52214
800.23        59.54924
800.64        59.56516
801.06        59.56802
801.47        59.56431
801.88        59.48648
802.29        59.32696
802.70        59.10689
803.11         58.8718
803.52        58.69717
803.93        58.62585
804.34        58.65211
804.75        58.76744
805.17        59.00329
805.58        59.38031
805.99        59.66159
806.40        59.85424
806.81        60.44164
807.22        61.17958
807.63        60.99484
808.04         60.0455
808.45        59.53905
808.86        59.59315
809.27        59.57629
809.68        59.43061
810.09        59.36451
810.50        59.37328
810.91        59.40096
811.32        59.48955
811.73        59.72294
812.14        60.08102
812.55        60.47266
812.96        60.79745
813.37        60.92206
813.78        60.80169
814.19        60.48638
814.60        60.05725
815.01        59.62994
815.42        59.24634
815.83        58.87722
816.24        58.60476
816.65        58.58128
817.05        58.84025
817.46        59.31445
817.87        59.85326
818.28        60.18002
818.69        60.23545
819.10        60.07438
819.51        59.83922
819.92        59.83817
820.33        60.15097
820.74        60.55923
821.14        60.93807
821.55        61.35332
821.96        61.62616
822.37        61.23732
822.78        60.36996
823.19        59.88405
823.60        59.90813
824.00         60.0266
824.41        60.11227
824.82        60.22151
825.23        60.30319
825.64        60.36136
826.04        60.39152
826.45        60.34182
826.86        60.22649
827.27        60.06337
827.68        59.90157
828.08        59.85307
828.49        59.90102
828.90        60.03037
829.31        60.22999
829.72         60.4786
830.12        60.76963
830.53        61.04957
830.94        61.24495
831.35        61.19356
831.75        60.89078
832.16        60.38379
832.57         59.8329
832.97        59.47378
833.38        59.37673
833.79        59.46016
834.20        59.68951
834.60        59.99883
835.01        60.34415
835.42        60.77737
835.82        61.18483
836.23        61.30079
836.64        61.10405
837.04        60.62917
837.45        60.14987
837.86         60.1777
838.26        60.82729
838.67        61.91241
839.08        63.02636
839.48        63.39679
839.89        62.82468
840.29        61.60381
840.70        60.27882
841.11        59.46252
841.51        59.32861
841.92        59.67629
842.33        60.33942
842.73        61.02434
843.14        61.49968
843.54        61.88446
843.95        62.19453
844.35        62.50515
844.76        62.80857
845.17         63.0425
845.57        63.13772
845.98        62.98407
846.38        62.60244
846.79        62.05379
847.19        61.48107
847.60        61.08395
848.00         60.9263
848.41        60.92721
848.81        61.04045
849.22        61.10306
849.62         61.0937
850.03        61.05499
850.43         60.9683
850.84        60.74161
851.24        60.42109
851.65        59.97047
852.05        59.62485
852.46        59.72737
852.86        60.32388
853.27        61.20967
853.67        62.04012
854.07        62.56914
854.48        62.64207
854.88        62.11332
855.29        61.17194
855.69        60.55652
856.10        60.39257
856.50        60.45068
856.90        60.59203
857.31        60.68562
857.71        60.70645
858.12        60.65466
858.52        60.60161
858.92        60.54673
859.33        60.48595
859.73        60.44555
860.13        60.37539
860.54        60.22879
860.94        60.04165
861.34         59.8168
861.75        59.63799
862.15        59.67511
862.55        59.93019
862.96        60.31584
863.36        60.72504
863.76         60.8997
864.17        60.76484
864.57        60.44234
864.97        59.98641
865.38        59.49509
865.78        59.04798
866.18        58.60094
866.58        58.28823
866.99        58.33663
867.39         58.7846
867.79        59.56138
868.19        60.38535
868.60        60.79908
869.00        60.73444
869.40        60.27545
869.80        59.68851
870.21        59.50327
870.61         59.9125
871.01        60.66437
871.41        61.43387
871.81        61.77475
872.22        61.58644
872.62        61.02197
873.02         60.2635
873.42        59.61391
873.82        59.20473
874.22        58.95708
874.63        58.81907
875.03        58.73033
875.43        58.64408
875.83        58.59503
876.23        58.59497
876.63         58.6428
877.03        58.74124
877.44        58.85999
877.84        58.96081
878.24        59.02864
878.64        59.01043
879.04        58.73813
879.44        58.42145
879.84        58.51691
880.24        59.04682
880.64        59.82983
881.04        60.50434
881.44        60.50486
881.84         59.7261
882.24         58.3814
882.65        56.93568
883.05        56.10419
883.45        56.08075
883.85         56.6771
884.25        57.57631
884.65        58.22208
885.05        58.42718
885.45        58.34808
885.85        58.17521
886.25        58.20205
886.65        58.49469
887.05        58.91795
887.45        59.31549
887.85         59.4587
888.25        59.28537
888.65        58.89487
889.04        58.41359
889.44        58.04568
889.84        57.84675
890.24        57.77155
890.64         57.7681
891.04        57.75188
891.44        57.69691
891.84        57.63673
892.24        57.60809
892.64        57.65393
893.04        57.78624
893.44        57.99598
893.83        58.24583
894.23        58.43137
894.63        58.54422
895.03        58.58383
895.43        58.63998
895.83        58.86697
896.23        59.27162
896.63        59.78304
897.02        60.20881
897.42        60.27146
897.82        59.92258
898.22        59.29135
898.62        58.57026
899.01        58.03706
899.41        57.78846
899.81        57.73545
900.21        57.82749
900.61        57.97849
901.00        58.13447
901.40        58.31187
901.80        58.45726
902.20        58.47387
902.59        58.36001
902.99        58.14075
903.39          57.872
903.79        57.65685
904.18        57.52374
904.58         57.4383
904.98        57.45381
905.38        57.65322
905.77         58.0291
906.17        58.57964
906.57         59.0843
906.96        59.17781
907.36        58.78123
907.76        58.00468
908.15        57.22191
908.55        57.01287
908.95        57.50539
909.34        58.53557
909.74        59.65145
910.14        60.17492
910.53        59.90163
910.93        59.07276
911.33        58.02385
911.72        57.26332
912.12        56.99832
912.52        57.07138
912.91        57.31694
913.31        57.50244
913.70        57.56105
914.10        57.54786
914.49        57.61537
914.89        57.93079
915.29        58.52652
915.68        59.31145
916.08        60.00294
916.47        60.20935
916.87        59.87159
917.26        59.12696
917.66         58.3191
918.05        57.83626
918.45        57.78174
918.84        58.06936
919.24        58.51349
919.64        58.90674
920.03        59.15566
920.42        59.27969
920.82         59.3384
921.21        59.37025
921.61        59.37547
922.00        59.36006
922.40         59.2401
922.79        59.02615
923.19        58.71933
923.58        58.37148
923.98        58.09347
924.37         57.9832
924.77        58.06826
925.16        58.28296
925.55        58.55527
925.95        58.73761
926.34        58.78735
926.74        58.71944
927.13        58.53584
927.52         58.1848
927.92        57.73827
928.31        57.22823
928.70        56.79288
929.10        56.61205
929.49        56.71308
929.89        57.00134
930.28        57.50465
930.67        58.15476
931.07         58.8549
931.46        59.65773
931.85        60.29006
932.24         60.3702
932.64        59.88518
933.03         58.9184
933.42        57.92658
933.82        57.57835
934.21        58.00517
934.60        59.06717
934.99        60.30777
935.39        60.89194
935.78        60.62191
936.17        59.67182
936.56        58.52026
936.96        57.90972
937.35        58.02619
937.74        58.64442
938.13        59.33912
938.53        59.46635
938.92        58.88803
939.31        57.85271
939.70         56.7674
940.09        56.19357
940.49        56.23868
940.88        56.76596
941.27        57.49737
941.66        57.93056
942.05        57.91344
942.44        57.61465
942.84        57.30045
943.23        57.37273
943.62          57.919
944.01        58.74353
944.40        59.62862
944.79        60.25235
945.18         60.4837
945.57        60.40993
945.97        60.01832
946.36        59.40276
946.75        58.62438
947.14        57.74124
947.53        56.90567
947.92        56.31384
948.31        56.01477
948.70        55.97953
949.09         56.1717
949.48         56.5019
949.87        56.90237
950.26        57.35372
950.65        57.77625
951.04        58.05575
951.43        58.15281
951.82        58.07925
952.21        57.86058
952.60        57.56286
952.99        57.24342
953.38        56.92086
953.77        56.67077
954.16        56.60284
954.55         56.7232
954.94        56.97906
955.33        57.30349
955.72        57.56396
956.11         57.6968
956.50        57.74428
956.89        57.62097
957.28        57.20401
957.66        56.51881
958.05        55.66742
958.44        54.91711
958.83        54.65219
959.22        54.92486
959.61        55.62156
960.00        56.48025
960.39        56.99463
960.78        56.98346
961.16        56.57941
961.55        56.00464
961.94        55.53198
962.33        55.26208
962.72        55.13915
963.11        55.12149
963.49        55.17198
963.88        55.20923
964.27        55.24841
964.66        55.39973
965.04        55.84587
965.43        56.55076
965.82        57.50362
966.21        58.32602
966.60        58.31846
966.98        57.32983
967.37        55.67955
967.76        54.03467
968.15        53.23642
968.53        53.43153
968.92        54.42131
969.31        55.72495
969.69         56.3658
970.08        55.96855
970.47        54.87887
970.86        53.72913
971.24        53.40643
971.63        54.09975
972.02        55.54983
972.40        57.28092
972.79        58.13086
973.17        57.77729
973.56        56.61111
973.95         55.2431
974.33        54.45111
974.72        54.42033
975.11        54.89875
975.49        55.63179
975.88         56.1003
976.26        56.14963
976.65         55.9133
977.04        55.57953
977.42        55.38904
977.81        55.38073
978.19        55.44801
978.58        55.60725
978.96        55.85427
979.35        56.14625
979.74        56.51236
980.12        56.92347
980.51        57.10283
980.89        57.10965
981.28         56.9789
981.66         56.8551
982.05        56.92648
982.43        57.24161
982.82         57.6938
983.20        58.33541
983.59        59.16106
983.97        60.16475
984.35        61.31842
984.74        62.17942
985.12        62.25481
985.51        61.42213
985.89        59.90478
986.28        58.35657
986.66        57.68063
987.04        58.13279
987.43        59.43105
987.81        61.10719
988.20        62.12515
988.58        62.10609
988.96        61.26738
989.35        59.97131
989.73        58.73875
990.12        57.72131
990.50        56.82288
990.88        55.88369
991.27        54.71771
991.65         53.3829
992.03        52.06097
992.42        51.14161
992.80        51.08651
993.18        51.95377
993.56        53.61479
993.95        55.50449
994.33        56.67599
994.71        56.69905
995.10        55.90527
995.48        54.85301
995.86        54.50342
996.24        55.08859
996.63        56.19024
997.01        57.64825
997.39        58.79763
997.77        59.29043
998.15        59.44826
998.54        59.12052
998.92        57.94356
999.30        56.12615
999.68        53.85636
1000.06        52.01165
1000.45        51.84927
1000.83        53.66581
1001.21        57.19446
1001.59        61.58076
1001.97        64.60242
1002.35        65.26186
1002.73        64.18227
1003.12        62.28349
1003.50        60.68924
1003.88        59.85421
1004.26        59.29467
1004.64        59.22729
1005.02        60.09472
1005.40        61.83403
1005.78        64.42567
1006.16        66.78616
1006.54        67.13822
1006.92         65.3104
1007.30        61.95589
1007.69        58.47451
1008.07         56.7146
1008.45        57.25631
1008.83        59.59299
1009.21        63.03933
1009.59        65.77679
1009.97        66.70917
1010.35        66.29308
1010.73        64.74235
1011.11        62.40777
1011.49        59.74786
1011.86         56.8797
1012.24        54.34001
1012.62        52.80904
1013.00        52.35408
1013.38        52.78908
1013.76        54.05391
1014.14        55.73632
1014.52        57.43575
1014.90        59.15943
1015.28        60.34241
1015.66        60.35199
1016.04        59.18874
1016.41        56.90009
1016.79        54.42092
1017.17        53.58342
1017.55        54.81821
1017.93        57.59091
1018.31        60.58557
1018.69         61.9011
1019.06        61.13241
1019.44        58.66185
1019.82        55.46787
1020.20        53.94234
1020.58        54.92711
1020.95        57.34817
1021.33        59.95136
1021.71         61.2074
1022.09        60.89925
1022.46        59.71098
1022.84        57.68719
1023.22        55.27535
1023.60        53.13422
1023.97        51.03903
1024.35        50.12122
1024.73        51.61398
