SpectraSmart Spectrum 2.9.0.0
--------- Device Information -----------
Spectrum Name :  反射率_0
Saving Time :  2024/04/26 22:58:28
Spectro-Module Model Name : SE2030-DUVN
Spectro-Module Serial Number : OS361AC55029948
Wavelength Start : 200
Wavelength End : 1025
Wavelength Unit : Wavelength(nm)
Spectrum Unit : Reflectance(%)
-----------Spectrum Setting ------------
Integration Time : 20ms
Average : 10
Boxcar : 0
Background removal :  enabled
linearity correction :  enabled
SC :  disabled
Intensity correction :  disabled
DWT denoise :  enabled
savitzky-golay :  disabled
FFT :  disabled
Running average :  disabled
Kalman :  disabled
High pass :  disabled
---------------BEGIN--------------------
Wavelength(nm)             Reflectance(%)
200.29               0
200.75        38.88835
201.21        40.44234
201.67        42.59519
202.13        44.25823
202.58        45.32482
203.04        46.73761
203.50         48.7059
203.96        50.93466
204.42        53.13327
204.88        54.77985
205.34        56.27061
205.80        58.89608
206.26        62.28334
206.72        65.11799
207.18        66.80207
207.64        67.02207
208.10        65.86486
208.55        63.99282
209.01        59.89613
209.47        53.50813
209.93        48.16831
210.39        45.38235
210.85        45.15529
211.31        47.47209
211.77        53.16338
212.23        66.31464
212.69        100.2379
213.14        162.3112
213.60        168.2545
214.06        131.3122
214.52        103.0221
214.98        87.61902
215.44        77.78755
215.90        68.51445
216.36         61.1427
216.81        58.93476
217.27        63.29041
217.73        76.18982
218.19        95.25318
218.65        102.3495
219.11        91.13806
219.57        73.96759
220.02        62.40688
220.48        62.17064
220.94        72.32942
221.40         93.5463
221.86        125.9404
222.32        150.5979
222.77        148.3721
223.23        130.8158
223.69        111.2474
224.15         97.6347
224.61        89.62331
225.06         83.9776
225.52        80.84314
225.98        80.08472
226.44        81.21297
226.90        84.20641
227.36        87.78907
227.81         89.5088
228.27        89.05737
228.73        87.05135
229.19        85.11215
229.65        85.24055
230.10        87.46813
230.56        91.10873
231.02        94.58888
231.48         95.4817
231.93        93.40846
232.39        89.86772
232.85        86.28941
233.31         84.5479
233.77        84.82172
234.22         86.3573
234.68        88.35959
235.14        89.69427
235.60        89.93318
236.05        89.52964
236.51        88.32349
236.97        86.28262
237.43        83.63758
237.88        80.53197
238.34        77.62109
238.80        76.23937
239.26         76.8548
239.71        79.98399
240.17        85.11067
240.63        90.71126
241.08        95.59496
241.54         98.9151
242.00        101.6108
242.46        106.4807
242.91        116.0708
243.37        131.0652
243.83        151.4104
244.28        166.9131
244.74         162.872
245.20          140.76
245.66        116.1163
246.11         101.174
246.57        96.01507
247.03        96.92387
247.48        99.00526
247.94        94.96935
248.40        86.17905
248.85        77.02744
249.31        70.59462
249.77         67.9256
250.22        68.25233
250.68        70.69641
251.14        74.53072
251.59        76.99055
252.05        76.67447
252.51        75.36298
252.96        73.24695
253.42        70.93066
253.88        68.76665
254.33        66.33262
254.79        65.89032
255.25        69.19259
255.70        75.64803
256.16        84.36718
256.62        91.74001
257.07         92.2474
257.53        87.57707
257.99        81.29229
258.44        76.06482
258.90        74.45667
259.35        75.28782
259.81        77.60654
260.27        80.07692
260.72        81.13383
261.18        80.90071
261.63        79.70556
262.09         78.4989
262.55        77.61748
263.00        76.97827
263.46         76.5919
263.91        75.99844
264.37        75.09784
264.83        73.85651
265.28        72.39217
265.74        71.16043
266.19        70.29346
266.65        69.89526
267.11        69.73606
267.56        69.65948
268.02        69.44342
268.47        68.99383
268.93        68.42998
269.38        67.67386
269.84        66.69707
270.30        65.51434
270.75        64.13156
271.21        62.82019
271.66        61.90628
272.12        61.44582
272.57        61.29342
273.03        61.16345
273.48        60.56272
273.94        59.46643
274.39        58.00613
274.85        56.52659
275.31        55.30188
275.76         54.3721
276.22        53.70107
276.67         53.1294
277.13        52.58942
277.58        51.96455
278.04        51.32255
278.49        50.62941
278.95        49.99672
279.40        49.35878
279.86        48.77896
280.31        48.09085
280.77        47.23289
281.22        46.15914
281.68        45.01688
282.13        43.92818
282.59        43.18882
283.04        42.77361
283.50        42.62564
283.95        42.54174
284.41        42.23705
284.86        41.64624
285.32        40.90597
285.77        40.16682
286.22        39.72289
286.68        39.61053
287.13        39.67361
287.59        39.77032
288.04        39.62498
288.50        39.21743
288.95        38.61795
289.41        37.96532
289.86        37.36577
290.32        36.90849
290.77        36.52892
291.22        36.24744
291.68        36.07671
292.13        35.99066
292.59        36.01014
293.04        36.09549
293.50        36.20577
293.95        36.31548
294.40        36.43492
294.86        36.58157
295.31        36.77511
295.77        37.03336
296.22        37.34049
296.68        37.69642
297.13        38.07895
297.58        38.49044
298.04        38.93509
298.49        39.41739
298.95        39.96632
299.40        40.56188
299.85        41.18106
300.31        41.78315
300.76        42.29298
301.21        42.69798
301.67         43.0335
302.12        43.29605
302.58        43.55528
303.03        43.79895
303.48        44.03666
303.94        44.28851
304.39        44.53532
304.84        44.79012
305.30        45.06997
305.75        45.33041
306.20        45.56745
306.66        45.78607
307.11        45.96192
307.57        46.11938
308.02        46.23495
308.47        46.32003
308.93        46.38489
309.38        46.41158
309.83        46.43511
310.29        46.46085
310.74        46.47532
311.19        46.46101
311.65        46.38189
312.10        46.22855
312.55        46.01701
313.00        45.79029
313.46         45.6084
313.91        45.46877
314.36         45.3667
314.82        45.26134
315.27        45.10139
315.72        44.87169
316.18        44.60126
316.63        44.31831
317.08        44.08685
317.53        43.91695
317.99        43.77845
318.44        43.64293
318.89        43.45181
319.35        43.19016
319.80        42.87948
320.25        42.54158
320.70         42.2106
321.16        41.89907
321.61        41.61504
322.06        41.35261
322.51        41.10622
322.97        40.86879
323.42        40.64491
323.87        40.45108
324.32        40.32059
324.78        40.23454
325.23        40.19716
325.68        40.12134
326.13        39.87901
326.59        39.45123
327.04        38.89994
327.49        38.32865
327.94        37.90287
328.39        37.66078
328.85        37.54005
329.30        37.51286
329.75        37.44796
330.20        37.30275
330.66        37.10878
331.11        36.90317
331.56         36.7135
332.01        36.55145
332.46        36.39085
332.92        36.21404
333.37        36.06149
333.82        35.91687
334.27        35.78429
334.72        35.65141
335.17         35.4883
335.63        35.29198
336.08        35.10264
336.53        34.93472
336.98        34.82417
337.43        34.77978
337.88        34.77178
338.34        34.81236
338.79        34.96026
339.24        35.18679
339.69        35.46855
340.14        35.67608
340.59        35.60627
341.05        35.24453
341.50        34.66664
341.95          34.051
342.40        33.67082
342.85        33.59391
343.30        33.73622
343.75        33.99501
344.20        34.19571
344.66        34.27558
345.11        34.28503
345.56         34.2287
346.01         34.1149
346.46        33.96382
346.91        33.76723
347.36        33.57366
347.81        33.47056
348.26        33.47226
348.72        33.55752
349.17        33.67277
349.62        33.74054
350.07        33.73634
350.52        33.68576
350.97        33.59569
351.42        33.48047
351.87         33.3548
352.32        33.21444
352.77        33.09059
353.22         33.0296
353.67        33.03426
354.13        33.09045
354.58        33.15317
355.03        33.14564
355.48        33.04504
355.93        32.86901
356.38        32.65929
356.83        32.47978
357.28        32.34353
357.73        32.23067
358.18        32.10384
358.63        31.90615
359.08        31.63198
359.53        31.31018
359.98        30.98755
360.43        30.72652
360.88        30.53805
361.33         30.4003
361.78         30.2787
362.23        30.11979
362.68        29.91207
363.13        29.67699
363.58        29.43565
364.03        29.21847
364.48         29.0328
364.93         28.8631
365.38        28.70765
365.83        28.56747
366.28        28.43818
366.73        28.32021
367.18        28.19345
367.63        28.02449
368.08        27.80912
368.53        27.55913
368.98        27.30197
369.43        27.08135
369.88        26.90987
370.33        26.77681
370.78        26.66495
371.23        26.54605
371.68        26.40947
372.13        26.25999
372.58        26.10886
373.03        25.97272
373.48        25.85302
373.93        25.74324
374.38         25.6213
374.83        25.45505
375.28        25.24381
375.72        24.99777
376.17        24.76908
376.62        24.60321
377.07        24.51111
377.52        24.47823
377.97        24.47366
378.42        24.44921
378.87        24.38742
379.32        24.29313
379.77        24.18999
380.22        24.11342
380.67        24.06528
381.11        24.03945
381.56        23.97856
382.01         23.8183
382.46        23.56054
382.91        23.24788
383.36        22.95366
383.81        22.77165
384.26         22.7155
384.71        22.75397
385.15        22.83955
385.60        22.89305
386.05        22.88485
386.50        22.83343
386.95        22.75423
387.40        22.67479
387.85        22.60387
388.29        22.51508
388.74        22.43225
389.19         22.3367
389.64         22.2267
390.09        22.10847
390.54        21.98758
390.98        21.86666
391.43         21.7652
391.88         21.6818
392.33        21.61724
392.78        21.57123
393.23        21.54025
393.67        21.50967
394.12        21.49708
394.57        21.48703
395.02        21.47318
395.47        21.44805
395.91        21.40991
396.36        21.34595
396.81        21.27073
397.26         21.1981
397.71        21.12499
398.15        21.05828
398.60        21.02712
399.05        20.94186
399.50        20.84794
399.95        20.96614
400.39        21.23083
400.84        21.24955
401.29        21.02238
401.74         20.8851
402.18        20.85499
402.63        20.72355
403.08        20.52795
403.53        20.41968
403.97        20.41361
404.42        20.47268
404.87        20.54935
405.32        20.56259
405.76        20.49118
406.21        20.37194
406.66        20.25102
407.11        20.20279
407.55        20.24878
408.00        20.35237
408.45        20.47286
408.90        20.52921
409.34        20.49419
409.79        20.39837
410.24        20.27674
410.68        20.17136
411.13        20.10076
411.58        20.04983
412.03        20.00817
412.47        19.96363
412.92        19.90785
413.37        19.85661
413.81        19.81499
414.26        19.80448
414.71        19.82006
415.15        19.85963
415.60        19.90358
416.05        19.93806
416.49        19.95753
416.94        19.96116
417.39        19.95601
417.83        19.95234
418.28        19.95225
418.73        19.94979
419.17        19.94515
419.62        19.93971
420.07        19.93398
420.51        19.92539
420.96        19.91345
421.41        19.89137
421.85        19.85286
422.30        19.79508
422.74        19.72091
423.19        19.72349
423.64         19.7753
424.08        19.75028
424.53        19.65404
424.98        19.64978
425.42        19.75575
425.87        19.83134
426.31        19.86112
426.76        19.96722
427.21        20.08395
427.65        19.93945
428.10        19.61989
428.54        19.46708
428.99        19.51634
429.44         19.6604
429.88         19.8154
430.33        19.77293
430.77        19.58385
431.22        19.63706
431.66        19.90025
432.11        19.99885
432.56        19.92947
433.00        19.90076
433.45        19.87765
433.89        19.83752
434.34        19.85573
434.78        19.43923
435.23        19.70993
435.67         19.7163
436.12        19.73962
436.57        19.64136
437.01        19.46444
437.46          19.383
437.90        19.40581
438.35        19.43334
438.79        19.43275
439.24        19.42102
439.68        19.38884
440.13        19.33357
440.57        19.28374
441.02        19.28273
441.46        19.33103
441.91        19.42218
442.35        19.50546
442.80        19.56693
443.24         19.5839
443.69        19.56631
444.13        19.52571
444.58        19.50408
445.02        19.50539
445.47        19.51861
445.91        19.53352
446.36        19.54353
446.80        19.54187
447.24        19.53478
447.69        19.52823
448.13        19.52187
448.58        19.52043
449.02        19.51704
449.47        19.51383
449.91        19.50517
450.36        19.49597
450.80        19.48536
451.25        19.47598
451.69        19.45909
452.13        19.43685
452.58        19.40552
453.02         19.3771
453.47        19.37415
453.91         19.3981
454.36        19.44582
454.80        19.48162
455.24        19.44779
455.69        19.34367
456.13        19.17824
456.58        19.02291
457.02        18.95317
457.46        18.99161
457.91        19.11209
458.35        19.24253
458.79        19.27408
459.24        19.20121
459.68        19.04949
460.13        18.90504
460.57        18.84908
461.01        18.91237
461.46        19.04477
461.90        19.20822
462.34        19.32493
462.79        19.36057
463.23        19.34756
463.68         19.2797
464.12        19.16037
464.56        19.00522
465.01        18.84551
465.45        18.69648
465.89        18.63036
466.34        18.65239
466.78        18.73717
467.22        18.86199
467.67        18.96392
468.11         19.0296
468.55        19.06565
468.99        19.07175
469.44        19.04832
469.88        19.00385
470.32        18.93572
470.77        18.87117
471.21        18.85965
471.65        18.90735
472.10        19.00266
472.54        19.10848
472.98        19.17018
473.42         19.1738
473.87        19.14309
474.31        19.08707
474.75        19.03898
475.20        19.01462
475.64        18.99672
476.08        18.99318
476.52        19.00661
476.97        19.03534
477.41        19.08975
477.85        19.16114
478.29        19.20433
478.74        19.22849
479.18        19.28748
479.62        19.37257
480.06        19.43857
480.50        19.48699
480.95        19.51931
481.39        19.52227
481.83        19.66521
482.27        19.65809
482.72        19.73554
483.16        19.82227
483.60        19.88066
484.04        19.88925
484.48        20.00713
484.93        20.25725
485.37        20.07601
485.81         20.1341
486.25        20.45836
486.69        20.12391
487.14        20.36923
487.58        20.99971
488.02         20.7588
488.46        20.46012
488.90        20.75997
489.34        20.65049
489.79        20.95221
490.23        21.16434
490.67        21.27806
491.11        21.28462
491.55        21.31613
491.99        21.40368
492.43        21.46551
492.88        21.51293
493.32        21.59619
493.76        21.71081
494.20        21.84207
494.64        21.99578
495.08        22.13341
495.52        22.25659
495.96        22.51113
496.41        22.84401
496.85        22.90583
497.29        22.74692
497.73        22.97133
498.17         23.2513
498.61        23.46469
499.05        23.47746
499.49        23.48843
499.93        23.45906
500.37        23.53386
500.82        23.69239
501.26        23.82789
501.70        23.93187
502.14        24.08479
502.58        24.28133
503.02        24.46231
503.46        24.61621
503.90        24.75567
504.34        24.86606
504.78        24.92512
505.22        24.93297
505.66        24.89751
506.10        24.84806
506.54        24.83274
506.98        24.86586
507.42        24.93845
507.86        25.03565
508.30        25.12878
508.74        25.20806
509.18          25.282
509.62        25.35414
510.06        25.43073
510.50        25.51237
510.94        25.59086
511.38         25.6657
511.82         25.7388
512.26        25.80898
512.70        25.87737
513.14        25.93517
513.58        25.96776
514.02        25.97445
514.46        25.96022
514.90        25.94354
515.34        25.95424
515.78        25.99747
516.22        26.06292
516.66        26.12989
517.10        26.16423
517.54        26.15816
517.98        26.12495
518.42        26.07791
518.86        26.03851
519.30        26.01486
519.74        25.99889
520.18        25.99432
520.62        26.00661
521.06        26.03433
521.50        26.07873
521.93         26.1226
522.37        26.12756
522.81        26.09024
523.25        26.01713
523.69        25.93768
524.13        25.89968
524.57        25.90932
525.01        25.94831
525.45        25.98111
525.89        25.95009
526.32        25.84206
526.76        25.68906
527.20        25.51914
527.64         25.3771
528.08        25.27875
528.52        25.20915
528.96         25.1701
529.40        25.16424
529.83        25.18312
530.27        25.22587
530.71        25.26102
531.15        25.24016
531.59        25.15463
532.03        25.01704
532.46        24.85774
532.90         24.7447
533.34        24.69037
533.78        24.66439
534.22        24.64533
534.66        24.62896
535.09        24.58879
535.53        24.48065
535.97        24.33221
536.41        24.24842
536.85        24.24306
537.28        24.26542
537.72        24.30552
538.16        24.36613
538.60        24.43866
539.04        24.52026
539.47        24.60146
539.91        24.68361
540.35        24.76047
540.79        24.83271
541.22        24.89775
541.66        24.96211
542.10        25.02486
542.54        25.08524
542.97        25.14815
543.41         25.2316
543.85        25.33515
544.29        25.45899
544.72        25.58428
545.16        25.69882
545.60        25.79585
546.04         25.8834
546.47        25.98622
546.91        26.13867
547.35        26.34297
547.79        26.58756
548.22        26.83569
548.66        27.02694
549.10        27.18188
549.53        27.30356
549.97        27.42557
550.41        27.54004
550.84        27.68649
551.28        27.92568
551.72        28.20027
552.15        28.44182
552.59        28.66902
553.03        28.48332
553.46        28.77872
553.90        28.86594
554.34        29.00753
554.77        29.18433
555.21        29.38335
555.65        29.55918
556.08         29.6878
556.52        29.76936
556.96        29.81208
557.39        29.90868
557.83        30.04347
558.27        30.03682
558.70        29.92234
559.14        29.93541
559.57        30.06746
560.01        30.16901
560.45        30.22831
560.88        30.31731
561.32        30.44636
561.75        30.56794
562.19        30.68718
562.63        30.78612
563.06        30.86822
563.50        30.98492
563.93        31.09517
564.37         31.1751
564.80        31.23564
565.24        31.22806
565.68        31.11972
566.11        31.52275
566.55        31.31355
566.98        31.42414
567.42        31.55263
567.85        31.71807
568.29        31.92093
568.72        32.17645
569.16        32.50506
569.60        32.68579
570.03        32.82421
570.47        33.03437
570.90        33.37249
571.34        33.05067
571.77        33.52408
572.21        33.57895
572.64        33.62385
573.08        33.88833
573.51        34.02034
573.95        34.22094
574.38        34.38209
574.82        34.54679
575.25        34.31249
575.69        34.29755
576.12        34.37373
576.56        34.48351
576.99        34.70748
577.42        34.48157
577.86        34.74664
578.29         35.0773
578.73        34.79928
579.16        34.67575
579.60        34.38809
580.03        34.43809
580.47        34.40163
580.90        34.33194
581.33        34.39813
581.77        34.51907
582.20        34.21501
582.64        34.00795
583.07        34.04078
583.51         33.9481
583.94        33.89864
584.37        33.70404
584.81        33.40856
585.24        33.29803
585.68        33.39547
586.11        32.98942
586.54        32.91218
586.98        32.68532
587.41        32.58682
587.85        32.49409
588.28        32.42856
588.71        32.43835
589.15        32.28263
589.58        32.45538
590.01        32.36853
590.45        32.43564
590.88        32.47029
591.31        32.39536
591.75        32.29155
592.18        32.17331
592.61        32.06951
593.05        32.66349
593.48        32.97068
593.91         32.7772
594.35        33.00447
594.78        32.69549
595.21         32.5655
595.65        32.76944
596.08        33.40733
596.51        33.67867
596.94        33.46237
597.38        33.57878
597.81        34.00644
598.24         34.3143
598.68        34.53496
599.11        34.71676
599.54        35.17414
599.97        35.15469
600.41        35.81932
600.84        35.94154
601.27        36.37586
601.70        36.59911
602.14        37.08004
602.57        37.34834
603.00        37.61927
603.43         37.7882
603.87        38.83829
604.30        39.36809
604.73         39.5906
605.16        39.71277
605.60        40.13515
606.03        40.38718
606.46        40.58494
606.89        41.06038
607.32        41.89092
607.76        42.19932
608.19        42.69581
608.62        42.93893
609.05        43.22369
609.48        43.57527
609.92        44.58965
610.35         44.3913
610.78        44.53972
611.21        44.71496
611.64        45.16906
612.07        45.69576
612.50        45.96932
612.94        46.29334
613.37        46.54116
613.80        46.86239
614.23        46.64492
614.66        46.90205
615.09        47.42599
615.52        47.80611
615.96        47.97614
616.39        48.25335
616.82        48.67121
617.25        48.55603
617.68        48.82912
618.11         49.0358
618.54        49.41949
618.97        49.72782
619.40        49.91507
619.84        50.18211
620.27        50.08905
620.70        50.28453
621.13        50.55336
621.56        50.43885
621.99        50.02457
622.42        49.88392
622.85        50.07034
623.28         50.2634
623.71        50.40192
624.14        50.59972
624.57        50.64782
625.00        50.69748
625.43        50.66887
625.86        50.57265
626.29        50.46638
626.72        50.04702
627.15        50.17089
627.58        50.07209
628.01         49.9278
628.44        49.90841
628.87        49.60638
629.30        49.28703
629.73        48.84575
630.16        48.76096
630.59        48.36245
631.02        48.17579
631.45        47.97488
631.88        47.73079
632.31        47.42248
632.74        47.06833
633.17        46.67993
633.60        46.25216
634.03        45.79511
634.46        45.32443
634.89         44.8478
635.32        44.35638
635.75        43.87669
636.18        43.43197
636.61        43.03616
637.04        42.66771
637.47        42.31995
637.89        42.01499
638.32        41.70329
638.75        41.32738
639.18         40.8847
639.61        40.40278
640.04        39.93698
640.47        39.56898
640.90        39.31842
641.33        39.16477
641.76        39.06931
642.18        38.97187
642.61        38.84111
643.04        38.69706
643.47        38.56791
643.90        38.49965
644.33        38.49998
644.76         38.5509
645.18        38.61924
645.61        38.64296
646.04        38.62092
646.47        38.58657
646.90         38.5847
647.33        38.68216
647.75        38.88173
648.18         39.1776
648.61        39.57616
649.04        39.97235
649.47         40.2849
649.89        41.08656
650.32        41.26996
650.75        41.60952
651.18        41.86194
651.61        42.35682
652.03        43.06563
652.46         43.6825
652.89        44.19939
653.32        44.64001
653.74        45.06808
654.17        45.66253
654.60        46.33726
655.03        46.62041
655.46        46.78976
655.88        47.12359
656.31        48.61856
656.74        50.00465
657.16        51.57071
657.59        53.45137
658.02        50.92534
658.45        51.36539
658.87        51.06871
659.30         51.3993
659.73        51.37826
660.15        52.92092
660.58        52.20291
661.01        52.45525
661.44        52.68095
661.86        52.70446
662.29        52.57023
662.72        53.26701
663.14        53.71342
663.57        53.99552
664.00        53.89189
664.42        54.12695
664.85        54.72618
665.27        55.28798
665.70        55.68054
666.13        55.92939
666.55        56.01706
666.98        55.89153
667.41        55.63608
667.83         55.7493
668.26        55.69242
668.69          55.894
669.11        56.17067
669.54         56.4668
669.96        56.75158
670.39        57.13152
670.82         57.5374
671.24        57.60537
671.67         57.4262
672.09        57.51113
672.52         57.8573
672.94        58.04726
673.37        58.06062
673.80         58.0597
674.22        58.10416
674.65        58.22062
675.07        58.43391
675.50        58.68702
675.92        58.92664
676.35        59.09583
676.77         59.1801
677.20        59.16121
677.62        59.10313
678.05        59.17998
678.47         59.3826
678.90        59.53671
679.32        59.61934
679.75        59.73541
680.17        59.87448
680.60        59.96965
681.02         60.0403
681.45        60.15379
681.87        60.33148
682.30        60.52798
682.72        60.72915
683.15        60.92163
683.57        61.08169
684.00        61.10202
684.42        61.06186
684.85         61.1742
685.27        61.44838
685.70        61.83154
686.12        62.19497
686.54        62.30499
686.97        62.17254
687.39        62.02188
687.82        61.92657
688.24        61.93873
688.66        62.04928
689.09        62.10548
689.51        62.11408
689.94        62.24828
690.36        62.49142
690.78        62.58137
691.21        62.56094
691.63        62.75851
692.06        63.12456
692.48        63.28319
692.90         63.2126
693.33        63.18575
693.75        63.20437
694.17        63.07008
694.60        62.91957
695.02        62.99804
695.44        63.29977
695.87        63.93247
696.29         64.6656
696.71        64.41614
697.14        63.66953
697.56         63.4908
697.98        63.98628
698.41        64.16013
698.83        64.00535
699.25        64.16579
699.68        64.56135
700.10        64.79955
700.52        64.81451
700.94         64.7267
701.37        64.62541
701.79        64.66078
702.21        64.85934
702.64        65.14701
703.06        65.43581
703.48        65.57519
703.90         65.5291
704.33        65.35429
704.75         65.1327
705.17        64.98446
705.59        64.95654
706.01        65.01524
706.44         65.1433
706.86        65.33114
707.28        65.54746
707.70         65.7822
708.12        66.01784
708.55        66.23649
708.97        66.41652
709.39        66.49639
709.81        66.48772
710.23        66.48975
710.66         66.5148
711.08        66.52985
711.50        66.51569
711.92        66.48027
712.34        66.42989
712.76        66.37958
713.19        66.33321
713.61         66.3318
714.03        66.36996
714.45        66.44292
714.87         66.5665
715.29        66.75899
715.71        67.02903
716.13        67.34329
716.56        67.63068
716.98        67.88055
717.40        68.03781
717.82        68.03897
718.24        67.91547
718.66        67.89378
719.08        67.92445
719.50        67.64631
719.92        67.16876
720.34         66.9604
720.76        67.07877
721.19        67.32028
721.61        67.65057
722.03          67.993
722.45        68.28948
722.87        68.56618
723.29        68.75824
723.71        68.74558
724.13        68.52604
724.55        68.14996
724.97        67.73495
725.39        67.48105
725.81        67.45021
726.23         67.5748
726.65        67.79165
727.07        68.14051
727.49        68.33132
727.91         68.5808
728.33        68.81609
728.75        69.03278
729.17        69.21808
729.59        69.38513
730.01        69.50974
730.43        69.48831
730.85        69.35773
731.27        69.29856
731.69        69.31683
732.10        69.27053
732.52        69.16191
732.94        69.10673
733.36        69.11965
733.78        69.03406
734.20        68.84065
734.62        68.84312
735.04        69.14639
735.46        68.63889
735.88         69.3583
736.30          69.575
736.72        69.88091
737.13        70.24827
737.55        70.54617
737.97        70.82659
738.39        70.95075
738.81        70.38586
739.23        69.40215
739.65        69.27057
740.06        69.91357
740.48        70.19537
740.90        70.05251
741.32        70.16315
741.74        70.58128
742.16        70.86248
742.57        70.97699
742.99        71.07407
743.41        71.12496
743.83        70.92625
744.25        70.55961
744.67        70.35103
745.08        70.36657
745.50        70.40047
745.92        70.46604
746.34        70.71901
746.75        71.05362
747.17        71.18607
747.59        71.07539
748.01         70.8089
748.42        70.50585
748.84        70.33904
749.26        70.36717
749.68        70.57108
750.09        70.84348
750.51        70.97095
750.93        70.91081
751.35        70.77451
751.76        70.60704
752.18        70.45618
752.60        70.34309
753.01        70.27516
753.43        70.23135
753.85        70.20383
754.27        70.20039
754.68        70.24821
755.10        70.34262
755.52        70.46955
755.93        70.59969
756.35        70.69859
756.77        70.84658
757.18        70.99523
757.60        71.12675
758.02        71.63014
758.43        72.33158
758.85        71.45751
759.26        71.22125
759.68          70.467
760.10        70.08677
760.51        70.38147
760.93        71.25038
761.34        71.63765
761.76        72.24739
762.18         72.2056
762.59        71.92721
763.01        71.77182
763.42        71.89938
763.84        72.03999
764.26        72.13573
764.67        72.11452
765.09        72.00431
765.50        71.85409
765.92        71.73369
766.33        71.59167
766.75        71.39989
767.16        71.38393
767.58        71.40993
768.00        71.46725
768.41        71.55265
768.83        71.86129
769.24        72.24451
769.66        72.27146
770.07        71.98518
770.49        71.64861
770.90        71.46021
771.32        71.88303
771.73        72.71839
772.15        73.04023
772.56        72.78543
772.97        72.37655
773.39        71.97512
773.80        72.02811
774.22        71.96629
774.63         72.2953
775.05        72.65968
775.46        72.86672
775.88        72.82395
776.29        72.64381
776.70         72.4275
777.12        72.34416
777.53        72.44375
777.95        72.60399
778.36        72.81493
778.77        72.98386
779.19        73.09418
779.60        73.31931
780.02        73.51511
780.43        73.29886
780.84        72.82191
781.26        72.32932
781.67        72.07177
782.09        72.77866
782.50          74.066
782.91        74.16192
783.33         73.1576
783.74        72.79793
784.15        73.15273
784.57        73.13992
784.98        72.83481
785.39        72.80981
785.81        73.12338
786.22         73.7948
786.63        74.58705
787.04        74.86721
787.46        74.61765
787.87        74.28687
788.28         74.0554
788.70        73.88055
789.11        73.79504
789.52        73.99977
789.93        74.35023
790.35        74.31454
790.76        73.94093
791.17        73.79976
791.58        73.94447
792.00        73.93114
792.41        73.77448
792.82        73.92849
793.23        74.25065
793.65        74.01591
794.06        73.48798
794.47         73.5846
794.88        74.07501
795.29        75.13012
795.71        74.46291
796.12        74.05956
796.53        74.46735
796.94          74.225
797.35        73.83968
797.76        74.24126
798.18        75.23794
798.59        75.64989
799.00        75.33082
799.41        74.89535
799.82        74.52979
800.23        74.30037
800.64        74.28218
801.06         74.4127
801.47        74.63982
801.88        74.78069
802.29        74.77081
802.70        74.65256
803.11        74.46877
803.52        74.28941
803.93         74.1729
804.34        74.11861
804.75        74.11221
805.17        74.23991
805.58        74.55648
805.99        74.64487
806.40        74.61009
806.81        75.50755
807.22         76.9146
807.63        76.77352
808.04        75.29153
808.45        74.59757
808.86        74.85682
809.27        74.88867
809.68         74.6285
810.09        74.55598
810.50        74.67252
810.91        74.84881
811.32         75.0893
811.73        75.37839
812.14        75.68509
812.55        76.05595
812.96        76.38696
813.37        76.35896
813.78        75.99632
814.19        75.65625
814.60        75.40714
815.01        75.10064
815.42        74.76541
815.83        74.53424
816.24        74.42605
816.65        74.39063
817.05        74.43358
817.46        74.54042
817.87        74.70244
818.28        74.84986
818.69        74.96738
819.10        75.05329
819.51         75.1321
819.92        75.28864
820.33        75.53325
820.74        75.73907
821.14        75.87568
821.55        76.10487
821.96         76.3187
822.37        76.06053
822.78        75.45278
823.19        75.15092
823.60        75.23978
824.00        75.40854
824.41        75.53049
824.82        75.65176
825.23        75.72757
825.64        75.75559
826.04        75.74253
826.45        75.65336
826.86        75.51044
827.27        75.33181
827.68        75.15425
828.08        75.06927
828.49        75.04752
828.90        75.08721
829.31        75.19911
829.72        75.39433
830.12        75.68434
830.53        76.00442
830.94        76.26315
831.35        76.25762
831.75        75.97342
832.16        75.45216
832.57        74.89877
832.97        74.61843
833.38         74.6821
833.79        74.97227
834.20         75.3737
834.60        75.69478
835.01        75.87323
835.42         76.0202
835.82         76.1005
836.23         75.9692
836.64        75.66061
837.04        75.16574
837.45        74.76585
837.86        74.99057
838.26        75.93854
838.67        77.41463
839.08        78.87807
839.48        79.30745
839.89        78.45953
840.29        76.71733
840.70        74.85533
841.11        73.78733
841.51        73.74593
841.92        74.42901
842.33        75.53939
842.73        76.53712
843.14        77.07162
843.54        77.35117
843.95        77.43446
844.35        77.47415
844.76         77.5112
845.17        77.47453
845.57        77.34974
845.98        77.11779
846.38        76.81959
846.79        76.48233
847.19        76.21853
847.60        76.15871
848.00        76.33202
848.41        76.66827
848.81        77.04991
849.22        77.18632
849.62         77.0537
850.03          76.719
850.43        76.33006
850.84         76.0586
851.24        76.01538
851.65        76.07211
852.05          76.302
852.46        76.69261
852.86        77.18946
853.27        77.77183
853.67        78.19735
854.07        78.26073
854.48         77.9137
854.88         77.2495
855.29        76.40833
855.69         75.8148
856.10          75.544
856.50        75.59007
856.90        75.80326
857.31        75.93734
857.71        75.96343
858.12        75.87309
858.52        75.78256
858.92         75.7582
859.33         75.7981
859.73        75.91134
860.13        75.95572
860.54        75.73734
860.94        75.28178
861.34        74.65391
861.75        74.05876
862.15        73.86945
862.55        74.14589
862.96        74.73715
863.36        75.48429
863.76        76.01193
864.17        76.17484
864.57        76.09995
864.97        75.80717
865.38        75.34975
865.78          74.809
866.18         74.1577
866.58        73.54575
866.99        73.24718
867.39        73.35874
867.79         73.8203
868.19        74.43007
868.60          74.829
869.00        74.95265
869.40        74.84668
869.80        74.66259
870.21        74.69727
870.61        75.08015
871.01        75.63282
871.41        76.09026
871.81        76.09573
872.22        75.58777
872.62        74.68291
873.02        73.68257
873.42        73.09248
873.82        73.06642
874.22        73.47253
874.63        74.00381
875.03        74.18252
875.43        73.87595
875.83        73.23591
876.23        72.55327
876.63        72.26878
877.03        72.48388
877.44        73.03298
877.84        73.65899
878.24        73.92926
878.64        73.69678
879.04         73.0053
879.44        72.21437
879.84        71.94398
880.24        72.28424
880.64        73.00611
881.04        73.72894
881.44        73.85197
881.84        73.24305
882.24        72.13167
882.65         70.9291
883.05        70.25819
883.45        70.28993
883.85        70.83894
884.25        71.64228
884.65        72.24751
885.05        72.49735
885.45         72.5306
885.85        72.47337
886.25        72.51888
886.65        72.71926
887.05        72.97169
887.45        73.22057
887.85        73.39783
888.25        73.47069
888.65        73.48302
889.04        73.41444
889.44        73.25384
889.84        73.00092
890.24        72.65902
890.64        72.32287
891.04        72.15115
891.44        72.18108
891.84        72.38721
892.24        72.63405
892.64        72.70346
893.04        72.56612
893.44        72.29612
893.83        72.08109
894.23        72.17356
894.63        72.64245
895.03        73.36626
895.43        74.15694
895.83        74.71949
896.23        74.93961
896.63         74.8737
897.02        74.58142
897.42        74.19692
897.82        73.78725
898.22        73.36187
898.62        72.92151
899.01         72.4471
899.41        71.98608
899.81         71.5695
900.21        71.31283
900.61        71.38582
901.00        71.79185
901.40        72.42819
901.80        73.11578
902.20        73.57039
902.59         73.7158
902.99        73.62482
903.39        73.34707
903.79        72.97791
904.18        72.57395
904.58        72.11728
904.98        71.75919
905.38        71.73558
905.77        72.07616
906.17        72.75623
906.57        73.47855
906.96        73.73318
907.36        73.39267
907.76        72.60638
908.15        71.81116
908.55        71.68611
908.95        72.38405
909.34        73.70358
909.74        75.11343
910.14         75.8315
910.53        75.61343
910.93        74.71763
911.33        73.54748
911.72        72.71312
912.12        72.45386
912.52        72.58922
912.91        72.86361
913.31        72.91605
913.70        72.66588
914.10        72.22009
914.49        71.88245
914.89        72.05107
915.29        72.82642
915.68        74.04817
916.08        75.26672
916.47        75.82522
916.87        75.57223
917.26          74.698
917.66        73.66756
918.05         73.0242
918.45        72.91763
918.84         73.2272
919.24        73.67853
919.64        73.93661
920.03        73.90689
920.42        73.68607
920.82        73.48171
921.21        73.54223
921.61        73.89963
922.00        74.48155
922.40        75.07224
922.79        75.46774
923.19         75.5508
923.58        75.41368
923.98        75.16271
924.37        74.88141
924.77        74.63911
925.16         74.3756
925.55         74.1491
925.95        74.04104
926.34        74.08341
926.74        74.24276
927.13         74.3911
927.52         74.2445
927.92        73.81149
928.31         73.1755
928.70         72.5554
929.10         72.2563
929.49        72.32822
929.89        72.60497
930.28        73.06585
930.67        73.54871
931.07        73.93879
931.46        74.37243
931.85        74.60033
932.24        74.27616
932.64        73.43536
933.03        72.15737
933.42        71.00913
933.82        70.81428
934.21          71.715
934.60        73.53539
934.99        75.61093
935.39        76.72097
935.78        76.55616
936.17         75.3459
936.56        73.80362
936.96        73.07664
937.35        73.43925
937.74        74.53133
938.13        75.69189
938.53        75.89569
938.92        74.94128
939.31        73.27573
939.70        71.50871
940.09        70.48174
940.49        70.36983
940.88        70.91486
941.27        71.85242
941.66        72.69567
942.05        73.23748
942.44        73.66369
942.84        73.95243
943.23        74.04954
943.62        73.98818
944.01        73.68424
944.40        73.40246
944.79        73.63741
945.18         74.4387
945.57        75.65466
945.97        76.73158
946.36        76.81995
946.75        75.71303
947.14        73.81178
947.53        71.71111
947.92        70.23795
948.31        69.62971
948.70        69.66701
949.09        70.20274
949.48        70.96971
949.87        71.80635
950.26        72.75667
950.65        73.71235
951.04        74.48656
951.43        74.99779
951.82        75.21201
952.21        75.12685
952.60        74.80838
952.99        74.33702
953.38        73.76654
953.77        73.22764
954.16        72.90647
954.55         72.8411
954.94        72.96877
955.33        73.25638
955.72        73.61099
956.11        73.96336
956.50        74.34911
956.89        74.55824
957.28        74.25798
957.66        73.42367
958.05        72.21616
958.44        71.07257
958.83        70.63322
959.22        70.99796
959.61        71.98461
960.00        73.18044
960.39        73.79731
960.78        73.58482
961.16        72.79103
961.55        71.81707
961.94        71.15136
962.33        70.96257
962.72        71.14278
963.11        71.58606
963.49        72.13285
963.88        72.57558
964.27        72.89696
964.66        73.25098
965.04        73.91933
965.43        74.86094
965.82        76.04604
966.21        76.84856
966.60        76.15495
966.98        73.83572
967.37        70.50778
967.76        67.35044
968.15        65.79601
968.53        66.06784
968.92        67.80473
969.31        70.24129
969.69        71.78418
970.08        71.75172
970.47         70.6208
970.86        69.21449
971.24        68.72047
971.63        69.41653
972.02         70.9416
972.40         72.7164
972.79        73.36171
973.17        72.55901
973.56        70.85054
973.95        69.05463
974.33        68.19721
974.72        68.48654
975.11        69.56196
975.49        71.02608
975.88        72.01424
976.26        72.25537
976.65        72.00361
977.04        71.45084
977.42        70.85324
977.81        70.31194
978.19        69.68522
978.58        69.30204
978.96        69.68784
979.35        70.86249
979.74        72.73541
980.12        74.70606
980.51        75.41531
980.89        74.67493
981.28        72.88071
981.66        70.87289
982.05        69.84847
982.43        70.09785
982.82        71.26393
983.20        73.01855
983.59        74.58465
983.97        75.69156
984.35        76.49091
984.74        76.88847
985.12        76.99099
985.51        76.79801
985.89        76.27755
986.28        75.65551
986.66          75.234
987.04        75.15598
987.43        75.32772
987.81        75.69851
988.20        75.96307
988.58        76.04314
988.96        75.92689
989.35        75.65756
989.73        75.27416
990.12        74.79408
990.50        74.25795
990.88        73.57209
991.27        72.65472
991.65        71.57096
992.03        70.36749
992.42        69.43011
992.80        69.21004
993.18        69.79053
993.56        71.12189
993.95        72.54288
994.33        73.00687
994.71        72.13775
995.10        70.37786
995.48        68.64576
995.86        68.40954
996.24        69.97848
996.63        72.80441
997.01        76.28538
997.39        78.69707
997.77        79.25111
998.15        78.52466
998.54         76.8694
998.92         74.6917
999.30         72.4223
999.68        70.01277
1000.06        68.17332
1000.45        67.88581
1000.83        69.38941
1001.21        72.60453
1001.59        76.71447
1001.97          79.537
1002.35        80.14407
1002.73        79.07021
1003.12        77.43124
1003.50         76.6812
1003.88        77.28769
1004.26        78.65891
1004.64         80.4856
1005.02         82.0783
1005.40        83.01567
1005.78        83.72189
1006.16        83.71666
1006.54        82.19212
1006.92        79.31506
1007.30        75.42443
1007.69        72.00946
1008.07        71.04753
1008.45        73.06901
1008.83         77.7026
1009.21        83.49944
1009.59        86.81348
1009.97        85.96487
1010.35        82.00217
1010.73        76.70842
1011.11        72.66945
1011.49        70.63402
1011.86        69.83688
1012.24        69.85596
1012.62        70.09213
1013.00        70.32079
1013.38        70.79645
1013.76        71.53217
1014.14        72.33603
1014.52         73.0042
1014.90        73.33556
1015.28        73.21951
1015.66        72.64987
1016.04        71.68647
1016.41        70.43989
1016.79        69.02464
1017.17        67.77316
1017.55        66.87535
1017.93        66.26911
1018.31        66.09062
1018.69        66.49229
1019.06        67.48566
1019.44        69.13248
1019.82        70.90484
1020.20        71.54319
1020.58        70.60009
1020.95        68.35543
1021.33        66.10753
1021.71        65.25194
1022.09         66.0409
1022.46        68.48301
1022.84        71.51173
1023.22         72.5454
1023.60        70.68915
1023.97        66.64876
1024.35        63.15771
1024.73         63.4335
