SpectraSmart Spectrum 2.9.0.0
--------- Device Information -----------
Spectrum Name :  反射率_0
Saving Time :  2024/04/26 22:56:27
Spectro-Module Model Name : SE2030-DUVN
Spectro-Module Serial Number : OS361AC55029948
Wavelength Start : 200
Wavelength End : 1025
Wavelength Unit : Wavelength(nm)
Spectrum Unit : Reflectance(%)
-----------Spectrum Setting ------------
Integration Time : 20ms
Average : 10
Boxcar : 0
Background removal :  enabled
linearity correction :  enabled
SC :  disabled
Intensity correction :  disabled
DWT denoise :  enabled
savitzky-golay :  disabled
FFT :  disabled
Running average :  disabled
Kalman :  disabled
High pass :  disabled
---------------BEGIN--------------------
Wavelength(nm)             Reflectance(%)
200.29               0
200.75        34.50822
201.21        34.01894
201.67        33.66066
202.13        32.86641
202.58        31.35586
203.04        29.51579
203.50        27.06723
203.96         23.8049
204.42        20.09223
204.88        15.87345
205.34        12.96048
205.80         14.0563
206.26        18.77974
206.72        25.44273
207.18        30.71996
207.64        31.79481
208.10        28.55538
208.55        20.94749
209.01        9.659454
209.47        3.895845
209.93        8.649969
210.39        17.90594
210.85        26.03004
211.31         31.4517
211.77        35.71809
212.23        41.19492
212.69        53.03959
213.14        78.50087
213.60        86.97132
214.06        76.46799
214.52        65.20896
214.98        56.12156
215.44        47.21929
215.90        36.90687
216.36         27.5329
216.81        23.28153
217.27        25.99356
217.73        36.60955
218.19         53.1959
218.65         60.6176
219.11        52.65999
219.57        39.32051
220.02        30.47316
220.48        31.05746
220.94        40.62631
221.40        59.92502
221.86        88.67571
222.32        109.0666
222.77        104.5745
223.23        86.73873
223.69        68.30616
224.15        56.66064
224.61         50.9099
225.06         47.6145
225.52        46.38306
225.98        46.88683
226.44         48.6279
226.90        51.75227
227.36        54.82439
227.81        55.21376
228.27        52.80624
228.73        48.58212
229.19        44.66053
229.65        43.49753
230.10         45.1511
230.56        48.73356
231.02        52.53798
231.48         53.8484
231.93        52.18642
232.39        48.98161
232.85        45.73412
233.31        44.36453
233.77        45.08815
234.22        47.18362
234.68        49.74984
235.14        51.52724
235.60        52.09798
236.05        51.89762
236.51         51.1828
236.97        50.51995
237.43        50.21553
237.88        50.08136
238.34        50.12486
238.80          50.657
239.26        51.80094
239.71        54.01287
240.17        56.87614
240.63         59.3905
241.08        60.86696
241.54        60.68728
242.00        59.90083
242.46        60.99743
242.91        65.67753
243.37        74.47384
243.83        87.00857
244.28        94.92091
244.74        88.51771
245.20         70.9381
245.66        52.69689
246.11        41.05901
246.57        35.91488
247.03        34.11806
247.48        35.61449
247.94         39.7196
248.40        44.45245
248.85        49.04836
249.31        52.14964
249.77         52.4206
250.22        49.92677
250.68        44.30762
251.14        37.18069
251.59        34.87174
252.05         40.3527
252.51        50.49958
252.96        58.84833
253.42        59.92984
253.88          54.951
254.33        47.06741
254.79        40.81289
255.25        39.77559
255.70        43.63148
256.16        50.59129
256.62         57.5603
257.07        59.77054
257.53        57.77991
257.99        54.23325
258.44        51.10958
258.90        50.33358
259.35        51.12534
259.81        52.79673
260.27        54.31597
260.72        54.50278
261.18        53.54239
261.63        51.83714
262.09        50.24679
262.55        49.20523
263.00        48.64515
263.46        48.45837
263.91        48.20806
264.37        47.62503
264.83        46.67687
265.28        45.51004
265.74        44.53072
266.19        43.96042
266.65        43.87223
267.11        44.05193
267.56        44.29602
268.02        44.28976
268.47        43.93684
268.93        43.36801
269.38        42.62167
269.84        41.81573
270.30        40.99321
270.75        40.11469
271.21        39.30439
271.66        38.69466
272.12        38.30544
272.57        38.08687
273.03         37.8848
273.48         37.4287
273.94        36.71902
274.39        35.81598
274.85        34.94055
275.31        34.26873
275.76        33.80838
276.22        33.51537
276.67        33.26446
277.13        32.96746
277.58        32.55072
278.04        32.08814
278.49        31.55491
278.95        31.02798
279.40        30.48078
279.86        29.95837
280.31        29.43037
280.77        28.95798
281.22        28.51078
281.68         28.1379
282.13        27.79432
282.59        27.49705
283.04        27.20941
283.50        26.93701
283.95        26.68323
284.41        26.47383
284.86         26.3057
285.32        26.19274
285.77          26.071
286.22        25.90598
286.68        25.69526
287.13        25.42207
287.59        25.15983
288.04        24.97857
288.50        24.90866
288.95        24.89644
289.41        24.87998
289.86        24.70803
290.32        24.39356
290.77        23.97665
291.22        23.57244
291.68        23.33537
292.13        23.29173
292.59        23.41224
293.04        23.61927
293.50         23.8102
293.95        23.94559
294.40        24.05728
294.86        24.20198
295.31         24.4582
295.77        24.84409
296.22        25.31977
296.68        25.81317
297.13        26.20514
297.58        26.47868
298.04        26.67118
298.49        26.86733
298.95        27.21609
299.40        27.73277
299.85        28.36049
300.31        28.99327
300.76        29.46319
301.21        29.73401
301.67        29.87354
302.12        29.93897
302.58        30.07033
303.03        30.27885
303.48        30.53694
303.94        30.81294
304.39        31.03287
304.84        31.18844
305.30        31.31423
305.75        31.40577
306.20        31.50247
306.66        31.61766
307.11        31.72162
307.57        31.80705
308.02        31.82505
308.47        31.77841
308.93        31.68974
309.38        31.57654
309.83        31.50588
310.29        31.49085
310.74        31.51097
311.19        31.52355
311.65        31.45477
312.10        31.28723
312.55        31.04507
313.00        30.79415
313.46        30.63021
313.91        30.55935
314.36        30.55955
314.82        30.55756
315.27        30.44471
315.72        30.19651
316.18        29.85962
316.63        29.50398
317.08        29.25057
317.53        29.12366
317.99        29.07619
318.44        29.05169
318.89        28.94886
319.35        28.73848
319.80        28.45427
320.25        28.13023
320.70        27.81885
321.16           27.54
321.61        27.28969
322.06        27.05977
322.51        26.84153
322.97        26.62851
323.42        26.42819
323.87        26.25662
324.32        26.14075
324.78        26.06894
325.23        26.04066
325.68        25.98572
326.13        25.79975
326.59        25.46457
327.04        25.02436
327.49        24.56723
327.94        24.23308
328.39        24.05138
328.85        23.97364
329.30        23.95229
329.75        23.85263
330.20        23.63896
330.66        23.35514
331.11        23.06192
331.56        22.83411
332.01         22.6954
332.46        22.61059
332.92        22.55537
333.37        22.53083
333.82        22.51026
334.27        22.50084
334.72        22.47276
335.17        22.37272
335.63        22.19398
336.08        21.96673
336.53        21.73636
336.98        21.59022
337.43        21.55124
337.88        21.58695
338.34        21.67242
338.79        21.78259
339.24        21.88482
339.69         21.9883
340.14         22.0387
340.59         21.9522
341.05        21.73199
341.50        21.40319
341.95        21.07018
342.40        20.89564
342.85        20.91402
343.30        21.07759
343.75         21.2955
344.20        21.41504
344.66        21.39374
345.11        21.27487
345.56        21.11293
346.01        20.99552
346.46        20.95319
346.91        20.95902
347.36        20.98794
347.81        21.00679
348.26        21.00459
348.72        20.99372
349.17        20.99085
349.62        21.02939
350.07        21.11084
350.52        21.22112
350.97         21.3105
351.42        21.30351
351.87        21.18908
352.32        20.99422
352.77        20.78667
353.22         20.6658
353.67        20.65074
354.13        20.71298
354.58        20.79169
355.03        20.78917
355.48        20.68146
355.93        20.50521
356.38        20.31205
356.83        20.17721
357.28        20.11717
357.73        20.10109
358.18        20.09908
358.63        20.06619
359.08        19.98633
359.53        19.87595
359.98        19.74028
360.43        19.58319
360.88         19.4095
361.33        19.21803
361.78        19.02178
362.23        18.84455
362.68         18.6962
363.13        18.57724
363.58        18.47705
364.03        18.37531
364.48        18.26413
364.93        18.14312
365.38        18.02642
365.83        17.93852
366.28        17.88153
366.73        17.84721
367.18         17.8014
367.63        17.69127
368.08        17.51176
368.53        17.28463
368.98        17.05875
369.43        16.91141
369.88        16.85964
370.33        16.87663
370.78        16.92366
371.23        16.93517
371.68          16.888
372.13        16.80198
372.58        16.68671
373.03        16.55802
373.48        16.42612
373.93        16.28409
374.38        16.14823
374.83        16.04828
375.28        15.98726
375.72        15.95207
376.17        15.92859
376.62        15.87142
377.07        15.77247
377.52        15.64769
377.97        15.51252
378.42        15.39498
378.87        15.30654
379.32        15.23667
379.77        15.18987
380.22        15.17251
380.67        15.17891
381.11           15.21
381.56         15.2309
382.01        15.19721
382.46          15.103
382.91        14.96791
383.36        14.82498
383.81        14.72054
384.26        14.66154
384.71        14.62932
385.15        14.61134
385.60        14.59089
386.05        14.55818
386.50        14.52276
386.95        14.46972
387.40        14.37677
387.85         14.2475
388.29        14.08273
388.74        13.93633
389.19        13.85008
389.64         13.8282
390.09        13.85557
390.54        13.89093
390.98         13.8629
391.43        13.76737
391.88        13.62722
392.33        13.48854
392.78        13.41627
393.23        13.41942
393.67         13.4663
394.12        13.53168
394.57        13.55273
395.02         13.5158
395.47        13.43559
395.91        13.34356
396.36        13.28378
396.81        13.27738
397.26        13.30893
397.71        13.34707
398.15        13.35509
398.60         13.3414
399.05        13.26456
399.50        13.16316
399.95        13.18836
400.39        13.30386
400.84        13.25906
401.29        13.06346
401.74        12.94137
402.18        12.90609
402.63          12.828
403.08        12.71955
403.53        12.65549
403.97        12.64016
404.42        12.65447
404.87        12.67546
405.32        12.66377
405.76        12.60903
406.21        12.53018
406.66        12.45225
407.11        12.41664
407.55        12.43526
408.00        12.48692
408.45        12.54781
408.90        12.57015
409.34        12.53822
409.79        12.46942
410.24        12.38489
410.68        12.30908
411.13        12.25325
411.58        12.20865
412.03        12.16832
412.47        12.12451
412.92        12.07308
413.37        12.02399
413.81        11.98383
414.26        11.96893
414.71        11.97667
415.15        12.00453
415.60        12.03659
416.05        12.05457
416.49        12.05338
416.94        12.03627
417.39        12.01496
417.83        12.00792
418.28        12.01778
418.73        12.03534
419.17        12.05362
419.62        12.06245
420.07        12.05714
420.51        12.03791
420.96        12.00455
421.41        11.95382
421.85        11.88478
422.30        11.80017
422.74        11.70391
423.19        11.65427
423.64        11.63643
424.08        11.57751
424.53        11.48777
424.98        11.47607
425.42        11.55414
425.87         11.6335
426.31        11.69157
426.76        11.78021
427.21        11.85453
427.65        11.76086
428.10          11.554
428.54        11.44202
428.99        11.45157
429.44        11.51831
429.88        11.60065
430.33        11.59006
430.77        11.51162
431.22         11.5833
431.66        11.77724
432.11        11.83932
432.56        11.75904
433.00        11.70757
433.45        11.65755
433.89        11.48957
434.34        11.30869
434.78        11.04685
435.23          11.318
435.67        11.37691
436.12        11.37301
436.57        11.34507
437.01        11.30536
437.46        11.27837
437.90        11.26311
438.35        11.21841
438.79        11.15835
439.24        11.14343
439.68        11.17876
440.13        11.24606
440.57        11.31919
441.02        11.36507
441.46         11.3713
441.91         11.3192
442.35        11.23399
442.80        11.26034
443.24        11.35551
443.69        11.31788
444.13        11.16526
444.58        11.10523
445.02        11.14368
445.47        11.17166
445.91        11.17429
446.36        11.18162
446.80        11.18646
447.24        11.17935
447.69        11.16776
448.13        11.15854
448.58        11.15552
449.02        11.15573
449.47         11.1511
449.91        11.12373
450.36        11.07542
450.80        11.01207
451.25        10.95345
451.69        10.92333
452.13        10.92697
452.58        10.95371
453.02        10.98644
453.47        10.99972
453.91        10.98548
454.36        10.95288
454.80        10.90697
455.24        10.85377
455.69        10.80382
456.13        10.75221
456.58        10.71595
457.02        10.70268
457.46        10.71823
457.91        10.75523
458.35        10.79992
458.79        10.83086
459.24        10.84841
459.68        10.84792
460.13        10.84129
460.57         10.8189
461.01        10.79223
461.46        10.75397
461.90        10.71985
462.34        10.70636
462.79        10.71426
463.23        10.74366
463.68        10.77405
464.12        10.77702
464.56        10.74421
465.01        10.69916
465.45         10.6425
465.89         10.6051
466.34        10.59169
466.78        10.59026
467.22        10.60033
467.67        10.61153
468.11        10.62593
468.55        10.64301
468.99         10.6581
469.44        10.66186
469.88        10.65286
470.32        10.63092
470.77         10.6081
471.21        10.60694
471.65         10.6302
472.10        10.67502
472.54        10.71858
472.98        10.72972
473.42        10.70373
473.87        10.65451
474.31        10.60317
474.75        10.59287
475.20        10.63323
475.64        10.70494
476.08        10.78433
476.52        10.82907
476.97         10.8299
477.41        10.80619
477.85        10.78032
478.29         10.7724
478.74         10.8003
479.18        10.87991
479.62        10.98699
480.06        11.06647
480.50        11.10876
480.95        11.12119
481.39        11.10779
481.83        11.18305
482.27        11.18756
482.72        11.25026
483.16        11.31638
483.60        11.35219
484.04        11.33706
484.48         11.3757
484.93        11.53372
485.37        11.47472
485.81        11.49616
486.25        11.96086
486.69        11.57563
487.14        11.49992
487.58        12.36051
488.02        12.18571
488.46        11.85422
488.90        11.82671
489.34        11.67519
489.79        11.91197
490.23        12.20677
490.67        12.40674
491.11        12.45705
491.55        12.44152
491.99        12.41468
492.43        12.43864
492.88        12.53286
493.32        12.64646
493.76        12.75991
494.20        12.87823
494.64         12.9978
495.08        13.09153
495.52        13.15813
495.96        13.28211
496.41        13.43725
496.85        13.42269
497.29         13.2853
497.73        13.40947
498.17        13.60513
498.61        13.77407
499.05        13.83757
499.49        13.92687
499.93        14.01103
500.37        14.16284
500.82        14.34272
501.26        14.44749
501.70        14.46682
502.14        14.46246
502.58        14.47173
503.02        14.52511
503.46        14.63355
503.90         14.7889
504.34        14.95204
504.78        15.05604
505.22        15.08417
505.66        15.05636
506.10        15.01053
506.54        15.00762
506.98        15.06395
507.42        15.16084
507.86         15.2715
508.30        15.35246
508.74        15.39097
509.18        15.40168
509.62        15.40339
510.06        15.42522
510.50        15.47498
510.94        15.54142
511.38         15.6107
511.82        15.66189
512.26        15.68968
512.70        15.70298
513.14        15.71188
513.58        15.73118
514.02        15.76598
514.46        15.81104
514.90        15.86156
515.34        15.91097
515.78        15.95472
516.22        15.99141
516.66         16.0207
517.10        16.04249
517.54         16.0554
517.98        16.05913
518.42        16.04695
518.86        16.00873
519.30          15.947
519.74        15.87007
520.18        15.79493
520.62        15.74663
521.06        15.73116
521.50         15.7406
521.93        15.76634
522.37        15.78677
522.81        15.79523
523.25         15.7946
523.69        15.78136
524.13        15.75102
524.57        15.70407
525.01          15.641
525.45        15.57037
525.89        15.50755
526.32        15.45655
526.76        15.41956
527.20        15.39057
527.64        15.36003
528.08         15.3254
528.52        15.28878
528.96        15.25558
529.40        15.23412
529.83        15.22402
530.27        15.22078
530.71         15.2129
531.15        15.18464
531.59         15.1333
532.03         15.0645
532.46        14.98738
532.90        14.92657
533.34        14.88652
533.78        14.85542
534.22        14.82749
534.66         14.8114
535.09          14.794
535.53        14.74282
535.97        14.67299
536.41        14.64633
536.85          14.668
537.28        14.70644
537.72        14.74769
538.16        14.78065
538.60         14.7989
539.04        14.80637
539.47        14.80833
539.91          14.822
540.35        14.84998
540.79        14.89107
541.22        14.94057
541.66         14.9969
542.10        15.05642
542.54        15.11837
542.97        15.18876
543.41         15.2821
543.85        15.39734
544.29        15.53293
544.72        15.66477
545.16        15.76799
545.60        15.83719
546.04        15.88266
546.47        15.94048
546.91        16.06612
547.35         16.2644
547.79        16.51215
548.22        16.76145
548.66         16.9367
549.10        17.04329
549.53         17.0995
549.97        17.13712
550.41         17.1682
550.84        17.22778
551.28         17.3486
551.72        17.51099
552.15        17.69794
552.59        17.92016
553.03        17.91719
553.46        18.21529
553.90        18.32599
554.34        18.40424
554.77        18.45526
555.21        18.50136
555.65        18.56428
556.08        18.64413
556.52        18.72638
556.96        18.80114
557.39        18.90371
557.83        19.01664
558.27        19.03452
558.70        18.98124
559.14        19.00864
559.57          19.112
560.01        19.19251
560.45        19.24234
560.88        19.30837
561.32        19.39835
561.75          19.485
562.19        19.57035
562.63        19.63811
563.06        19.69246
563.50        19.76958
563.93        19.84628
564.37        19.91503
564.80        19.97762
565.24        19.98286
565.68        19.90814
566.11        20.16181
566.55        20.02772
566.98        20.09211
567.42         20.1767
567.85        20.32201
568.29          20.533
568.72        20.80641
569.16        21.12248
569.60        21.33662
570.03        21.51215
570.47        21.63498
570.90        21.74232
571.34        21.76166
571.77        21.93375
572.21        22.06668
572.64        22.13173
573.08        22.34933
573.51        22.22759
573.95         22.3682
574.38        22.61101
574.82         22.8306
575.25        22.68781
575.69        22.74137
576.12        22.87341
576.56        22.97652
576.99        23.12124
577.42        22.86867
577.86        23.17656
578.29        23.31712
578.73        23.24775
579.16        23.13453
579.60        22.87867
580.03        22.89765
580.47        22.91192
580.90        23.02973
581.33        22.99108
581.77        23.20617
582.20        22.58218
582.64        22.48796
583.07        22.50017
583.51        22.36322
583.94        22.10576
584.37        22.01195
584.81        22.05485
585.24        21.95844
585.68        21.78562
586.11        21.50712
586.54        21.63477
586.98         21.5475
587.41        21.39961
587.85        21.38581
588.28        21.12151
588.71        21.26822
589.15        21.12479
589.58        21.06043
590.01        21.16484
590.45        21.11147
590.88        21.10412
591.31        21.04769
591.75        21.04406
592.18        21.03741
592.61        21.00125
593.05        21.38676
593.48        21.58357
593.91         21.2967
594.35        21.31056
594.78        21.20453
595.21        21.28277
595.65        21.48824
596.08        21.82876
596.51        22.00623
596.94        21.94118
597.38        22.07336
597.81        22.39736
598.24        22.61274
598.68        22.73239
599.11        23.06784
599.54        23.43775
599.97        23.39827
600.41        24.07052
600.84        24.20687
601.27        24.51669
601.70        24.74865
602.14        25.01001
602.57        25.32092
603.00        25.73809
603.43        25.84978
603.87        26.61617
604.30        27.01468
604.73        27.39512
605.16          27.509
605.60        27.89498
606.03        28.22412
606.46        28.64755
606.89        28.85197
607.32        29.58519
607.76        30.02427
608.19        30.35459
608.62        30.69188
609.05        31.11822
609.48         31.4129
609.92        31.93831
610.35        32.36932
610.78        32.35762
611.21        32.39035
611.64        32.96627
612.07        33.39259
612.50        33.65116
612.94        33.94347
613.37        34.19717
613.80        34.54079
614.23        34.47726
614.66        34.72892
615.09        35.14082
615.52         35.5334
615.96        35.85948
616.39        36.17334
616.82        36.47358
617.25        36.71879
617.68        36.93063
618.11        37.15728
618.54        37.41586
618.97        37.68909
619.40        37.94871
619.84        38.26891
620.27        38.27932
620.70        38.45269
621.13        38.64292
621.56        38.49461
621.99        38.13334
622.42         38.2079
622.85        38.67066
623.28        38.90764
623.71        38.89153
624.14        38.93353
624.57         39.0994
625.00        39.15579
625.43         39.1179
625.86        39.06683
626.29        39.03018
626.72        38.75348
627.15        38.74852
627.58        38.59269
628.01        38.41023
628.44        38.21626
628.87        38.03006
629.30        37.60229
629.73        37.38057
630.16        37.14542
630.59        36.99584
631.02        36.76385
631.45        36.43788
631.88        36.11908
632.31        35.79997
632.74        35.41104
633.17        34.95996
633.60         34.5023
634.03        34.04988
634.46        33.58989
634.89        33.12371
635.32         32.6595
635.75        32.20233
636.18        31.72338
636.61        31.24366
637.04        30.80906
637.47        30.42155
637.89        30.06324
638.32         29.7058
638.75        29.33555
639.18        28.95214
639.61        28.56704
640.04        28.20074
640.47        27.88002
640.90        27.61027
641.33        27.38455
641.76        27.19099
642.18        27.01451
642.61        26.84369
643.04        26.68719
643.47        26.55644
643.90        26.46884
644.33        26.42665
644.76        26.42368
645.18        26.44473
645.61        26.45984
646.04        26.46794
646.47        26.48195
646.90        26.52601
647.33        26.63546
647.75        26.81236
648.18         27.0643
648.61        27.38532
649.04        27.69744
649.47        27.94698
649.89        28.49627
650.32        28.62683
650.75        29.02725
651.18         29.4959
651.61        30.09199
652.03        30.75694
652.46        31.28084
652.89        31.66937
653.32         32.0466
653.74        32.52984
654.17        32.94541
654.60        33.54939
655.03        34.05587
655.46        34.55933
655.88        34.72489
656.31        36.34168
656.74        37.86751
657.16        39.40193
657.59        40.70324
658.02        38.37821
658.45        38.48866
658.87        38.70914
659.30        39.05577
659.73        39.37838
660.15        40.21734
660.58        39.73909
661.01        40.01935
661.44        40.53128
661.86        40.77319
662.29        40.74342
662.72        41.41697
663.14        41.92689
663.57        42.16344
664.00        42.01007
664.42        42.24477
664.85        42.91369
665.27        43.62386
665.70        44.20968
666.13        44.60876
666.55        44.77745
666.98        44.69759
667.41        44.48809
667.83        44.62704
668.26        44.70572
668.69        45.05353
669.11        45.47191
669.54        45.83508
669.96         46.1041
670.39        46.40971
670.82        46.61132
671.24        46.84971
671.67        47.08942
672.09        47.26716
672.52        47.40475
672.94         47.6496
673.37        47.94203
673.80        47.95403
674.22        47.77063
674.65        47.79412
675.07        48.07174
675.50        48.37964
675.92         48.6376
676.35        48.79766
676.77        48.83337
677.20        48.77309
677.62         48.7099
678.05        48.75135
678.47        48.92073
678.90        49.33801
679.32        49.64426
679.75        49.92373
680.17        50.05595
680.60        50.08736
681.02        50.09315
681.45        50.18532
681.87        50.40257
682.30         50.7228
682.72        51.07152
683.15        51.24181
683.57        51.24062
684.00        51.22635
684.42        51.26945
684.85        51.40742
685.27        51.66483
685.70        51.99153
686.12        52.26347
686.54        52.64291
686.97        52.68039
687.39        52.46721
687.82        52.33503
688.24        52.46264
688.66        52.37075
689.09        52.50931
689.51        52.67638
689.94        52.86378
690.36         53.0307
690.78        53.10455
691.21        53.12936
691.63        53.22844
692.06        53.41928
692.48        53.64325
692.90        53.84563
693.33        53.96658
693.75        53.98323
694.17          53.901
694.60        53.82298
695.02        53.85155
695.44        54.00498
695.87        54.43384
696.29        54.95467
696.71        54.83208
697.14        54.25155
697.56        54.20303
697.98        54.63089
698.41        55.21943
698.83        54.89655
699.25        55.07906
699.68        55.39858
700.10        55.55926
700.52        55.51313
700.94        55.37079
701.37        55.24687
701.79        55.30333
702.21        55.56932
702.64         55.9685
703.06        56.38758
703.48        56.63186
703.90        56.64945
704.33        56.50963
704.75        56.30037
705.17        56.14392
705.59        56.09052
706.01        56.15165
706.44        56.23973
706.86        56.41541
707.28        56.62618
707.70        56.89976
708.12        57.20328
708.55        57.41307
708.97        57.54255
709.39        57.72676
709.81        57.94052
710.23        58.03797
710.66        58.00863
711.08        57.94875
711.50        57.87908
711.92         57.8132
712.34        57.77304
712.76        57.77282
713.19        57.80079
713.61        57.86584
714.03        57.95192
714.45        58.05557
714.87        58.19394
715.29        58.40976
715.71         58.7014
716.13        59.02546
716.56        59.28776
716.98        59.58135
717.40        59.56423
717.82        59.57654
718.24        59.53152
718.66        59.53081
719.08        59.50318
719.50        59.09987
719.92         58.4967
720.34        58.31029
720.76        58.59764
721.19        59.02515
721.61         59.4965
722.03        59.92524
722.45        60.23046
722.87         60.4161
723.29        60.47272
723.71        60.39882
724.13        60.21911
724.55         59.9457
724.97        59.65366
725.39        59.47546
725.81        59.45302
726.23         59.5465
726.65        59.71442
727.07        60.00977
727.49         60.1857
727.91        60.42601
728.33        60.66052
728.75        60.88832
729.17         61.0992
729.59        61.26908
730.01        61.36397
730.43        61.42938
730.85         61.4849
731.27        61.36334
731.69         61.0492
732.10        61.41139
732.52        61.07592
732.94        61.10309
733.36        61.06936
733.78        61.10659
734.20         61.2425
734.62         60.8225
735.04        61.50307
735.46        60.95335
735.88        61.46237
736.30        61.41508
736.72        61.42696
737.13        61.78513
737.55         62.3204
737.97        62.60721
738.39        62.55468
738.81        62.22215
739.23        61.80557
739.65        61.88146
740.06        62.34985
740.48        62.59507
740.90        62.58443
741.32         62.4542
741.74         62.7799
742.16        62.88565
742.57        62.92545
742.99        62.96532
743.41        62.99635
743.83        62.90344
744.25        62.71847
744.67        62.60546
745.08        62.59875
745.50         62.5991
745.92        62.61105
746.34        62.69324
746.75        62.81411
747.17        62.85116
747.59        62.79864
748.01        62.75204
748.42        62.70518
748.84        62.59099
749.26        62.49185
749.68        62.46844
750.09        62.54712
750.51        62.98241
750.93        63.54111
751.35        63.37439
751.76        62.61695
752.18        62.28314
752.60        62.41197
753.01        62.46559
753.43        62.44269
753.85        62.43225
754.27        62.38951
754.68        63.06824
755.10        63.22626
755.52        63.16406
755.93        62.68498
756.35        62.69452
756.77        63.21216
757.18        63.47064
757.60        63.46624
758.02        63.82935
758.43        64.34902
758.85        64.15568
759.26        63.73537
759.68        63.19901
760.10        62.77132
760.51        63.63902
760.93         64.4013
761.34        63.97635
761.76        64.51294
762.18        64.28995
762.59        64.22419
763.01        64.24841
763.42        64.44536
763.84        64.73419
764.26        64.96445
764.67        64.72526
765.09        64.21239
765.50        64.06397
765.92        64.28149
766.33        64.38135
766.75        64.23729
767.16        63.92758
767.58        63.55137
768.00        63.50745
768.41        63.86263
768.83        64.25517
769.24        64.74998
769.66        64.87285
770.07        64.70297
770.49        64.33681
770.90        63.99812
771.32        64.29276
771.73        65.06236
772.15        65.33518
772.56        65.05866
772.97        64.73665
773.39        64.53646
773.80        64.59144
774.22        64.87426
774.63        65.16917
775.05        65.33593
775.46        65.44598
775.88        65.43694
776.29        65.24258
776.70        64.96008
777.12        64.84214
777.53        64.94859
777.95        65.16334
778.36        65.42716
778.77         65.6054
779.19        65.67612
779.60        65.69802
780.02        65.65872
780.43        65.64607
780.84        65.71523
781.26        65.43136
781.67        65.16374
782.09        65.66698
782.50        66.72671
782.91         66.6237
783.33        65.79391
783.74        65.42735
784.15        65.67678
784.57        65.86398
784.98          65.915
785.39        65.65502
785.81        65.27872
786.22        65.70196
786.63        66.71243
787.04        67.15103
787.46        66.95004
787.87         66.6102
788.28        66.27273
788.70        66.44771
789.11        66.21626
789.52         66.4287
789.93        66.69414
790.35         66.7076
790.76        66.48162
791.17        66.37157
791.58        66.45217
792.00        66.41466
792.41        66.26092
792.82        66.51358
793.23        66.87983
793.65        66.48145
794.06         65.5967
794.47        65.83868
794.88          66.956
795.29        67.53285
795.71         67.0436
796.12        66.77351
796.53        66.74059
796.94        66.74511
797.35         66.8557
797.76        67.15761
798.18        67.47867
798.59        67.67992
799.00        67.73065
799.41        66.97466
799.82        66.88907
800.23        66.62501
800.64        66.64317
801.06        66.80759
801.47        67.07637
801.88        67.26344
802.29        67.29133
802.70        67.22071
803.11        67.08601
803.52        66.94403
803.93        66.84731
804.34        66.79266
804.75        66.77901
805.17        66.90298
805.58        67.21754
805.99        67.34412
806.40        67.34548
806.81        68.12564
807.22        69.29231
807.63        68.99181
808.04        67.47394
808.45        66.76859
808.86        67.04837
809.27         67.2215
809.68        67.15162
810.09        67.14258
810.50        67.16364
810.91        67.11541
811.32        67.10334
811.73        67.33532
812.14        67.80582
812.55        68.36295
812.96        68.82811
813.37        68.96782
813.78        68.71183
814.19        68.13649
814.60        67.45306
815.01        66.97136
815.42        66.76229
815.83        66.73843
816.24        66.85833
816.65        67.03355
817.05        67.21555
817.46         67.4096
817.87        67.58301
818.28        67.63177
818.69        67.54891
819.10        67.34088
819.51        67.12075
819.92         67.1276
820.33         67.4139
820.74         67.8446
821.14        68.28854
821.55        68.65997
821.96        68.83797
822.37        68.59254
822.78        68.05389
823.19        67.72663
823.60        67.70702
824.00        67.77867
824.41        67.85941
824.82        68.00909
825.23        68.19122
825.64        68.39269
826.04        68.58276
826.45        68.66553
826.86        68.63429
827.27        68.51738
827.68        68.32911
828.08        68.12883
828.49        67.89984
828.90         67.6559
829.31        67.47629
829.72        67.48483
830.12        67.72057
830.53         68.0993
830.94        68.48364
831.35         68.5835
831.75        68.34797
832.16        67.84682
832.57        67.28067
832.97        66.95248
833.38        66.94478
833.79        67.14038
834.20        67.46237
834.60        67.78695
835.01        68.06051
835.42        68.36661
835.82        68.63421
836.23        68.65663
836.64        68.44264
837.04        68.01398
837.45        67.63451
837.86        67.80352
838.26         68.6265
838.67        69.91125
839.08        71.22846
839.48        71.75598
839.89        71.27245
840.29        70.07754
840.70        68.74104
841.11        67.90609
841.51        67.75661
841.92        68.07034
842.33        68.69402
842.73         69.3602
843.14         69.8285
843.54        70.22775
843.95        70.51605
844.35         70.6761
844.76        70.69353
845.17        70.54857
845.57        70.27754
845.98         69.9391
846.38        69.59724
846.79        69.25517
847.19        68.97449
847.60        68.81553
848.00         68.7987
848.41        68.88734
848.81        69.04728
849.22        69.12949
849.62         69.1329
850.03        69.07575
850.43        68.99932
850.84        68.91174
851.24        68.87029
851.65        68.80016
852.05        68.82406
852.46        69.04164
852.86        69.44717
853.27        69.98721
853.67        70.42693
854.07        70.55687
854.48        70.32362
854.88        69.82467
855.29        69.17006
855.69        68.70471
856.10        68.48086
856.50        68.48569
856.90        68.60916
857.31        68.67898
857.71        68.68196
858.12        68.60491
858.52        68.50672
858.92        68.36541
859.33        68.17416
859.73        67.98105
860.13        67.74785
860.54        67.44634
860.94        67.13169
861.34        66.80635
861.75        66.57449
862.15        66.64067
862.55        67.00524
862.96        67.56072
863.36        68.16232
863.76        68.47877
864.17         68.4031
864.57         68.0635
864.97        67.53516
865.38        66.95133
865.78        66.41767
866.18        65.90865
866.58        65.54143
866.99        65.51483
867.39        65.87518
867.79        66.54399
868.19          67.341
868.60         67.9637
869.00        68.34961
869.40         68.5298
869.80        68.53728
870.21        68.46297
870.61        68.41145
871.01         68.3117
871.41        68.13952
871.81        67.85694
872.22        67.46685
872.62        67.01122
873.02        66.60442
873.42        66.41589
873.82        66.48646
874.22        66.75623
874.63        67.09023
875.03         67.2943
875.43        67.29043
875.83        67.12318
876.23        66.87371
876.63        66.67522
877.03        66.57326
877.44        66.51123
877.84        66.45715
878.24        66.37851
878.64        66.22855
879.04        65.89406
879.44        65.54111
879.84        65.52021
880.24        65.84955
880.64        66.39028
881.04        66.85947
881.44        66.82265
881.84        66.20177
882.24        65.15322
882.65        64.06198
883.05        63.52385
883.45        63.68317
883.85        64.36746
884.25        65.26342
884.65        65.82709
885.05        65.89162
885.45        65.62865
885.85        65.24254
886.25        65.04627
886.65        65.12486
887.05        65.34831
887.45        65.62374
887.85        65.81681
888.25        65.86771
888.65        65.83311
889.04        65.70898
889.44        65.50479
889.84        65.22543
890.24        64.86792
890.64        64.49334
891.04        64.21242
891.44        64.06437
891.84        64.04768
892.24        64.10314
892.64        64.12246
893.04        64.09338
893.44        64.05801
893.83        64.11377
894.23         64.3661
894.63        64.84242
895.03        65.45898
895.43        66.11115
895.83        66.64693
896.23         66.9844
896.63        67.12601
897.02        67.05334
897.42        66.77642
897.82        66.33437
898.22        65.79384
898.62         65.2037
899.01        64.61481
899.41        64.09612
899.81         63.6501
900.21        63.40896
900.61        63.57205
901.00        64.13296
901.40        64.98149
901.80        65.86048
902.20        66.35738
902.59         66.3749
902.99        66.02759
903.39        65.46156
903.79        64.93961
904.18        64.56013
904.58        64.24406
904.98        64.07893
905.38        64.19672
905.77        64.59887
906.17        65.31184
906.57        66.03156
906.96        66.23281
907.36        65.80373
907.76        64.88087
908.15        63.99213
908.55        63.97649
908.95        64.99574
909.34        66.78599
909.74        68.65321
910.14        69.52366
910.53        69.09371
910.93        67.74678
911.33        66.02856
911.72         64.7751
912.12        64.30485
912.52        64.36166
912.91        64.72491
913.31         65.0836
913.70        65.32377
914.10        65.52972
914.49        65.80356
914.89        66.20074
915.29        66.73123
915.68        67.31879
916.08        67.74085
916.47        67.74001
916.87        67.30281
917.26        66.53439
917.66         65.7599
918.05        65.31767
918.45        65.30255
918.84        65.66293
919.24        66.19936
919.64        66.68201
920.03        67.01475
920.42         67.1994
920.82        67.34719
921.21        67.59214
921.61        67.93103
922.00        68.33049
922.40        68.58375
922.79        68.49814
923.19        68.03345
923.58        67.34733
923.98        66.65884
924.37          66.206
924.77        66.07121
925.16        66.13065
925.55        66.39033
925.95        66.82467
926.34        67.37655
926.74        68.01347
927.13        68.47016
927.52        68.27066
927.92         67.4196
928.31        66.07285
928.70        64.68927
929.10        63.94855
929.49         63.9928
929.89        64.58215
930.28        65.50771
930.67         66.2674
931.07        66.64001
931.46        66.85086
931.85        66.81114
932.24        66.43387
932.64        65.81184
933.03        64.92078
933.42        64.16995
933.82        64.16802
934.21        65.00576
934.60        66.57065
934.99        68.32433
935.39        69.26831
935.78        69.15259
936.17        68.14272
936.56        66.82077
936.96        66.12535
937.35         66.2864
937.74        67.02977
938.13        67.81091
938.53        67.78634
938.92         66.8056
939.31           65.24
939.70        63.64314
940.09        62.77655
940.49        62.79106
940.88        63.46761
941.27        64.49709
941.66        65.31615
942.05        65.70106
942.44        65.81941
942.84        65.79581
943.23        65.81585
943.62        65.95139
944.01        66.08163
944.40        66.20586
944.79        66.36908
945.18        66.54977
945.57        66.74487
945.97        66.81812
946.36        66.62825
946.75         66.1274
947.14        65.43423
947.53        64.70074
947.92        64.12719
948.31        63.78242
948.70        63.61978
949.09        63.65692
949.48        63.91783
949.87          64.364
950.26        64.95343
950.65        65.55721
951.04        65.96379
951.43         66.1033
951.82        66.02362
952.21        65.76428
952.60        65.41118
952.99        65.04514
953.38        64.68533
953.77         64.4399
954.16        64.47744
954.55        64.80447
954.94        65.33035
955.33         65.9556
955.72        66.48445
956.11        66.81361
956.50        67.00091
956.89        66.88068
957.28        66.21508
957.66        65.03811
958.05        63.50891
958.44        62.10194
958.83        61.48582
959.22        61.76211
959.61        62.76485
960.00        64.02873
960.39        64.65975
960.78        64.38322
961.16        63.46417
961.55        62.39141
961.94        61.80983
962.33        61.89752
962.72        62.48423
963.11        63.32375
963.49        63.97994
963.88        64.18506
964.27        64.04749
964.66        63.85381
965.04        64.05703
965.43        64.68918
965.82        65.66833
966.21        66.47745
966.60        66.18457
966.98        64.61876
967.37        62.25435
967.76         59.9861
968.15        58.90264
968.53          59.191
968.92        60.59927
969.31        62.48676
969.69        63.54906
970.08        63.26524
970.47         62.0321
970.86        60.70417
971.24         60.5091
971.63        61.70288
972.02        63.95013
972.40        66.46516
972.79        67.44017
973.17        66.41384
973.56         64.0471
973.95        61.46798
974.33        60.12608
974.72        60.31112
975.11        61.56388
975.49        63.30207
975.88        64.32938
976.26        64.26295
976.65        63.48083
977.04         62.3827
977.42         61.5344
977.81        61.10007
978.19        60.82467
978.58        60.83704
978.96        61.34084
979.35        62.27818
979.74        63.65961
980.12        65.05381
980.51        65.42303
980.89        64.68588
981.28        63.14206
981.66        61.51348
982.05         60.8254
982.43        61.31867
982.82          62.684
983.20        64.62816
983.59        66.44732
983.97        67.86758
984.35        69.01559
984.74        69.70477
985.12        69.90099
985.51        69.58561
985.89        68.77015
986.28        67.84171
986.66        67.34523
987.04        67.46861
987.43        68.06842
987.81        68.90414
988.20        69.33009
988.58        69.15231
988.96        68.47636
989.35         67.5472
989.73        66.70001
990.12        66.01315
990.50        65.44019
990.88        64.79177
991.27         63.8056
991.65        62.53053
992.03        61.16345
992.42        60.13556
992.80        59.97029
993.18        60.76081
993.56        62.35276
993.95        64.25037
994.33        65.65366
994.71         66.1165
995.10        65.91416
995.48        65.38448
995.86        65.19146
996.24        65.49677
996.63         65.8915
997.01        66.43241
997.39        66.89205
997.77        67.12212
998.15        67.38407
998.54         67.2515
998.92        65.91828
999.30        63.51523
999.68        60.35769
1000.06        57.67754
1000.45        57.22139
1000.83        59.39918
1001.21        63.89819
1001.59        69.40222
1001.97        72.68822
1002.35        72.47025
1002.73        69.69335
1003.12        66.22164
1003.50        64.47373
1003.88        65.12685
1004.26        67.37818
1004.64        70.54613
1005.02        73.13877
1005.40        74.36583
1005.78        74.82606
1006.16         74.4073
1006.54        72.88541
1006.92        70.53835
1007.30        67.47476
1007.69        64.75953
1008.07        63.78094
1008.45        64.92803
1008.83        67.94779
1009.21        71.87344
1009.59        74.20301
1009.97        73.74039
1010.35        71.18369
1010.73         67.5672
1011.11        64.41077
1011.49        62.25978
1011.86        60.73893
1012.24        59.80252
1012.62        59.35287
1013.00        59.28557
1013.38        59.69212
1013.76        60.49221
1014.14        61.31709
1014.52        61.91765
1014.90        62.24401
1015.28        62.26897
1015.66         62.0773
1016.04        61.73007
1016.41        61.20658
1016.79        60.61202
1017.17        60.23182
1017.55         60.1409
1017.93        60.26272
1018.31        60.49751
1018.69        60.66405
1019.06        60.72757
1019.44        60.78831
1019.82        60.73692
1020.20        60.37984
1020.58        59.71731
1020.95        58.73182
1021.33        57.97972
1021.71        58.01685
1022.09        58.91622
1022.46        60.76826
1022.84        62.81955
1023.22        63.24061
1023.60        61.45315
1023.97        57.98565
1024.35        54.81381
1024.73        54.07597
