SpectraSmart Spectrum 2.9.0.0
--------- Device Information -----------
Spectrum Name :  反射率_0
Saving Time :  2024/04/26 23:05:10
Spectro-Module Model Name : SE2030-DUVN
Spectro-Module Serial Number : OS361AC55029948
Wavelength Start : 200
Wavelength End : 1025
Wavelength Unit : Wavelength(nm)
Spectrum Unit : Reflectance(%)
-----------Spectrum Setting ------------
Integration Time : 20ms
Average : 10
Boxcar : 0
Background removal :  enabled
linearity correction :  enabled
SC :  disabled
Intensity correction :  disabled
DWT denoise :  enabled
savitzky-golay :  disabled
FFT :  disabled
Running average :  disabled
Kalman :  disabled
High pass :  disabled
---------------BEGIN--------------------
Wavelength(nm)             Reflectance(%)
200.29               0
200.75        45.76143
201.21        46.64318
201.67         47.7327
202.13        48.07144
202.58        47.48338
203.04        46.53232
203.50        45.86853
203.96        46.92907
204.42        50.49126
204.88        56.08414
205.34        61.63081
205.80        63.74422
206.26         61.7722
206.72        57.13191
207.18        52.32465
207.64        49.23969
208.10        47.84251
208.55        47.89109
209.01        48.52234
209.47         48.2097
209.93        46.79076
210.39        45.58746
210.85        45.43469
211.31        47.10146
211.77        51.39345
212.23        60.99779
212.69        85.24224
213.14        128.9883
213.60        131.3605
214.06        104.5747
214.52        84.67035
214.98         73.9775
215.44        67.28796
215.90        61.08574
216.36        56.61801
216.81         56.6203
217.27        62.59594
217.73        76.99089
218.19        97.97933
218.65        107.9232
219.11        99.30085
219.57         83.1152
220.02        72.25398
220.48        74.10007
220.94         88.1448
221.40        115.9222
221.86         156.194
222.32        181.5554
222.77        169.4245
223.23        138.7665
223.69        109.8446
224.15        93.83211
224.61        88.30125
225.06        87.26958
225.52        89.00797
225.98        91.70034
226.44        94.75967
226.90        99.01176
227.36        103.1526
227.81        104.5406
228.27        103.0702
228.73        99.39615
229.19        95.97013
229.65        95.80563
230.10        98.91142
230.56        104.3223
231.02        109.5521
231.48        110.6798
231.93        107.1744
232.39        101.2798
232.85        95.41956
233.31        92.68693
233.77        93.40813
234.22        96.40929
234.68        100.2888
235.14        102.9438
235.60        103.6512
236.05        103.1105
236.51        101.5731
236.97        99.90781
237.43        98.58177
237.88        97.32407
238.34        96.13325
238.80        95.40013
239.26        95.23016
239.71        96.32341
240.17        98.04396
240.63        99.47749
241.08        100.2281
241.54        99.53691
242.00          99.232
242.46        103.0971
242.91        114.1354
243.37        134.4435
243.83        164.0404
244.28        187.1354
244.74        182.1165
245.20        150.5597
245.66        114.7399
246.11        93.22488
246.57        85.91447
247.03        86.96426
247.48        90.61366
247.94        88.01614
248.40        79.87135
248.85        71.35065
249.31        65.18855
249.77         62.0587
250.22        61.22426
250.68        61.56539
251.14        63.15913
251.59        65.97329
252.05        69.36145
252.51        73.30499
252.96         75.4535
253.42        74.29565
253.88        70.74097
254.33        65.77459
254.79         62.8863
255.25        64.86333
255.70         71.2036
256.16        80.56647
256.62        89.17417
257.07         91.1394
257.53        87.66763
257.99        82.21925
258.44         77.5368
258.90        76.28266
259.35        77.36056
259.81        79.93222
260.27        82.50541
260.72        83.32323
261.18        82.63504
261.63        80.90356
262.09        79.46452
262.55        79.06207
263.00        79.50596
263.46        80.55443
263.91        81.29593
264.37        81.05994
264.83        79.77782
265.28        77.82743
265.74        76.03001
266.19        74.95338
266.65        74.77456
267.11        75.09795
267.56        75.56658
268.02        75.64418
268.47        75.15439
268.93         74.3483
269.38          73.283
269.84        72.12849
270.30        70.95396
270.75        69.68951
271.21        68.54967
271.66        67.77867
272.12        67.40334
272.57        67.30179
273.03        67.19936
273.48        66.60611
273.94        65.50675
274.39         64.0228
274.85        62.49506
275.31        61.18384
275.76        60.12758
276.22        59.29945
276.67        58.57507
277.13        57.95135
277.58        57.30967
278.04        56.71145
278.49        56.04533
278.95        55.32204
279.40        54.46852
279.86        53.60505
280.31        52.66697
280.77         51.7483
281.22        50.81229
281.68        49.95261
282.13        49.17703
282.59        48.64824
283.04        48.30337
283.50        48.11722
283.95        47.95894
284.41         47.6665
284.86        47.18696
285.32        46.61326
285.77         45.9794
286.22        45.42929
286.68        44.99016
287.13        44.56907
287.59        44.16688
288.04        43.71574
288.50        43.24258
288.95        42.74258
289.41        42.23761
289.86        41.65099
290.32        41.03736
290.77        40.39158
291.22        39.81476
291.68        39.43479
292.13        39.24914
292.59        39.23373
293.04        39.29877
293.50        39.33325
293.95        39.29166
294.40        39.21294
294.86        39.14275
295.31        39.13977
295.77        39.23323
296.22        39.38842
296.68        39.59289
297.13        39.80611
297.58        40.02367
298.04        40.25805
298.49        40.51198
298.95        40.81183
299.40        41.14193
299.85        41.48306
300.31        41.81148
300.76        42.07621
301.21        42.27162
301.67        42.43137
302.12        42.53701
302.58         42.6324
303.03        42.70161
303.48        42.76019
303.94        42.84643
304.39        42.97111
304.84          43.146
305.30        43.37082
305.75        43.57516
306.20        43.71518
306.66        43.78984
307.11        43.79569
307.57        43.77517
308.02        43.73472
308.47        43.69724
308.93        43.66544
309.38        43.63041
309.83        43.63556
310.29         43.6846
310.74        43.76427
311.19        43.83185
311.65        43.80994
312.10        43.67739
312.55        43.45206
313.00        43.20753
313.46        43.05543
313.91         42.9991
314.36        43.01476
314.82        43.01276
315.27        42.86094
315.72        42.53299
316.18         42.0945
316.63        41.63425
317.08        41.30522
317.53        41.14319
317.99        41.09289
318.44         41.0983
318.89        41.05452
319.35        40.92327
319.80        40.73255
320.25          40.501
320.70        40.25811
321.16        40.01675
321.61        39.78398
322.06        39.55026
322.51         39.3093
322.97        39.06057
323.42        38.81327
323.87         38.6152
324.32        38.54625
324.78          38.598
325.23        38.76523
325.68        38.91571
326.13        38.83763
326.59        38.48534
327.04        37.93646
327.49        37.34563
327.94        36.96436
328.39        36.85198
328.85        36.92368
329.30        37.09806
329.75        37.14585
330.20        36.99782
330.66        36.72257
331.11        36.41652
331.56        36.20273
332.01        36.11917
332.46        36.10426
332.92        36.11224
333.37        36.13183
333.82        36.12189
334.27        36.10843
334.72        36.05198
335.17         35.8793
335.63        35.58682
336.08        35.21614
336.53        34.86626
336.98        34.71774
337.43         34.8093
337.88        35.08084
338.34         35.4194
338.79        35.66327
339.24        35.73298
339.69         35.6762
340.14        35.51352
340.59        35.28743
341.05        35.04401
341.50        34.77384
341.95        34.53811
342.40          34.432
342.85        34.47248
343.30        34.63505
343.75        34.86263
344.20         35.0527
344.66        35.16956
345.11        35.22999
345.56        35.23903
346.01        35.21334
346.46        35.16807
346.91        35.09988
347.36        35.02771
347.81        34.98735
348.26        34.98515
348.72        35.01194
349.17        35.05428
349.62        35.10208
350.07        35.14399
350.52        35.18343
350.97        35.18467
351.42        35.09254
351.87        34.90727
352.32        34.65373
352.77        34.40049
353.22        34.24623
353.67        34.21046
354.13        34.26587
354.58        34.35774
355.03        34.39125
355.48        34.33628
355.93        34.21675
356.38        34.07459
356.83        33.97496
357.28        33.92667
357.73        33.89731
358.18         33.8442
358.63        33.70468
359.08        33.46851
359.53         33.1694
359.98        32.84031
360.43        32.52275
360.88        32.23229
361.33        31.95854
361.78        31.71146
362.23        31.50735
362.68         31.3482
363.13        31.23489
363.58        31.13637
364.03        31.00025
364.48        30.81286
364.93        30.58005
365.38        30.34145
365.83        30.16757
366.28        30.07163
366.73        30.03066
367.18        29.98807
367.63        29.85446
368.08         29.6146
368.53        29.30355
368.98        28.98036
369.43        28.73722
369.88        28.59805
370.33        28.53107
370.78        28.50014
371.23        28.44615
371.68        28.34556
372.13         28.2154
372.58        28.05944
373.03        27.88233
373.48        27.68986
373.93        27.47823
374.38        27.26009
374.83        27.06136
375.28        26.88855
375.72        26.73035
376.17        26.59571
376.62        26.45967
377.07        26.32106
377.52        26.19509
377.97        26.07688
378.42        25.96312
378.87        25.85277
379.32        25.72939
379.77        25.63041
380.22        25.61281
380.67        25.67443
381.11        25.81067
381.56        25.90014
382.01        25.76582
382.46        25.39312
382.91        24.86466
383.36        24.35653
383.81        24.11098
384.26        24.16357
384.71        24.43102
385.15        24.77726
385.60        24.97231
386.05        24.94134
386.50        24.75321
386.95        24.47918
387.40        24.23277
387.85        24.05591
388.29          23.899
388.74        23.77813
389.19        23.66075
389.64        23.53905
390.09        23.42687
390.54        23.33182
390.98        23.25386
391.43         23.2069
391.88        23.18178
392.33        23.16674
392.78        23.14709
393.23        23.12005
393.67        23.07897
394.12        23.05468
394.57         23.0488
395.02        23.06047
395.47        23.07571
395.91          23.095
396.36        23.10581
396.81        23.11606
397.26        23.13485
397.71        23.13597
398.15        23.09655
398.60        23.04449
399.05        22.88998
399.50        22.70958
399.95        22.78104
400.39        23.04186
400.84        23.06311
401.29        22.82127
401.74        22.63918
402.18        22.52982
402.63        22.28236
403.08        21.98423
403.53        21.86926
403.97        21.96237
404.42        22.19587
404.87         22.4584
405.32         22.5673
405.76        22.47742
406.21        22.26053
406.66        22.01244
407.11        21.88541
407.55        21.92254
408.00        22.05868
408.45        22.23538
408.90         22.3388
409.34        22.32566
409.79        22.24307
410.24        22.11606
410.68        21.96687
411.13        21.81805
411.58         21.6603
412.03        21.51913
412.47        21.44984
412.92        21.45806
413.37         21.5337
413.81        21.64097
414.26        21.74668
414.71         21.8288
415.15         21.8986
415.60        21.94063
416.05         21.9523
416.49        21.93721
416.94        21.89392
417.39        21.83616
417.83        21.78568
418.28        21.74896
418.73        21.71853
419.17        21.70545
419.62        21.72371
420.07        21.77189
420.51        21.84323
420.96         21.9038
421.41        21.89561
421.85        21.80593
422.30        21.64706
422.74        21.46887
423.19        21.44232
423.64          21.549
424.08        21.63021
424.53        21.64477
424.98        21.68959
425.42        21.76374
425.87        21.74112
426.31        21.64879
426.76        21.68768
427.21        21.80618
427.65        21.68707
428.10        21.40655
428.54        21.30728
428.99        21.41845
429.44        21.63926
429.88        21.86428
430.33        21.84153
430.77        21.62109
431.22        21.62717
431.66        21.86435
432.11        21.96731
432.56        21.93833
433.00        22.07256
433.45        22.24576
433.89        22.08345
434.34        21.73359
434.78        21.11897
435.23        21.48529
435.67        21.51437
436.12        21.51908
436.57        21.53698
437.01        21.55833
437.46        21.57497
437.90        21.56566
438.35        21.47631
438.79        21.34195
439.24        21.28916
439.68        21.33137
440.13        21.42599
440.57        21.53448
441.02        21.60877
441.46        21.62515
441.91        21.56832
442.35        21.45877
442.80        21.48372
443.24        21.58383
443.69        21.50646
444.13        21.28067
444.58        21.18507
445.02        21.23061
445.47         21.2733
445.91        21.29833
446.36        21.35284
446.80        21.42333
447.24        21.49458
447.69        21.55542
448.13        21.58008
448.58        21.57071
449.02        21.53447
449.47        21.48845
449.91        21.44909
450.36        21.43097
450.80        21.42423
451.25        21.44144
451.69        21.48645
452.13         21.5575
452.58        21.64589
453.02        21.72742
453.47        21.76588
453.91        21.75369
454.36        21.70763
454.80        21.63604
455.24        21.55439
455.69        21.47911
456.13        21.39037
456.58        21.33106
457.02        21.33105
457.46        21.39892
457.91        21.52473
458.35        21.63379
458.79        21.61334
459.24        21.46823
459.68        21.22884
460.13        21.00771
460.57        20.92019
461.01        21.00583
461.46        21.20606
461.90        21.46713
462.34         21.6801
462.79        21.79643
463.23        21.85235
463.68        21.84178
464.12        21.77179
464.56         21.6554
465.01        21.51993
465.45         21.3756
465.89         21.2977
466.34        21.29457
466.78        21.34494
467.22        21.43198
467.67        21.49935
468.11        21.54042
468.55        21.56127
468.99        21.56511
469.44          21.556
469.88        21.54062
470.32        21.51222
470.77        21.48819
471.21        21.50266
471.65        21.55707
472.10        21.64412
472.54           21.73
472.98        21.76722
473.42        21.74678
473.87        21.69314
474.31        21.62053
474.75        21.57195
475.20        21.56441
475.64        21.57671
476.08           21.61
476.52        21.65243
476.97        21.69504
477.41        21.76259
477.85        21.85169
478.29        21.88827
478.74        21.87774
479.18        22.01781
479.62        22.05771
480.06        22.13823
480.50        22.18966
480.95        22.22133
481.39        22.21487
481.83         22.3618
482.27        22.33581
482.72        22.40081
483.16        22.47383
483.60        22.53475
484.04         22.5772
484.48        22.69738
484.93        22.89197
485.37         22.7491
485.81        23.01887
486.25        22.95068
486.69        22.63567
487.14        23.01917
487.58        23.23175
488.02        23.42259
488.46        23.23383
488.90        23.36745
489.34        23.59293
489.79        23.81085
490.23        23.89758
490.67        24.00782
491.11         24.1225
491.55        24.09827
491.99        23.98794
492.43        23.98483
492.88        24.11259
493.32        24.27636
493.76        24.44729
494.20        24.61645
494.64        24.77418
495.08        24.91596
495.52        25.02636
495.96        25.14674
496.41        25.26976
496.85        25.24001
497.29        25.11119
497.73        25.36562
498.17        25.62932
498.61        25.85291
499.05        25.90047
499.49        25.97686
499.93        26.03181
500.37        26.20986
500.82         26.4578
501.26        26.61965
501.70        26.67803
502.14        26.73352
502.58        26.81196
503.02        26.90101
503.46        27.00656
503.90        27.13374
504.34        27.25466
504.78        27.32241
505.22        27.32849
505.66         27.2867
506.10        27.23684
506.54        27.24234
506.98        27.31736
507.42        27.44353
507.86        27.58185
508.30        27.66837
508.74        27.68636
509.18        27.65524
509.62        27.61025
510.06        27.60795
510.50        27.66322
510.94        27.75861
511.38        27.86572
511.82        27.93857
512.26        27.96754
512.70        27.97201
513.14        27.97599
513.58        28.01715
514.02        28.10333
514.46        28.21361
514.90        28.33502
515.34        28.44942
515.78        28.54465
516.22        28.62513
516.66        28.67208
517.10        28.65575
517.54        28.57788
517.98         28.4524
518.42         28.3197
518.86        28.24478
519.30        28.24369
519.74        28.29798
520.18        28.37925
520.62         28.4393
521.06        28.46289
521.50        28.46533
521.93        28.45302
522.37        28.42747
522.81        28.39692
523.25        28.35415
523.69        28.31179
524.13        28.29268
524.57        28.29742
525.01        28.31869
525.45        28.33259
525.89        28.29878
526.32        28.20757
526.76         28.0819
527.20         27.9434
527.64        27.82862
528.08        27.74908
528.52        27.69334
528.96          27.658
529.40        27.63689
529.83        27.62357
530.27        27.62279
530.71        27.61765
531.15        27.58387
531.59        27.51771
532.03        27.42252
532.46        27.31766
532.90        27.25451
533.34        27.23779
533.78        27.24049
534.22        27.23657
534.66        27.21832
535.09        27.16005
535.53        27.01484
535.97        26.82709
536.41         26.7358
536.85        26.75888
537.28        26.83051
537.72        26.92726
538.16        27.03049
538.60        27.12353
539.04        27.21248
539.47        27.28263
539.91        27.32956
540.35        27.35056
540.79        27.34815
541.22        27.34702
541.66        27.39797
542.10        27.50622
542.54        27.65785
542.97        27.81862
543.41        27.94536
543.85        28.02363
544.29        28.07226
544.72        28.10913
545.16         28.1798
545.60        28.29215
546.04        28.43987
546.47        28.61687
546.91        28.80776
547.35        29.00138
547.79        29.19885
548.22        29.39836
548.66        29.59149
549.10        29.80807
549.53        30.03016
549.97         30.2411
550.41        30.34814
550.84        30.37966
551.28        30.43347
551.72        30.50809
552.15        30.62482
552.59        30.82945
553.03        30.66658
553.46        31.05192
553.90        31.17083
554.34        31.28683
554.77        31.40122
555.21         31.5336
555.65        31.68713
556.08        31.84792
556.52        31.99662
556.96         32.1072
557.39        32.22944
557.83        32.33691
558.27        32.25381
558.70        32.05301
559.14        32.04298
559.57        32.22364
560.01        32.41137
560.45        32.55803
560.88        32.68734
561.32        32.79862
561.75        32.86551
562.19        32.91231
562.63        32.93958
563.06        32.96764
563.50        33.06197
563.93         33.1786
564.37        33.27601
564.80        33.36094
565.24        33.38972
565.68         33.3133
566.11        33.76039
566.55        33.52195
566.98        33.60064
567.42        33.68204
567.85        33.80522
568.29        33.97707
568.72        34.20449
569.16        34.50651
569.60        34.66788
570.03         34.8007
570.47         34.9871
570.90        35.29019
571.34        35.01026
571.77        35.45693
572.21        35.55741
572.64        35.65587
573.08        35.84216
573.51        35.79731
573.95        35.93515
574.38        36.20012
574.82        36.15485
575.25        36.10796
575.69        36.02952
576.12          36.018
576.56        36.11254
576.99        36.35551
577.42        36.26382
577.86        36.05104
578.29        36.59062
578.73        36.29783
579.16        36.28241
579.60        36.03102
580.03        36.09753
580.47        36.00115
580.90        36.19101
581.33        36.05771
581.77        36.29351
582.20        35.60406
582.64         35.5648
583.07        35.57457
583.51        35.53841
583.94        35.45485
584.37        35.45068
584.81        35.51016
585.24         35.2992
585.68        34.94633
586.11        34.72364
586.54        34.85428
586.98        34.57458
587.41        34.58464
587.85        34.47673
588.28        34.34373
588.71        34.24857
589.15        34.31211
589.58         34.3452
590.01        34.34533
590.45        34.49513
590.88        34.70048
591.31        34.64126
591.75         34.4174
592.18        34.20066
592.61         34.0459
593.05        34.86122
593.48        35.10204
593.91        35.07644
594.35        34.78809
594.78        34.50998
595.21        34.46698
595.65        34.77613
596.08        35.42987
596.51        35.72214
596.94        35.52252
597.38        35.65432
597.81        36.08983
598.24        36.32849
598.68        36.45354
599.11        36.64753
599.54        37.23986
599.97        37.31025
600.41        37.69576
600.84         37.7388
601.27        38.21037
601.70        38.56865
602.14        38.90223
602.57        39.18547
603.00        39.52666
603.43        39.42614
603.87        40.38523
604.30        40.76787
604.73        41.09278
605.16        41.05736
605.60        41.38546
606.03        41.64851
606.46         42.0488
606.89        42.21503
607.32        42.96685
607.76        43.40307
608.19        43.73729
608.62        44.05519
609.05         44.4505
609.48        44.71018
609.92        45.35087
610.35        45.52921
610.78        45.43226
611.21        45.20822
611.64        45.91803
612.07        46.39091
612.50        46.62207
612.94        46.95553
613.37        47.30032
613.80         47.3526
614.23        47.21383
614.66        47.42289
615.09        47.95756
615.52        48.27114
615.96        48.32053
616.39        48.52032
616.82        48.90106
617.25        48.84679
617.68        49.04974
618.11        49.26059
618.54        49.64637
618.97         49.8748
619.40        49.94659
619.84        50.21963
620.27        50.20241
620.70        50.42524
621.13        50.73394
621.56        50.21258
621.99        49.85031
622.42         49.8565
622.85        50.52082
623.28        50.15437
623.71        50.47011
624.14        50.51394
624.57        50.66326
625.00        50.73709
625.43         50.6981
625.86        50.56256
626.29        50.34346
626.72         50.3006
627.15        50.15912
627.58         50.2019
628.01        50.24903
628.44        50.13342
628.87        49.86471
629.30        49.35336
629.73        49.12965
630.16        48.87231
630.59        48.69319
631.02        48.55051
631.45        48.41723
631.88        48.25751
632.31        48.03482
632.74        47.90758
633.17        47.54143
633.60        47.18328
634.03         46.7451
634.46        46.23457
634.89         45.6968
635.32        45.22493
635.75        44.84781
636.18        44.49711
636.61        44.16187
637.04        43.84181
637.47        43.52105
637.89        43.20466
638.32         42.8796
638.75        42.54076
639.18        42.19091
639.61        41.94355
640.04        41.61438
640.47        41.38482
640.90        41.20074
641.33        41.05607
641.76        40.93174
642.18        40.83101
642.61        40.74275
643.04        40.56744
643.47         40.5046
643.90        40.43495
644.33        40.41797
644.76        40.44336
645.18         40.4869
645.61        40.49654
646.04        40.46742
646.47        40.41901
646.90        40.40284
647.33        40.49036
647.75         40.6867
648.18        41.02045
648.61        41.44749
649.04        41.74993
649.47        41.87271
649.89        42.45848
650.32        42.44656
650.75        42.89017
651.18        43.43785
651.61        43.95982
652.03        44.42442
652.46        44.86549
652.89        45.30283
653.32        45.71014
653.74        46.13141
654.17        46.57592
654.60        46.90495
655.03        47.46344
655.46        47.49215
655.88        47.80645
656.31        49.07858
656.74        49.79163
657.16        50.36989
657.59        51.40162
658.02         50.4357
658.45        51.20637
658.87        50.86025
659.30        51.22474
659.73        51.29214
660.15        52.43477
660.58        51.94705
661.01        52.10195
661.44        52.25646
661.86        52.34853
662.29        52.37173
662.72        52.97083
663.14        53.11317
663.57         53.3381
664.00        53.39918
664.42        53.62795
664.85        54.04271
665.27        54.44664
665.70        54.74771
666.13        54.98045
666.55        55.10863
666.98        54.96968
667.41         54.6465
667.83        54.73355
668.26        54.70342
668.69        54.90962
669.11        55.15281
669.54        55.40617
669.96        55.64617
670.39        55.90395
670.82         56.1523
671.24         56.2774
671.67        56.29728
672.09        56.29831
672.52        56.34021
672.94         56.4608
673.37        56.64249
673.80        56.75485
674.22        56.80334
674.65        56.88023
675.07        56.99289
675.50        57.07113
675.92        57.12537
676.35        57.15292
676.77        57.14883
677.20        57.31966
677.62        57.29306
678.05        57.41591
678.47        57.57183
678.90        57.77036
679.32        57.96126
679.75        58.08169
680.17        58.12134
680.60        58.09803
681.02        58.07682
681.45        58.16253
681.87        58.38703
682.30         58.6921
682.72         59.0175
683.15        59.26581
683.57        59.39799
684.00        59.35019
684.42        59.21655
684.85        59.24069
685.27        59.45678
685.70        59.73782
686.12        59.98638
686.54        60.18473
686.97         60.3176
687.39        60.05803
687.82        60.08867
688.24        59.98221
688.66        59.95909
689.09        59.98128
689.51        60.05671
689.94        60.16416
690.36        60.29525
690.78        60.42487
691.21        60.56332
691.63        60.76814
692.06        61.01288
692.48         61.1859
692.90        61.25362
693.33        61.27666
693.75        61.25447
694.17        61.10437
694.60        60.94433
695.02         61.0044
695.44         61.2903
695.87        61.75353
696.29        62.22398
696.71        62.21335
697.14        61.79351
697.56        61.56055
697.98        61.61946
698.41        61.69555
698.83        61.75575
699.25        62.10494
699.68        62.57483
700.10         62.8141
700.52        62.73995
700.94        62.47385
701.37        62.17765
701.79        62.11517
702.21        62.34454
702.64         62.7622
703.06         63.2435
703.48        63.57172
703.90        63.68072
704.33        63.64214
704.75        63.52744
705.17        63.43363
705.59        63.40283
706.01        63.41314
706.44        63.47045
706.86        63.53027
707.28        63.67982
707.70        63.86513
708.12        64.08876
708.55        64.21398
708.97        64.26013
709.39        64.38737
709.81        64.57292
710.23        64.65839
710.66        64.63173
711.08        64.59502
711.50        64.56396
711.92        64.54346
712.34        64.54911
712.76        64.59283
713.19        64.64912
713.61        64.70861
714.03         64.7553
714.45        64.80151
714.87        64.88375
715.29        65.06205
715.71        65.33591
716.13        65.66313
716.56        65.97184
716.98        66.23154
717.40        66.37809
717.82        66.43227
718.24        66.37825
718.66        66.19357
719.08        65.91119
719.50        65.57054
719.92        65.27335
720.34        65.17049
720.76        65.29089
721.19        65.56747
721.61        65.96114
722.03        66.34793
722.45        66.66311
722.87        66.92094
723.29        67.06728
723.71        67.02446
724.13        66.80064
724.55        66.43091
724.97        66.03088
725.39        65.80131
725.81        65.79913
726.23        65.95324
726.65        66.19644
727.07        66.55807
727.49        66.75203
727.91        66.99393
728.33        67.20304
728.75        67.37044
729.17         67.4901
729.59        67.55146
730.01         67.5647
730.43        67.56059
730.85        67.55087
731.27        67.51907
731.69        67.47382
732.10        67.48084
732.52        67.47374
732.94        67.48942
733.36        67.49044
733.78        67.44704
734.20        67.37358
734.62        67.04283
735.04        67.47488
735.46        66.85938
735.88        67.47822
736.30        67.64233
736.72        67.93388
737.13        68.38185
737.55        68.81026
737.97        69.02166
738.39        68.93869
738.81        68.51968
739.23        67.98699
739.65        67.96122
740.06        68.32367
740.48        68.80574
740.90         68.5001
741.32        68.57348
741.74        68.81335
742.16        69.00963
742.57        69.13885
742.99        69.32158
743.41        69.49547
743.83        69.36481
744.25        69.00239
744.67        68.78966
745.08          68.809
745.50        68.86037
745.92         68.9565
746.34        69.23636
746.75        69.60701
747.17          69.786
747.59        69.73409
748.01          69.605
748.42        69.43148
748.84        69.16814
749.26        68.93215
749.68        68.87589
750.09        69.00959
750.51        69.38857
750.93        69.82881
751.35        69.80591
751.76        69.38205
752.18        69.17012
752.60        69.16857
753.01        69.11637
753.43        69.04663
753.85        68.87584
754.27        68.55119
754.68        69.50199
755.10        69.15448
755.52        69.46276
755.93        69.62437
756.35        69.72907
756.77        69.82722
757.18        69.77632
757.60        70.04199
758.02        70.34182
758.43        70.50938
758.85        70.32919
759.26        69.97396
759.68        68.50455
760.10        69.19028
760.51        69.83009
760.93        70.32514
761.34        70.37284
761.76        70.49409
762.18        70.49076
762.59        70.69193
763.01        70.74706
763.42         71.0972
763.84        71.21555
764.26        71.15785
764.67        70.87667
765.09        70.51653
765.50        70.13303
765.92        69.89726
766.33         70.0628
766.75        70.43449
767.16        70.61356
767.58        70.48492
768.00        70.04427
768.41        69.57355
768.83        69.98649
769.24        71.01485
769.66        71.25826
770.07        70.71474
770.49        70.23048
770.90        70.06184
771.32        70.53738
771.73        71.44572
772.15        71.75613
772.56        71.39853
772.97        70.99007
773.39        70.72408
773.80        70.62743
774.22        70.73826
774.63        71.09661
775.05        71.52648
775.46        71.81331
775.88        71.85778
776.29        71.74319
776.70        71.56456
777.12        71.50918
777.53        71.62885
777.95        71.80506
778.36        71.98522
778.77        72.04694
779.19        71.98999
779.60        71.90253
780.02        71.75631
780.43        71.63971
780.84        71.62701
781.26        71.20135
781.67        70.62105
782.09        71.47802
782.50         73.3488
782.91        73.14484
783.33        72.06372
783.74        71.54095
784.15        71.99683
784.57         72.1191
784.98        71.89764
785.39        71.74845
785.81        71.76051
786.22        72.19213
786.63        72.89427
787.04        73.26292
787.46        73.23771
787.87        73.09724
788.28        72.96536
788.70        72.87649
789.11        72.84718
789.52        72.96279
789.93        73.13213
790.35        73.04572
790.76        72.74044
791.17        72.60502
791.58        72.72063
792.00        72.73428
792.41         72.6321
792.82        73.19157
793.23        73.49081
793.65        73.30963
794.06          72.641
794.47        72.58179
794.88        73.01987
795.29        73.56262
795.71        73.05489
796.12        73.02932
796.53        73.20874
796.94        73.37077
797.35        73.50342
797.76         73.7354
798.18        74.00273
798.59        74.16313
799.00        74.17349
799.41        74.08814
799.82        73.94965
800.23        73.82851
800.64         73.7493
801.06        73.65575
801.47        73.60046
801.88        73.57657
802.29        73.57041
802.70        73.57819
803.11        73.55585
803.52        73.42501
803.93        73.20448
804.34         72.9494
804.75        72.71605
805.17        72.69283
805.58        72.97049
805.99        73.11805
806.40        73.19788
806.81        74.16306
807.22        75.57925
807.63        75.47529
808.04        74.07529
808.45        73.46333
808.86        73.80313
809.27        73.95165
809.68        73.77902
810.09         73.6351
810.50        73.51138
810.91        73.32711
811.32        73.21913
811.73        73.39388
812.14        73.87348
812.55        74.60097
812.96        75.34821
813.37        75.67576
813.78        75.46333
814.19        74.86852
814.60        74.13187
815.01        73.58347
815.42        73.30901
815.83        73.21381
816.24        73.25664
816.65        73.35458
817.05        73.46957
817.46        73.61788
817.87        73.77086
818.28        73.81825
818.69        73.74522
819.10        73.54868
819.51        73.35196
819.92        73.39349
820.33        73.71877
820.74        74.24863
821.14        74.79493
821.55        75.04846
821.96        74.94052
822.37        74.56643
822.78        74.09158
823.19        73.79934
823.60        73.78347
824.00        73.98893
824.41        74.26747
824.82        74.47962
825.23        74.55652
825.64        74.54903
826.04        74.50139
826.45        74.43496
826.86        74.38445
827.27        74.34327
827.68        74.29356
828.08        74.24332
828.49        74.14301
828.90         74.0125
829.31        73.92957
829.72        74.01735
830.12        74.31195
830.53        74.71426
830.94        75.06558
831.35        75.04536
831.75        74.61168
832.16        73.86167
832.57        73.05424
832.97        72.57525
833.38        72.53017
833.79        72.77765
834.20        73.21642
834.60        73.67863
835.01         74.0901
835.42        74.54811
835.82        74.95198
836.23        75.04041
836.64        74.80988
837.04        74.27522
837.45        73.76723
837.86        73.90549
838.26        74.82281
838.67        76.30521
839.08        77.80743
839.48        78.29708
839.89        77.51751
840.29        75.85182
840.70        74.06266
841.11        73.04578
841.51         73.0294
841.92        73.71751
842.33        74.79822
842.73        75.71086
843.14        76.11268
843.54        76.22479
843.95        76.16033
844.35        76.15465
844.76        76.26205
845.17        76.38278
845.57        76.44263
845.98        76.32185
846.38        76.02731
846.79        75.61182
847.19        75.21265
847.60        75.00437
848.00        75.03669
848.41        75.22933
848.81        75.47344
849.22        75.49671
849.62        75.27975
850.03        74.89388
850.43        74.48013
850.84        74.19074
851.24          74.132
851.65        74.18911
852.05        74.43045
852.46        74.84032
852.86        75.36272
853.27        75.96474
853.67        76.43343
854.07        76.60881
854.48        76.44414
854.88        76.01888
855.29        75.40465
855.69        74.89861
856.10        74.54133
856.50        74.35806
856.90         74.2937
857.31        74.26234
857.71        74.28471
858.12        74.32265
858.52        74.40932
858.92        74.46778
859.33        74.45592
859.73          74.421
860.13         74.3105
860.54        74.07761
860.94        73.77813
861.34        73.42482
861.75        73.11074
862.15           73.03
862.55        73.20203
862.96        73.53741
863.36        73.98346
863.76        74.35056
864.17        74.54544
864.57        74.62439
864.97        74.54542
865.38        74.26332
865.78        73.82712
866.18        73.26413
866.58        72.69288
866.99        72.32681
867.39        72.27628
867.79        72.49556
868.19        72.92622
868.60        73.44057
869.00        74.00344
869.40        74.58684
869.80        75.14782
870.21        75.59196
870.61        75.92029
871.01        76.09451
871.41        76.00797
871.81        75.52428
872.22        74.66513
872.62        73.48758
873.02        72.35266
873.42        71.87264
873.82        72.19016
874.22        73.12782
874.63        74.22032
875.03        74.72256
875.43        74.43368
875.83        73.58268
876.23        72.53889
876.63        71.88147
877.03        71.77232
877.44        72.00237
877.84         72.3931
878.24        72.64639
878.64        72.62255
879.04        72.33183
879.44        71.95853
879.84        71.84769
880.24        72.04323
880.64        72.39191
881.04        72.69202
881.44        72.65724
881.84        72.23003
882.24         71.5243
882.65        70.78877
883.05        70.39552
883.45        70.43946
883.85        70.81525
884.25        71.32801
884.65        71.63931
885.05        71.65067
885.45        71.47645
885.85        71.25391
886.25        71.19176
886.65        71.34516
887.05        71.62435
887.45        71.96355
887.85        72.26532
888.25        72.47475
888.65        72.61638
889.04        72.66773
889.44        72.62294
889.84        72.47943
890.24        72.24493
890.64        71.96484
891.04        71.72453
891.44        71.56232
891.84          71.479
892.24        71.46593
892.64        71.49226
893.04        71.55584
893.44        71.68121
893.83         71.8902
894.23        72.15475
894.63        72.48031
895.03        72.82947
895.43        73.19801
895.83        73.60028
896.23        73.99434
896.63        74.32253
897.02        74.48848
897.42        74.37388
897.82        73.97695
898.22        73.41293
898.62        72.74272
899.01        72.03202
899.41        71.37334
899.81        70.75826
900.21        70.37817
900.61        70.53452
901.00         71.2326
901.40        72.32912
901.80        73.47532
902.20        74.10415
902.59        74.08296
902.99        73.57586
903.39        72.79723
903.79        72.12504
904.18        71.69855
904.58        71.40213
904.98        71.31145
905.38        71.54662
905.77        72.08665
906.17        72.95127
906.57        73.79792
906.96        74.03127
907.36        73.52504
907.76        72.45216
908.15        71.35859
908.55        71.11285
908.95        71.90536
909.34        73.47009
909.74        75.19504
910.14        76.14411
910.53        76.02271
910.93        75.16081
911.33        73.93652
911.72        72.92506
912.12         72.3895
912.52        72.14017
912.91        72.10023
913.31        72.18949
913.70        72.35342
914.10        72.62159
914.49        72.99302
914.89        73.33582
915.29        73.62149
915.68        73.84418
916.08        73.91876
916.47        73.81463
916.87        73.55989
917.26        73.15826
917.66        72.77957
918.05        72.53906
918.45        72.48113
918.84        72.62193
919.24        72.84736
919.64        73.08738
920.03         73.3194
920.42        73.51997
920.82        73.75533
921.21         74.0865
921.61        74.48897
922.00         74.9464
922.40        75.32018
922.79        75.53944
923.19        75.53787
923.58        75.37445
923.98        75.09467
924.37        74.68987
924.77        74.21419
925.16        73.64684
925.55         73.1256
925.95        72.86268
926.34        72.92299
926.74        73.22766
927.13        73.56341
927.52        73.51059
927.92        73.04529
928.31        72.30165
928.70        71.55221
929.10        71.18466
929.49        71.27522
929.89        71.62373
930.28        72.20476
930.67        72.85436
931.07        73.43421
931.46         74.0682
931.85        74.45863
932.24        74.17482
932.64        73.24792
933.03          71.809
933.42        70.45577
933.82        70.06285
934.21        70.79108
934.60         72.4222
934.99        74.38617
935.39        75.62343
935.78        75.83294
936.17        75.21192
936.56        74.19427
936.96        73.47561
937.35        73.27384
937.74        73.38721
938.13        73.55234
938.53        73.40097
938.92        72.85783
939.31         72.1018
939.70         71.4038
940.09        71.11031
940.49        71.25198
940.88        71.73902
941.27         72.3402
941.66        72.63773
942.05        72.52333
942.44        72.16757
942.84        71.77834
943.23         71.6689
943.62        71.93227
944.01        72.40736
944.40        73.06644
944.79        73.89028
945.18        74.78061
945.57        75.70484
945.97        76.32536
946.36        76.19186
946.75        75.21514
947.14        73.64914
947.53        71.92826
947.92        70.66208
948.31        70.02759
948.70        69.88174
949.09        70.15841
949.48        70.71112
949.87        71.42612
950.26        72.32117
950.65        73.21635
951.04        73.81361
951.43        74.01616
951.82        73.83475
952.21        73.40804
952.60        73.01524
952.99        72.77059
953.38        72.65725
953.77        72.61732
954.16        72.54044
954.55        72.40279
954.94        72.22988
955.33         72.1652
955.72        72.43624
956.11        73.05769
956.50        73.93204
956.89         74.7056
957.28        74.80501
957.66        74.10332
958.05        72.84589
958.44        71.46373
958.83        70.56796
959.22        70.30103
959.61        70.51104
960.00        70.95506
960.39        71.18243
960.78        71.04148
961.16        70.66066
961.55        70.28175
961.94        70.17273
962.33        70.40624
962.72        70.90611
963.11        71.47552
963.49        71.79289
963.88        71.66873
964.27        71.21237
964.66        70.75158
965.04        70.79928
965.43        71.39832
965.82        72.46332
966.21        73.52771
966.60        73.69925
966.98         72.7375
967.37        71.03952
967.76        69.31119
968.15        68.43115
968.53        68.57472
968.92        69.53304
969.31        70.82304
969.69        71.48635
970.08        71.13223
970.47        70.08366
970.86        69.03582
971.24        68.97492
971.63        70.09344
972.02        72.11102
972.40        74.34223
972.79        75.15231
973.17         74.1401
973.56        71.88979
973.95        69.39232
974.33        67.91052
974.72        67.70961
975.11        68.40891
975.49        69.54958
975.88        70.16524
976.26        69.98373
976.65        69.30114
977.04        68.48441
977.42        68.03809
977.81        68.07274
978.19        68.34921
978.58         68.8497
978.96        69.55468
979.35        70.34908
979.74        71.26207
980.12        72.08369
980.51        72.18333
980.89        71.59315
981.28        70.51164
981.66        69.35642
982.05        68.70442
982.43        68.70909
982.82         69.1767
983.20        70.14279
983.59        71.49974
983.97        73.17826
984.35         75.1407
984.74        76.80936
985.12        77.47881
985.51        76.94424
985.89        75.43833
986.28        73.71339
986.66         72.8588
987.04        73.20872
987.43         74.4481
987.81        76.12698
988.20        77.16472
988.58        77.19827
988.96        76.46229
989.35        75.35739
989.73        74.42955
990.12        73.82529
990.50        73.41517
990.88        72.94837
991.27        72.07632
991.65        70.80332
992.03        69.34292
992.42        68.17084
992.80        67.83855
993.18        68.45463
993.56        69.87702
993.95        71.52469
994.33        72.49084
994.71        72.35352
995.10        71.48119
995.48        70.44228
995.86        70.21326
996.24        71.01456
996.63        72.36153
997.01         74.0761
997.39        75.38588
997.77        75.85511
998.15         75.7948
998.54        75.02087
998.92        73.10089
999.30        70.30283
999.68        66.93447
1000.06        63.98702
1000.45         62.8153
1000.83        63.77404
1001.21        66.59795
1001.59        70.59863
1001.97        73.87635
1002.35        75.47644
1002.73        75.81239
1003.12        75.49129
1003.50        75.29846
1003.88        75.61093
1004.26        75.96645
1004.64        76.46252
1005.02        77.33274
1005.40        78.49189
1005.78        80.05739
1006.16        81.17696
1006.54        80.42789
1006.92        77.79698
1007.30        73.89652
1007.69        70.20979
1008.07        68.66998
1008.45        69.82438
1008.83         73.1547
1009.21         77.6552
1009.59        80.73483
1009.97        81.03029
1010.35        79.30281
1010.73        76.20876
1011.11        72.74109
1011.49        69.53232
1011.86        66.45033
1012.24        64.12774
1012.62         63.3718
1013.00        64.24107
1013.38        66.66301
1013.76        70.05631
1014.14        72.66832
1014.52        73.54256
1014.90         72.9542
1015.28        71.53925
1015.66        70.37612
1016.04        69.79236
1016.41        69.46778
1016.79        69.28141
1017.17        69.16386
1017.55        69.03908
1017.93        68.98255
1018.31        68.99642
1018.69          68.982
1019.06        68.93412
1019.44        68.89775
1019.82        68.62538
1020.20         67.7296
1020.58        66.23205
1020.95        64.24807
1021.33        62.68238
1021.71        62.40491
1022.09        63.52938
1022.46        66.19771
1022.84        69.33144
1023.22        70.29394
1023.60        68.18083
1023.97        63.66694
1024.35        59.58785
1024.73        59.25922
