SpectraSmart Spectrum 2.9.0.0
--------- Device Information -----------
Spectrum Name :  反射率_0
Saving Time :  2024/04/26 22:57:30
Spectro-Module Model Name : SE2030-DUVN
Spectro-Module Serial Number : OS361AC55029948
Wavelength Start : 200
Wavelength End : 1025
Wavelength Unit : Wavelength(nm)
Spectrum Unit : Reflectance(%)
-----------Spectrum Setting ------------
Integration Time : 20ms
Average : 10
Boxcar : 0
Background removal :  enabled
linearity correction :  enabled
SC :  disabled
Intensity correction :  disabled
DWT denoise :  enabled
savitzky-golay :  disabled
FFT :  disabled
Running average :  disabled
Kalman :  disabled
High pass :  disabled
---------------BEGIN--------------------
Wavelength(nm)             Reflectance(%)
200.29               0
200.75        44.82829
201.21        39.13158
201.67        34.91491
202.13        33.87548
202.58        35.94948
203.04        41.47141
203.50        49.90558
203.96        57.50352
204.42        61.23005
204.88         60.9775
205.34        58.23201
205.80        57.27337
206.26        59.01105
206.72        61.03284
207.18        62.47701
207.64        62.79453
208.10        61.92462
208.55        61.04982
209.01        58.18744
209.47        51.06761
209.93        42.99075
210.39        37.17719
210.85        35.17049
211.31        37.64615
211.77        45.81347
212.23         66.0454
212.69        118.7933
213.14        213.1086
213.60        219.9859
214.06        160.7075
214.52        117.8532
214.98         98.3037
215.44        89.86178
215.90        84.58211
216.36        81.17559
216.81        78.87203
217.27        77.61456
217.73         79.4854
218.19        83.92344
218.65        85.42702
219.11         82.6755
219.57        78.30869
220.02        76.93576
220.48        83.00257
220.94        97.12085
221.40        121.5178
221.86        155.4364
222.32        176.6057
222.77         166.119
223.23        139.5101
223.69        113.3755
224.15        96.69969
224.61        87.99877
225.06        83.09265
225.52        81.17763
225.98        81.15161
226.44        82.44273
226.90        85.35847
227.36        88.74476
227.81        90.38248
228.27        90.00361
228.73        87.97621
229.19        86.06818
229.65        86.52126
230.10        89.31041
230.56        93.69884
231.02         97.6387
231.48        97.94148
231.93        94.29819
232.39        88.70146
232.85        83.26552
233.31        80.68506
233.77        81.21708
234.22        83.79396
234.68        87.26904
235.14        89.94955
235.60        91.19336
236.05        91.59079
236.51        90.98149
236.97        89.34027
237.43        86.86147
237.88        83.53548
238.34        80.06367
238.80        77.92884
239.26        77.62686
239.71        79.71887
240.17        83.52942
240.63         87.2586
241.08        89.77551
241.54        90.45002
242.00        91.03202
242.46        95.60787
242.91          107.38
243.37        128.0082
243.83        157.5633
244.28        181.0906
244.74        177.5227
245.20        148.4611
245.66        114.4442
246.11        92.43707
246.57        82.71733
247.03         79.9836
247.48        80.51479
247.94        78.89348
248.40        74.89845
248.85        71.09006
249.31        68.47358
249.77        66.73351
250.22        65.31854
250.68        63.38816
251.14        61.04482
251.59        59.65442
252.05        60.21951
252.51         62.6026
252.96        64.27935
253.42        63.16511
253.88        59.81152
254.33        55.30537
254.79        52.57893
255.25        53.86301
255.70        58.72648
256.16        66.00842
256.62        72.61548
257.07        73.83859
257.53        70.70615
257.99        66.00014
258.44        61.95486
258.90        60.73481
259.35        61.39564
259.81        63.22464
260.27        64.95027
260.72        65.10168
261.18        63.92399
261.63        61.88675
262.09        60.14144
262.55        59.35925
263.00        59.40666
263.46        60.06699
263.91        60.58517
264.37        60.35578
264.83        59.32563
265.28         57.7943
265.74        56.48266
266.19        55.95245
266.65        56.33099
267.11        57.25972
267.56        58.29267
268.02        58.73335
268.47        58.38527
268.93        57.51738
269.38        56.36983
269.84        55.38365
270.30        54.67167
270.75        54.07831
271.21        53.59001
271.66        53.11982
272.12        52.64293
272.57        52.18563
273.03        51.69027
273.48        51.02129
273.94        50.22397
274.39        49.28042
274.85        48.37982
275.31        47.61997
275.76        46.99003
276.22        46.51311
276.67          46.043
277.13        45.49763
277.58        44.79675
278.04         44.0136
278.49        43.19237
278.95        42.54736
279.40        42.03558
279.86        41.66953
280.31        41.24259
280.77        40.60397
281.22        39.69633
281.68        38.68741
282.13        37.69964
282.59        37.01049
283.04        36.60728
283.50        36.41669
283.95        36.29673
284.41        36.05648
284.86        35.63607
285.32        35.13204
285.77        34.58545
286.22        34.12226
286.68        33.76294
287.13        33.42005
287.59        33.08235
288.04        32.68456
288.50        32.24847
288.95        31.78519
289.41        31.31753
289.86        30.79441
290.32        30.26299
290.77        29.71761
291.22         29.2533
291.68        28.99504
292.13        28.93924
292.59        29.05445
293.04        29.23045
293.50        29.31691
293.95        29.26587
294.40        29.12814
294.86        28.97906
295.31        28.93067
295.77        29.02209
296.22        29.20619
296.68        29.45003
297.13        29.68622
297.58         29.9013
298.04        30.12309
298.49        30.35957
298.95        30.63702
299.40        30.95022
299.85        31.28071
300.31        31.62194
300.76        31.95907
301.21         32.2845
301.67        32.61242
302.12         32.9032
302.58        33.15289
303.03        33.34031
303.48        33.49207
303.94        33.64548
304.39        33.82626
304.84        34.04684
305.30        34.29484
305.75        34.53116
306.20         34.7479
306.66        34.94505
307.11         35.1218
307.57        35.25664
308.02        35.27011
308.47        35.17412
308.93        34.99612
309.38        34.82642
309.83          34.852
310.29        35.09375
310.74        35.48445
311.19        35.86504
311.65        35.96906
312.10        35.73715
312.55        35.26388
313.00        34.71849
313.46        34.35373
313.91        34.22118
314.36        34.25203
314.82        34.34505
315.27        34.34546
315.72        34.20169
316.18        33.97764
316.63         33.7204
317.08         33.5117
317.53        33.37387
317.99        33.26947
318.44        33.17331
318.89        33.04128
319.35        32.86158
319.80        32.65086
320.25         32.4345
320.70        32.25016
321.16        32.10268
321.61        31.98747
322.06         31.8711
322.51        31.70317
322.97        31.46999
323.42        31.19525
323.87        30.91953
324.32        30.71343
324.78        30.58262
325.23        30.52164
325.68        30.47207
326.13        30.34521
326.59         30.1195
327.04        29.83593
327.49         29.5428
327.94        29.31991
328.39        29.18399
328.85        29.09381
329.30          29.043
329.75        28.96523
330.20        28.84087
330.66        28.68506
331.11        28.52193
331.56        28.36451
332.01        28.22001
332.46        28.07774
332.92        27.92544
333.37        27.79247
333.82        27.66941
334.27         27.5618
334.72        27.46754
335.17        27.37708
335.63        27.28814
336.08        27.22163
336.53        27.18223
336.98         27.1867
337.43        27.23708
337.88        27.31804
338.34         27.4213
338.79        27.56383
339.24        27.72223
339.69        27.88264
340.14        27.99746
340.59         27.9959
341.05        27.87746
341.50        27.66933
341.95        27.42985
342.40        27.24763
342.85        27.15237
343.30        27.12096
343.75        27.14443
344.20        27.20599
344.66        27.29222
345.11        27.40271
345.56        27.50233
346.01        27.53459
346.46        27.49469
346.91         27.4033
347.36        27.29627
347.81        27.23724
348.26        27.24066
348.72         27.2794
349.17        27.34683
349.62        27.44383
350.07        27.55847
350.52        27.69818
350.97        27.79445
351.42        27.73742
351.87         27.5195
352.32        27.17727
352.77        26.83932
353.22        26.69782
353.67        26.78432
354.13        27.04217
354.58        27.33496
355.03        27.43243
355.48        27.27775
355.93        26.94901
356.38        26.57308
356.83        26.34103
357.28        26.29495
357.73         26.3624
358.18        26.46376
358.63        26.47339
359.08        26.35232
359.53        26.15177
359.98        25.90005
360.43        25.63082
360.88        25.36333
361.33        25.08552
361.78        24.82412
362.23        24.62798
362.68        24.50677
363.13        24.45309
363.58         24.4265
364.03        24.35696
364.48        24.22558
364.93        24.04653
365.38        23.85471
365.83        23.71199
366.28        23.63221
366.73        23.59233
367.18        23.55499
367.63        23.46292
368.08        23.30448
368.53        23.10389
368.98         22.8921
369.43        22.71555
369.88        22.58882
370.33        22.49653
370.78        22.42793
371.23        22.36626
371.68        22.30232
372.13        22.24079
372.58        22.17508
373.03        22.09295
373.48        21.99201
373.93        21.87288
374.38        21.74256
374.83        21.61703
375.28        21.49973
375.72        21.37831
376.17         21.2654
376.62        21.15163
377.07        21.03656
377.52        20.92882
377.97        20.81712
378.42        20.68562
378.87        20.53581
379.32        20.36865
379.77        20.22161
380.22        20.14838
380.67         20.1515
381.11        20.22181
381.56        20.28033
382.01        20.21452
382.46        20.00858
382.91        19.71109
383.36        19.41652
383.81        19.25487
384.26        19.24618
384.71        19.34517
385.15        19.48341
385.60         19.5493
386.05         19.5061
386.50        19.38939
386.95        19.23527
387.40        19.09962
387.85         19.0032
388.29         18.9177
388.74        18.85586
389.19        18.79289
389.64        18.72267
390.09        18.64911
390.54        18.58097
390.98        18.52592
391.43        18.49391
391.88        18.47513
392.33        18.44872
392.78        18.38527
393.23        18.28421
393.67        18.15185
394.12        18.02879
394.57        17.93863
395.02        17.88487
395.47        17.84712
395.91        17.82348
396.36        17.79939
396.81        17.77936
397.26        17.77697
397.71        17.75987
398.15         17.6901
398.60        17.59164
399.05        17.40492
399.50        17.21555
399.95        17.27457
400.39         17.5403
400.84        17.67053
401.29        17.61553
401.74        17.57294
402.18        17.53424
402.63         17.3459
403.08        17.08494
403.53        16.95117
403.97        16.97479
404.42        17.10159
404.87        17.24966
405.32        17.28564
405.76        17.17735
406.21        16.97933
406.66        16.77313
407.11        16.68414
407.55        16.74506
408.00        16.90677
408.45        17.09585
408.90        17.17521
409.34        17.10316
409.79        16.92949
410.24        16.72687
410.68         16.5905
411.13        16.54938
411.58        16.57347
412.03        16.62218
412.47        16.62924
412.92        16.57105
413.37        16.47907
413.81        16.39101
414.26        16.37184
414.71        16.42644
415.15        16.53686
415.60          16.657
416.05        16.72218
416.49        16.71336
416.94        16.64958
417.39        16.56755
417.83        16.52298
418.28        16.52972
418.73        16.56655
419.17        16.61774
419.62        16.65797
420.07        16.67885
420.51        16.68995
420.96        16.68921
421.41        16.66822
421.85        16.62326
422.30        16.54794
422.74         16.4625
423.19        16.47358
423.64        16.56067
424.08         16.6129
424.53        16.59945
424.98        16.59765
425.42         16.6112
425.87        16.54163
426.31        16.42782
426.76        16.45084
427.21        16.57689
427.65        16.56038
428.10         16.4244
428.54        16.38012
428.99        16.43707
429.44        16.52278
429.88        16.60221
430.33        16.55603
430.77        16.43824
431.22        16.55618
431.66        16.84488
432.11        16.93623
432.56        16.81708
433.00        16.64802
433.45        16.45428
433.89        16.40623
434.34        16.55166
434.78        16.26672
435.23        16.45359
435.67        16.46416
436.12        16.52104
436.57        16.42434
437.01        16.22254
437.46        16.13192
437.90        16.16806
438.35        16.21962
438.79        16.25499
439.24        16.28582
439.68        16.30228
440.13        16.30665
440.57        16.30227
441.02        16.30765
441.46        16.32506
441.91         16.3063
442.35        16.25535
442.80        16.34081
443.24        16.49262
443.69        16.43125
444.13         16.2025
444.58         16.1351
445.02         16.2437
445.47        16.35666
445.91        16.43093
446.36        16.48026
446.80        16.48868
447.24        16.45542
447.69        16.40907
448.13        16.38784
448.58        16.40489
449.02        16.44512
449.47        16.49114
449.91        16.50643
450.36        16.48881
450.80        16.45059
451.25        16.41158
451.69        16.39064
452.13        16.39469
452.58        16.40956
453.02        16.43124
453.47         16.4572
453.91        16.48184
454.36        16.50993
454.80        16.51719
455.24         16.4632
455.69        16.35319
456.13        16.19447
456.58        16.05006
457.02        15.98782
457.46         16.0266
457.91        16.14061
458.35        16.26925
458.79        16.31942
459.24        16.28273
459.68        16.17901
460.13        16.07033
460.57        16.00822
461.01           16.02
461.46        16.07217
461.90        16.15001
462.34        16.21724
462.79        16.25332
463.23        16.27385
463.68        16.26811
464.12        16.22782
464.56        16.15417
465.01        16.07331
465.45         15.9789
465.89        15.90649
466.34        15.86218
466.78        15.83479
467.22        15.83348
467.67        15.85784
468.11        15.91238
468.55        15.98633
468.99        16.06014
469.44        16.10056
469.88        16.10075
470.32        16.06874
470.77        16.02075
471.21        15.98808
471.65        15.97968
472.10        15.99015
472.54        16.01266
472.98        16.04196
473.42        16.07379
473.87         16.1145
474.31        16.14985
474.75        16.17263
475.20        16.18415
475.64        16.18078
476.08        16.17846
476.52        16.17332
476.97        16.16555
477.41        16.20227
477.85        16.29074
478.29        16.21478
478.74        16.30641
479.18        16.34993
479.62        16.43275
480.06        16.50647
480.50        16.56977
480.95         16.6175
481.39         16.6247
481.83        16.72586
482.27        16.67231
482.72        16.66611
483.16        16.65825
483.60        16.65218
484.04        16.64956
484.48        16.74598
484.93         16.9407
485.37        16.87223
485.81        17.08789
486.25        17.21647
486.69        16.81292
487.14        17.17628
487.58        17.95108
488.02        17.69962
488.46        17.36015
488.90        17.51383
489.34        17.52428
489.79        17.74615
490.23        17.80352
490.67        17.94297
491.11        18.10681
491.55        18.12953
491.99        18.06136
492.43        18.08925
492.88        18.23417
493.32        18.39509
493.76        18.53893
494.20        18.67044
494.64        18.78576
495.08        18.84627
495.52        18.87707
495.96        19.04186
496.41        19.30784
496.85        19.37105
497.29        19.25242
497.73        19.43871
498.17        19.64053
498.61        19.73892
499.05        19.66096
499.49        19.66028
499.93        19.71542
500.37        19.91101
500.82        20.17778
501.26        20.34806
501.70        20.39561
502.14        20.41389
502.58        20.44864
503.02        20.53058
503.46        20.67127
503.90         20.8563
504.34        21.03754
504.78         21.1365
505.22        21.13568
505.66        21.06391
506.10        20.96764
506.54        20.91941
506.98        20.94222
507.42        21.01646
507.86         21.1232
508.30        21.23013
508.74         21.3238
509.18        21.41379
509.62        21.50096
510.06        21.58572
510.50        21.66719
510.94        21.73858
511.38        21.79876
511.82        21.84993
512.26        21.89293
512.70        21.92977
513.14        21.95984
513.58        21.98108
514.02          21.995
514.46        22.00357
514.90        22.01444
515.34        22.03896
515.78        22.07841
516.22        22.12867
516.66        22.17829
517.10        22.20897
517.54        22.21591
517.98        22.20387
518.42        22.18183
518.86        22.16495
519.30        22.15754
519.74        22.15501
520.18        22.15246
520.62        22.14145
521.06        22.12106
521.50        22.09732
521.93        22.07495
522.37        22.05286
522.81        22.03529
523.25        22.01842
523.69        22.00604
524.13        22.00538
524.57        22.01276
525.01        22.02115
525.45        22.01536
525.89        21.97138
526.32        21.88433
526.76        21.77283
527.20        21.64785
527.64        21.52796
528.08        21.42381
528.52        21.33263
528.96        21.26864
529.40        21.25227
529.83        21.28127
530.27        21.34766
530.71        21.41819
531.15        21.44165
531.59        21.40471
532.03        21.31834
532.46         21.2053
532.90        21.11959
533.34        21.07121
533.78        21.03538
534.22        20.99674
534.66        20.95627
535.09        20.89585
535.53        20.78154
535.97        20.63983
536.41        20.56347
536.85        20.56418
537.28        20.59444
537.72        20.64922
538.16        20.73574
538.60        20.84318
539.04        20.96624
539.47        21.07561
539.91        21.14053
540.35        21.15419
540.79        21.13051
541.22        21.09998
541.66        21.12078
542.10        21.20325
542.54        21.32816
542.97        21.47435
543.41         21.6159
543.85        21.73922
544.29        21.85803
544.72        21.96068
545.16        22.04387
545.60        22.10788
546.04        22.15632
546.47         22.2228
546.91        22.35917
547.35        22.56874
547.79        22.83251
548.22        23.10165
548.66        23.29605
549.10         23.4276
549.53        23.51073
549.97        23.57871
550.41        23.63304
550.84        23.71436
551.28        23.87049
551.72        24.07078
552.15        24.28606
552.59        24.53335
553.03        24.46157
553.46         24.7996
553.90        24.89585
554.34        24.96622
554.77         25.0136
555.21        25.06825
555.65        25.15891
556.08        25.28163
556.52        25.41426
556.96        25.53119
557.39        25.66211
557.83        25.78009
558.27        25.74754
558.70        25.61045
559.14        25.59636
559.57        25.70593
560.01        25.80075
560.45        25.86329
560.88         25.9483
561.32        26.06215
561.75        26.16076
562.19        26.25119
562.63        26.33863
563.06        26.41823
563.50        26.49256
563.93        26.53724
564.37         26.5839
564.80        26.64543
565.24        26.65378
565.68        26.57249
566.11        26.92064
566.55        26.73659
566.98        26.82002
567.42        26.91908
567.85        27.05938
568.29        27.24795
568.72        27.48919
569.16        27.78096
569.60        27.99077
570.03        28.20984
570.47        28.38252
570.90        28.53315
571.34        28.67171
571.77        28.73114
572.21        29.03037
572.64        29.02491
573.08        29.20809
573.51        29.24579
573.95        29.32161
574.38        29.44933
574.82        29.56029
575.25        29.45663
575.69        29.56124
576.12        29.78443
576.56         29.6576
576.99        29.76397
577.42        29.71619
577.86        29.68167
578.29        30.40194
578.73        29.96679
579.16        29.89553
579.60        29.61867
580.03        29.61883
580.47        29.51418
580.90        29.74129
581.33        29.55842
581.77        29.82408
582.20        29.31182
582.64        29.26209
583.07        29.20165
583.51        29.10853
583.94         29.0092
584.37        28.83916
584.81        28.65634
585.24        28.59949
585.68        28.68748
586.11        28.46125
586.54        28.60007
586.98        28.39483
587.41        28.10286
587.85        28.23757
588.28        27.81444
588.71        28.02143
589.15        27.84608
589.58        27.75571
590.01        27.90033
590.45        27.93444
590.88        27.94969
591.31         27.9185
591.75         27.9094
592.18         27.8048
592.61        27.59002
593.05        28.14508
593.48        28.20058
593.91        28.01369
594.35        28.26376
594.78        28.13119
595.21        27.99874
595.65        28.16014
596.08         28.6641
596.51        28.92514
596.94        28.83173
597.38        28.96495
597.81         29.3032
598.24        29.54728
598.68         29.7576
599.11         29.8586
599.54        30.53989
599.97        30.34624
600.41        30.79234
600.84        30.83384
601.27        31.31895
601.70        31.61386
602.14        32.09557
602.57        32.38895
603.00        32.68012
603.43        32.70012
603.87         33.6739
604.30        34.05294
604.73        34.28482
605.16        34.34637
605.60        34.91393
606.03        35.19536
606.46        35.35392
606.89        35.78545
607.32        36.50981
607.76        36.71801
608.19        37.20706
608.62        37.42941
609.05         37.7156
609.48        38.06171
609.92         38.9275
610.35        39.07069
610.78        38.78378
611.21        39.09226
611.64        39.44317
612.07        39.97985
612.50        40.26377
612.94        40.53801
613.37        40.68054
613.80        41.11164
614.23        40.77649
614.66        41.07658
615.09        41.64336
615.52        42.04361
615.96        42.21832
616.39        42.48307
616.82        42.78142
617.25        42.95968
617.68        43.03339
618.11        43.26111
618.54        43.62159
618.97        43.83095
619.40        43.89151
619.84        44.17395
620.27         44.2719
620.70        44.55707
621.13        44.81089
621.56        44.66786
621.99        44.24712
622.42        44.15379
622.85        44.41596
623.28        44.62767
623.71        44.74485
624.14        44.67825
624.57        45.02924
625.00         44.7782
625.43        44.96933
625.86        44.92665
626.29        44.96221
626.72        44.50197
627.15        44.65797
627.58        44.49723
628.01        44.30884
628.44        44.13314
628.87        43.80507
629.30         43.5067
629.73        43.20809
630.16        42.94747
630.59        42.72911
631.02        42.54602
631.45        42.37961
631.88         42.1877
632.31        41.95206
632.74        41.68089
633.17        41.35405
633.60        40.94176
634.03        40.45044
634.46        39.89454
634.89        39.32513
635.32        38.83414
635.75        38.44669
636.18        38.09747
636.61        37.77543
637.04        37.47932
637.47        37.19186
637.89        36.91021
638.32        36.59678
638.75           36.23
639.18        35.81437
639.61        35.36123
640.04        34.92785
640.47        34.60209
640.90        34.40059
641.33         34.3019
641.76        34.24941
642.18        34.15057
642.61        33.97073
643.04         33.7419
643.47        33.51585
643.90        33.37565
644.33        33.34236
644.76        33.39078
645.18        33.47738
645.61        33.52386
646.04        33.51768
646.47        33.49052
646.90        33.49024
647.33        33.58328
647.75        33.77345
648.18        34.06929
648.61        34.45007
649.04         34.7516
649.47        34.91761
649.89        35.52597
650.32        35.64917
650.75        35.95231
651.18        36.21308
651.61        36.71534
652.03        37.40865
652.46        37.91784
652.89        38.25396
653.32        38.66502
653.74        39.21037
654.17        39.65372
654.60        40.21314
655.03        40.59306
655.46         40.6726
655.88        41.01147
656.31         42.2304
656.74        43.28024
657.16        44.93936
657.59        46.91266
658.02         44.3264
658.45         44.5846
658.87        44.47703
659.30        45.00373
659.73        44.96235
660.15        45.81404
660.58        45.57341
661.01        45.83229
661.44         46.1152
661.86          46.131
662.29        45.94616
662.72        46.54043
663.14        46.97134
663.57        47.26866
664.00        47.21875
664.42        47.44988
664.85        47.98383
665.27        48.47756
665.70        48.83636
666.13        49.11137
666.55        49.28651
666.98        49.29764
667.41          49.188
667.83         49.3492
668.26        49.29646
668.69        49.44435
669.11         49.6383
669.54        49.83855
669.96        50.03699
670.39        50.35714
670.82        50.54981
671.24        50.82633
671.67        51.11355
672.09         51.1431
672.52        51.38616
672.94        51.48965
673.37        51.60045
673.80         51.6973
674.22        51.79179
674.65        51.86274
675.07        51.92105
675.50        51.97596
675.92        52.03428
676.35        52.08538
676.77        52.13332
677.20        52.19755
677.62        52.30714
678.05        52.41836
678.47        52.64048
678.90        52.92821
679.32        53.16024
679.75        53.35447
680.17        53.46135
680.60         53.5199
681.02        53.55763
681.45        53.60307
681.87        53.70026
682.30          53.858
682.72        54.07785
683.15        54.33894
683.57         54.6039
684.00        54.74437
684.42        54.78899
684.85        54.91544
685.27        55.12524
685.70        55.31846
686.12        55.46032
686.54        55.55924
686.97        55.60751
687.39        55.61605
687.82        55.59774
688.24        55.58781
688.66        55.59873
689.09        55.62587
689.51        55.69107
689.94        55.79718
690.36        55.94729
690.78        56.12693
691.21        56.32669
691.63        56.50417
692.06        56.68158
692.48        56.85231
692.90        56.99227
693.33        57.05545
693.75        57.03636
694.17        56.91938
694.60        56.81023
695.02        56.87301
695.44        57.10905
695.87        57.53074
696.29        57.98451
696.71         57.9281
697.14        57.48596
697.56        57.42176
697.98        57.75517
698.41        58.03459
698.83        58.00114
699.25        58.27235
699.68        58.68063
700.10        58.87138
700.52        58.77623
700.94        58.70856
701.37        58.42946
701.79        58.46117
702.21        58.74166
702.64        59.09613
703.06         59.5766
703.48        59.87203
703.90        59.98108
704.33        59.93608
704.75        59.79808
705.17        59.71265
705.59         59.6922
706.01        59.57623
706.44        59.43257
706.86        59.49474
707.28        59.75563
707.70        60.16969
708.12        60.63504
708.55        60.83959
708.97        60.76934
709.39        61.00686
709.81        60.98246
710.23        61.04216
710.66        61.02069
711.08        61.04454
711.50        61.09624
711.92        61.12443
712.34        61.13669
712.76         61.1579
713.19        61.18442
713.61        61.23715
714.03        61.30664
714.45        61.39019
714.87        61.50137
715.29        61.66626
715.71        61.87951
716.13        62.11934
716.56        62.34348
716.98        62.53853
717.40        62.65219
717.82        62.74675
718.24        62.82103
718.66        62.60417
719.08        62.54657
719.50        62.33644
719.92        62.17078
720.34        62.14159
720.76        62.27186
721.19         62.5046
721.61         62.8229
722.03        63.15846
722.45        63.46387
722.87         63.7397
723.29        63.92529
723.71        63.92955
724.13        63.75158
724.55        63.43114
724.97        63.07178
725.39        62.85299
725.81        62.83065
726.23        62.94167
726.65        63.13667
727.07        63.47263
727.49        63.68621
727.91        63.96435
728.33        64.22205
728.75        64.47195
729.17        64.68421
729.59         64.7598
730.01        64.71326
730.43        64.72935
730.85        64.84074
731.27        64.83617
731.69        64.64883
732.10        64.97852
732.52         64.5757
732.94         64.4621
733.36        64.33089
733.78        64.25569
734.20        64.24906
734.62        64.29249
735.04        64.87773
735.46         64.4724
735.88        65.10006
736.30         65.2084
736.72        65.37917
737.13        65.55636
737.55        65.68525
737.97        65.93543
738.39        66.18409
738.81        65.91471
739.23        65.29701
739.65        65.27605
740.06        65.78161
740.48         66.0268
740.90        65.97062
741.32        65.95964
741.74        66.26237
742.16        66.41974
742.57        66.49362
742.99        66.53669
743.41        66.55144
743.83        66.50327
744.25        66.40796
744.67        66.29845
745.08        66.23312
745.50        66.25605
745.92        66.37464
746.34        66.56925
746.75        66.77626
747.17        66.82156
747.59        66.68464
748.01        66.57189
748.42        66.49791
748.84        66.20392
749.26        65.89066
749.68        66.10984
750.09        66.76219
750.51        67.43539
750.93        67.83374
751.35        67.50226
751.76        66.64263
752.18        66.13585
752.60        66.05394
753.01        66.18195
753.43        65.91306
753.85        65.90338
754.27        65.97671
754.68         66.1843
755.10        66.46138
755.52        66.52831
755.93        66.43343
756.35         66.5795
756.77        66.99041
757.18        67.18443
757.60        67.13978
758.02        67.43495
758.43        67.94112
758.85        67.21392
759.26        67.19697
759.68         66.5801
760.10        66.51727
760.51        67.50879
760.93        67.85895
761.34        67.45437
761.76        67.75982
762.18         67.5112
762.59        67.45012
763.01        67.65366
763.42         68.1117
763.84           68.39
764.26        68.40292
764.67         68.1031
765.09        67.70061
765.50         67.7648
765.92         68.2403
766.33        68.29182
766.75        67.81268
767.16        67.89332
767.58        67.67815
768.00        67.70248
768.41        67.77383
768.83        68.02697
769.24        68.31715
769.66        68.59712
770.07        68.76296
770.49        68.20113
770.90        67.26548
771.32        67.78031
771.73        69.13306
772.15        69.65794
772.56        69.12617
772.97        68.61285
773.39        68.34618
773.80        68.26847
774.22        68.40714
774.63        68.71004
775.05        69.00957
775.46        69.22077
775.88        69.25682
776.29        69.11843
776.70         68.9146
777.12        68.89052
777.53         69.1006
777.95        69.41699
778.36        69.73803
778.77        69.86155
779.19        69.76543
779.60        69.55573
780.02        69.28802
780.43        69.14515
780.84        69.20847
781.26        69.06005
781.67         68.8491
782.09        69.64178
782.50        71.06383
782.91        71.03047
783.33        70.04324
783.74        69.60884
784.15        69.92395
784.57        70.03467
784.98        69.91173
785.39        69.68977
785.81        69.51228
786.22        69.95327
786.63        70.81301
787.04        71.16242
787.46        70.92603
787.87        70.56092
788.28        70.27872
788.70        70.13325
789.11        70.15376
789.52        70.52544
789.93        71.02876
790.35        70.89583
790.76         70.2503
791.17        70.05743
791.58        70.39919
792.00        70.57372
792.41        70.54445
792.82        70.84548
793.23         71.2965
793.65        71.02513
794.06        70.30732
794.47        70.30906
794.88        70.84081
795.29        71.63458
795.71        70.83909
796.12        70.63018
796.53         70.8537
796.94        70.71335
797.35        70.44983
797.76        70.94904
798.18         71.9937
798.59        72.48164
799.00        72.27772
799.41        71.80847
799.82        71.50003
800.23        71.25637
800.64        71.22857
801.06        71.34339
801.47        71.55077
801.88        71.67055
802.29        71.63747
802.70        71.49704
803.11        71.29542
803.52        71.10688
803.93        70.98898
804.34        70.93732
804.75        70.92405
805.17         71.0243
805.58        71.29341
805.99        71.29277
806.40        71.14272
806.81        72.01294
807.22        73.45097
807.63        73.19073
808.04        71.50231
808.45        70.79175
808.86        71.24171
809.27        71.53234
809.68        71.49891
810.09         71.5032
810.50        71.50886
810.91        71.42514
811.32        71.36119
811.73        71.48709
812.14        71.82526
812.55        72.32604
812.96         72.8357
813.37        73.05625
813.78        72.90659
814.19        72.50537
814.60        71.99937
815.01        71.58051
815.42        71.30663
815.83        71.12287
816.24         71.0404
816.65        71.08244
817.05         71.2421
817.46        71.48374
817.87        71.75141
818.28        71.90382
818.69        71.92142
819.10        71.82764
819.51        71.69632
819.92        71.74702
820.33        72.03555
820.74        72.27487
821.14        72.42751
821.55        72.94818
821.96        73.56977
822.37        73.14822
822.78        71.92022
823.19        71.38122
823.60        71.70369
824.00        72.11713
824.41        72.41265
824.82        72.70437
825.23        72.91129
825.64        73.01015
826.04         73.0398
826.45        73.02086
826.86        72.98488
827.27         72.9267
827.68        72.85053
828.08        72.79385
828.49        72.71521
828.90        72.63797
829.31        72.59342
829.72        72.62113
830.12        72.74771
830.53         72.9068
830.94        73.02471
831.35        72.92765
831.75        72.60818
832.16        72.11015
832.57        71.60731
832.97        71.34889
833.38         71.3965
833.79        71.65054
834.20        72.02711
834.60        72.39053
835.01        72.68409
835.42        72.98197
835.82        73.23096
836.23        73.25681
836.64        73.07549
837.04        72.70148
837.45        72.36501
837.86        72.51131
838.26         73.2399
838.67        74.37683
839.08        75.53599
839.48         75.9738
839.89        75.48563
840.29        74.33129
840.70        73.06018
841.11        72.27802
841.51        72.15669
841.92        72.49831
842.33        73.10654
842.73        73.63934
843.14        73.85509
843.54        73.91275
843.95        73.90956
844.35        74.05054
844.76        74.35703
845.17        74.74023
845.57        75.06031
845.98         75.0778
846.38        74.77349
846.79        74.22992
847.19        73.64179
847.60         73.2907
848.00        73.26456
848.41        73.45467
848.81        73.75748
849.22        73.90658
849.62        73.86693
850.03        73.70798
850.43        73.51093
850.84        73.32888
851.24        73.24536
851.65        73.16857
852.05        73.22198
852.46        73.50241
852.86        73.99347
853.27        74.62939
853.67        75.17101
854.07         75.4175
854.48        75.30697
854.88        74.93331
855.29        74.35743
855.69         73.8491
856.10        73.44704
856.50        73.18106
856.90        73.01648
857.31        72.90917
857.71        72.88833
858.12        72.89832
858.52        72.97491
858.92        73.04117
859.33        73.05333
859.73        73.07787
860.13        73.00851
860.54        72.70627
860.94        72.21962
861.34        71.58025
861.75        71.01942
862.15        70.96136
862.55         71.4587
862.96        72.34051
863.36        73.34914
863.76        73.94416
864.17        73.94243
864.57        73.52514
864.97        72.82367
865.38        72.06052
865.78        71.38111
866.18        70.74138
866.58        70.24467
866.99        70.07872
867.39        70.29483
867.79        70.82128
868.19        71.53288
868.60        72.19317
869.00        72.74903
869.40        73.23083
869.80         73.5433
870.21        73.53822
870.61        73.27342
871.01        72.74367
871.41        72.15636
871.81        71.81095
872.22        71.75287
872.62        71.91082
873.02        72.15874
873.42        72.24205
873.82        72.08621
874.22        71.78499
874.63        71.41283
875.03        71.10587
875.43        70.90408
875.83        70.76204
876.23        70.70182
876.63        70.76753
877.03        70.95017
877.44        71.20761
877.84        71.47835
878.24        71.64851
878.64        71.63997
879.04        71.36238
879.44        70.95129
879.84        70.71169
880.24        70.68302
880.64        70.75996
881.04        70.78732
881.44        70.53671
881.84        69.98294
882.24        69.23672
882.65        68.53245
883.05         68.2171
883.45        68.37064
883.85        68.87909
884.25        69.55553
884.65        70.07616
885.05        70.32175
885.45         70.3778
885.85        70.31779
886.25        70.26119
886.65        70.26048
887.05        70.27377
887.45        70.30486
887.85        70.37697
888.25        70.47723
888.65        70.58623
889.04        70.68618
889.44        70.77306
889.84        70.81592
890.24        70.81845
890.64         70.7081
891.04        70.37621
891.44        69.84449
891.84        69.19498
892.24        68.59283
892.64        68.26904
893.04        68.28313
893.44        68.58289
893.83         69.0916
894.23        69.61305
894.63        70.08373
895.03        70.50585
895.43        70.88919
895.83        71.27146
896.23        71.62527
896.63        71.87801
897.02        71.93301
897.42        71.68793
897.82        71.15017
898.22        70.43436
898.62         69.6381
899.01        68.87493
899.41        68.23505
899.81        67.70069
900.21        67.38592
900.61        67.46097
901.00        67.92194
901.40        68.68939
901.80        69.52671
902.20        70.04713
902.59        70.16129
902.99        69.96118
903.39         69.6062
903.79           69.38
904.18        69.35834
904.58        69.43525
904.98        69.60725
905.38        69.88246
905.77        70.23568
906.17        70.71452
906.57        71.11532
906.96        71.08463
907.36         70.5687
907.76        69.69385
908.15        68.87375
908.55        68.75224
908.95        69.45834
909.34         70.7801
909.74        72.23105
910.14        73.08668
910.53        73.09399
910.93        72.49842
911.33        71.52527
911.72        70.51669
912.12        69.70725
912.52        69.02879
912.91        68.53758
913.31        68.34608
913.70        68.45132
914.10        68.79439
914.49        69.37763
914.89        70.07674
915.29        70.82082
915.68        71.61186
916.08        72.15363
916.47        72.06496
916.87        71.33438
917.26        70.08474
917.66        68.84409
918.05        68.25163
918.45        68.44943
918.84        69.31953
919.24        70.43245
919.64        71.14263
920.03        71.25205
920.42        70.89547
920.82        70.46152
921.21        70.51137
921.61        71.14509
922.00        72.20129
922.40        73.24017
922.79        73.66292
923.19        73.27671
923.58        72.34361
923.98        71.26783
924.37        70.54787
924.77        70.33845
925.16        70.45338
925.55        70.74986
925.95        70.96127
926.34        71.00188
926.74        70.94365
927.13        70.78659
927.52         70.4503
927.92        70.00082
928.31        69.44456
928.70        68.92987
929.10        68.66638
929.49        68.68308
929.89        68.86912
930.28         69.2457
930.67        69.71512
931.07        70.18621
931.46        70.75813
931.85        71.17587
932.24        71.08633
932.64        70.49815
933.03         69.4793
933.42        68.53597
933.82        68.40628
934.21        69.22132
934.60        70.82771
934.99         72.6303
935.39        73.54089
935.78        73.29739
936.17         72.1081
936.56         70.6392
936.96          69.952
937.35        70.29527
937.74        71.33659
938.13        72.44402
938.53         72.6373
938.92        71.71964
939.31        70.10619
939.70        68.38005
940.09        67.34656
940.49        67.17883
940.88        67.64771
941.27        68.48696
941.66        69.21113
942.05         69.6234
942.44        69.89273
942.84        70.08115
943.23        70.26343
943.62        70.48362
944.01        70.63602
944.40        70.79239
944.79        71.12607
945.18        71.63052
945.57         72.2454
945.97        72.70596
946.36        72.66367
946.75        72.01841
947.14        70.97244
947.53        69.80373
947.92        68.88886
948.31        68.35098
948.70        68.10422
949.09        68.14083
949.48        68.43404
949.87        68.92956
950.26        69.61617
950.65        70.35741
951.04        70.92487
951.43        71.22626
951.82        71.26239
952.21        71.08791
952.60        70.83019
952.99        70.56443
953.38        70.31072
953.77        70.06275
954.16        69.80588
954.55        69.53573
954.94        69.22638
955.33        69.02331
955.72        69.15614
956.11        69.64703
956.50        70.45711
956.89        71.15521
957.28        71.02238
957.66        69.94837
958.05        68.23457
958.44        66.56436
958.83         65.9243
959.22        66.49305
959.61        67.98736
960.00        69.82329
960.39        70.89017
960.78        70.81499
961.16        69.92787
961.55        68.77737
961.94        68.08151
962.33        68.04693
962.72        68.47102
963.11        69.11609
963.49        69.57951
963.88         69.6196
964.27        69.39394
964.66        69.17168
965.04        69.35686
965.43        69.97502
965.82        70.94202
966.21        71.83233
966.60        71.87328
966.98        70.86282
967.37         69.1491
967.76        67.41477
968.15        66.50214
968.53        66.56632
968.92        67.42085
969.31        68.53637
969.69        68.87791
970.08        68.08173
970.47        66.52924
970.86        65.03615
971.24        64.73791
971.63        65.84682
972.02        68.04733
972.40        70.59323
972.79        71.70975
973.17         70.9182
973.56        68.83734
973.95        66.45667
974.33        65.05672
974.72        64.91938
975.11        65.62857
975.49        66.79603
975.88        67.60365
976.26        67.77972
976.65        67.56606
977.04        67.14342
977.42         66.7216
977.81        66.37643
978.19        65.99898
978.58        65.76884
978.96        65.98171
979.35        66.63605
979.74        67.66735
980.12        68.85174
980.51        69.51459
980.89        69.58614
981.28        69.23117
981.66        68.69087
982.05        68.29713
982.43        68.18335
982.82        68.23158
983.20        68.62553
983.59        69.57047
983.97        71.12988
984.35        73.18626
984.74        75.16503
985.12        76.33947
985.51          76.412
985.89        75.56458
986.28        74.33727
986.66        73.50188
987.04        73.33098
987.43        73.59108
987.81        73.97238
988.20        73.75344
988.58        72.79195
988.96        71.30402
989.35        69.76075
989.73        68.74564
990.12         68.3729
990.50         68.5471
990.88        68.80989
991.27        68.40304
991.65        67.20363
992.03        65.47672
992.42        63.99333
992.80        63.78726
993.18        65.04459
993.56        67.49517
993.95        70.20018
994.33        71.53046
994.71        70.86034
995.10        68.83627
995.48        66.49788
995.86        65.46523
996.24         66.1283
996.63        67.86193
997.01         70.3141
997.39         72.3231
997.77        73.26868
998.15        73.59898
998.54        73.16889
998.92         71.6195
999.30        69.23473
999.68        66.19267
1000.06        63.57232
1000.45        62.92646
1000.83        64.62095
1001.21        68.38325
1001.59         73.2039
1001.97        76.45053
1002.35         77.0191
1002.73         75.6965
1003.12        73.65826
1003.50        72.41041
1003.88        72.45732
1004.26        73.06597
1004.64        74.32679
1005.02         76.3597
1005.40        78.86069
1005.78        82.00211
1006.16         84.2337
1006.54        83.08112
1006.92        78.51207
1007.30        71.50144
1007.69        64.75484
1008.07        62.01648
1008.45        64.26888
1008.83         70.7532
1009.21        79.43279
1009.59        85.09234
1009.97        85.18301
1010.35          81.145
1010.73         75.1315
1011.11        70.32527
1011.49        67.71706
1011.86        66.31943
1012.24        65.77418
1012.62        65.62702
1013.00        65.65769
1013.38        66.18215
1013.76        67.14426
1014.14        68.08625
1014.52        68.73344
1014.90        68.97493
1015.28        68.85252
1015.66        68.61655
1016.04         68.3464
1016.41        67.97816
1016.79        67.52588
1017.17        67.11523
1017.55        66.79824
1017.93        66.60131
1018.31         66.5043
1018.69         66.4107
1019.06        66.33347
1019.44        66.34351
1019.82        66.41673
1020.20        66.50326
1020.58        66.53332
1020.95        66.29336
1021.33        66.18641
1021.71        66.62365
1022.09        67.69036
1022.46         69.6113
1022.84        71.45591
1023.22        71.15759
1023.60        68.22484
1023.97        63.34314
1024.35         59.1315
1024.73        58.49083
