SpectraSmart Spectrum 2.9.0.0
--------- Device Information -----------
Spectrum Name :  反射率_0
Saving Time :  2024/04/26 22:55:22
Spectro-Module Model Name : SE2030-DUVN
Spectro-Module Serial Number : OS361AC55029948
Wavelength Start : 200
Wavelength End : 1025
Wavelength Unit : Wavelength(nm)
Spectrum Unit : Reflectance(%)
-----------Spectrum Setting ------------
Integration Time : 20ms
Average : 10
Boxcar : 0
Background removal :  enabled
linearity correction :  enabled
SC :  disabled
Intensity correction :  disabled
DWT denoise :  enabled
savitzky-golay :  disabled
FFT :  disabled
Running average :  disabled
Kalman :  disabled
High pass :  disabled
---------------BEGIN--------------------
Wavelength(nm)             Reflectance(%)
200.29               0
200.75        10.00407
201.21        15.21321
201.67        20.56629
202.13        24.19549
202.58        26.02816
203.04        27.24824
203.50        28.01865
203.96        28.23828
204.42         27.8132
204.88        26.11852
205.34        23.86355
205.80        22.83327
206.26         23.3027
206.72         24.7887
207.18        25.86333
207.64        24.92758
208.10        21.59903
208.55        15.45134
209.01        6.671518
209.47        1.534383
209.93        3.894235
210.39        10.01399
210.85        15.22469
211.31        17.43562
211.77        17.00167
212.23        13.31428
212.69        4.775855
213.14        3.867347
213.60        26.27154
214.06        43.99294
214.52        48.89245
214.98        46.99116
215.44        41.48471
215.90        33.17721
216.36        24.13986
216.81          17.517
217.27        14.69416
217.73        15.14485
218.19        18.58802
218.65        21.77837
219.11        22.35311
219.57        21.69538
220.02         21.9647
220.48        25.21527
220.94        31.98476
221.40        43.15153
221.86        58.08361
222.32        66.30839
222.77        59.89027
223.23        46.89407
223.69         34.9199
224.15         27.8578
224.61        24.81104
225.06        23.63556
225.52        24.09871
225.98        26.16909
226.44        29.46621
226.90        33.99807
227.36        38.29189
227.81        39.63847
228.27         37.8189
228.73        33.89385
229.19        30.04306
229.65        28.78383
230.10        30.26092
230.56        33.61662
231.02        37.25523
231.48        38.60939
231.93        37.22208
232.39        34.39186
232.85        31.57448
233.31        30.63353
233.77        31.74074
234.22        34.16932
234.68        36.91668
235.14        38.56063
235.60        38.65808
236.05        37.68736
236.51        36.04223
236.97        34.55624
237.43        33.71683
237.88        33.32218
238.34        33.47339
238.80        34.53001
239.26        36.66967
239.71        40.49057
240.17        45.57588
240.63        50.28272
241.08        53.36181
241.54        53.96463
242.00        53.50363
242.46        55.79925
242.91        63.40988
243.37        77.49855
243.83        97.55454
244.28        111.0479
244.74         103.009
245.20        77.23434
245.66        49.99108
246.11        33.15359
246.57        26.43705
247.03         25.5125
247.48        28.69344
247.94        32.70198
248.40        35.56654
248.85        37.86847
249.31        39.35232
249.77        39.55789
250.22        38.48779
250.68        35.76199
251.14        32.10454
251.59         30.7237
252.05        33.33254
252.51        38.56216
252.96        42.79966
253.42        42.94104
253.88        39.73088
254.33        34.88517
254.79        31.42409
255.25        31.74023
255.70        35.51478
256.16        41.49174
256.62         47.1016
257.07        48.41148
257.53        46.10598
257.99        42.53283
258.44        39.42888
258.90        38.41495
259.35        38.81493
259.81        40.00947
260.27        41.16137
260.72         41.3189
261.18        40.58986
261.63        39.28522
262.09        38.03949
262.55        37.16317
263.00        36.60012
263.46        36.25494
263.91        35.82613
264.37        35.13142
264.83        34.17142
265.28        33.08002
265.74        32.12298
266.19        31.40554
266.65        30.97966
267.11        30.68626
267.56        30.50255
268.02        30.39106
268.47        30.30768
268.93         30.2882
269.38        30.12935
269.84        29.56084
270.30        28.56951
270.75        27.25504
271.21        25.99316
271.66        25.31853
272.12        25.31716
272.57         25.7825
273.03        26.34503
273.48         26.4042
273.94        25.85299
274.39        24.89257
274.85        23.81724
275.31        22.92478
275.76        22.29606
276.22         21.8502
276.67        21.53102
277.13        21.32469
277.58        21.16199
278.04        21.05425
278.49        20.91961
278.95        20.70984
279.40        20.37568
279.86        19.99237
280.31        19.51566
280.77        18.95955
281.22        18.33894
281.68         17.7115
282.13        17.17945
282.59         16.9305
283.04        16.95351
283.50        17.18537
283.95        17.47629
284.41        17.58096
284.86        17.44009
285.32        17.15247
285.77        16.80729
286.22        16.57401
286.68        16.49191
287.13        16.47563
287.59        16.51077
288.04        16.55066
288.50        16.58325
288.95        16.60848
289.41        16.59835
289.86        16.46057
290.32        16.22191
290.77        15.91857
291.22        15.64073
291.68        15.51675
292.13        15.57075
292.59        15.76851
293.04        16.07919
293.50        16.46444
293.95        16.88566
294.40        17.35008
294.86        17.80505
295.31        18.16455
295.77        18.42452
296.22        18.60574
296.68         18.7855
297.13        19.08244
297.58        19.52828
298.04        20.08605
298.49          20.705
298.95        21.31235
299.40        21.86909
299.85        22.39095
300.31        22.86756
300.76        23.28259
301.21          23.636
301.67        23.93583
302.12        24.18853
302.58        24.45324
303.03        24.72513
303.48        25.01288
303.94        25.30247
304.39         25.5477
304.84        25.74912
305.30        25.92618
305.75         26.0906
306.20        26.30289
306.66        26.57144
307.11        26.86147
307.57        27.12406
308.02        27.25369
308.47        27.24164
308.93         27.1254
309.38        26.96766
309.83        26.90185
310.29        26.95351
310.74        27.08058
311.19        27.20073
311.65         27.1748
312.10        26.97367
312.55        26.65214
313.00        26.30697
313.46        26.07856
313.91        25.98769
314.36        25.99228
314.82        26.02171
315.27        25.96998
315.72        25.80461
316.18        25.57108
316.63        25.30255
317.08        25.05988
317.53        24.86042
317.99        24.67501
318.44        24.50148
318.89        24.33136
319.35          24.158
319.80        23.98673
320.25        23.80051
320.70        23.56876
321.16        23.28644
321.61        22.97082
322.06        22.64537
322.51        22.35331
322.97        22.10641
323.42        21.89796
323.87        21.72117
324.32         21.5666
324.78        21.41754
325.23        21.28547
325.68        21.13963
326.13        20.93731
326.59        20.67487
327.04        20.37661
327.49        20.07996
327.94        19.84613
328.39         19.6862
328.85        19.57183
329.30         19.4965
329.75        19.41219
330.20        19.30163
330.66        19.17181
331.11         19.0279
331.56        18.86313
332.01        18.67647
332.46        18.46191
332.92         18.2208
333.37        17.99172
333.82        17.78024
334.27        17.59509
334.72        17.43004
335.17        17.26746
335.63        17.10485
336.08         16.9559
336.53        16.84607
336.98        16.82279
337.43        16.88575
337.88         17.0053
338.34        17.12232
338.79        17.15744
339.24        17.07773
339.69        16.90925
340.14        16.67504
340.59        16.41911
341.05        16.17511
341.50        15.93605
341.95        15.73546
342.40        15.62055
342.85        15.59474
343.30         15.6446
343.75        15.72223
344.20        15.74532
344.66         15.6952
345.11        15.59288
345.56        15.46747
346.01        15.37032
346.46        15.32012
346.91        15.29892
347.36        15.30376
347.81        15.33396
348.26        15.37948
348.72        15.43585
349.17        15.47986
349.62        15.48296
350.07        15.43781
350.52        15.35604
350.97        15.23758
351.42        15.08652
351.87         14.9175
352.32        14.73868
352.77        14.58882
353.22        14.52076
353.67        14.54049
354.13        14.63506
354.58        14.75347
355.03        14.81545
355.48        14.79628
355.93         14.7135
356.38        14.60641
356.83        14.53906
357.28        14.52211
357.73        14.52859
358.18         14.5219
358.63         14.4459
359.08        14.29053
359.53        14.08492
359.98        13.85785
360.43        13.64644
360.88        13.46371
361.33        13.29868
361.78         13.1559
362.23        13.04313
362.68        12.95948
363.13        12.90647
363.58        12.86089
364.03        12.78357
364.48        12.66634
364.93        12.51624
365.38        12.36434
365.83        12.26497
366.28        12.22867
366.73        12.23589
367.18        12.24877
367.63        12.20862
368.08        12.10137
368.53        11.94692
368.98        11.77519
369.43        11.63209
369.88        11.53347
370.33        11.46933
370.78        11.42345
371.23        11.36969
371.68         11.3002
372.13        11.22112
372.58        11.15194
373.03        11.12194
373.48        11.13168
373.93        11.16599
374.38        11.18604
374.83        11.13334
375.28        10.99831
375.72        10.80054
376.17        10.59151
376.62        10.43246
377.07        10.34029
377.52         10.2983
377.97        10.28273
378.42        10.25505
378.87         10.2032
379.32        10.13856
379.77        10.07565
380.22        10.03349
380.67        10.01469
381.11         10.0139
381.56        10.00716
382.01         9.96708
382.46        9.891546
382.91        9.794466
383.36        9.705177
383.81        9.663311
384.26        9.672988
384.71         9.71906
385.15        9.773814
385.60        9.796557
386.05         9.77371
386.50        9.721813
386.95        9.656141
387.40        9.600698
387.85        9.564818
388.29        9.534159
388.74        9.521651
389.19        9.526789
389.64        9.544903
390.09        9.571681
390.54        9.592052
390.98        9.577381
391.43        9.529525
391.88         9.45933
392.33        9.378847
392.78        9.304901
393.23        9.245493
393.67        9.194019
394.12         9.16658
394.57        9.167434
395.02        9.194938
395.47        9.242756
395.91        9.300646
396.36        9.341653
396.81        9.362121
397.26        9.367266
397.71        9.356015
398.15        9.334821
398.60        9.319396
399.05        9.270039
399.50        9.207551
399.95        9.229857
400.39        9.310151
400.84        9.278668
401.29        9.145368
401.74        9.069868
402.18        9.061993
402.63        9.029127
403.08        8.978337
403.53        8.961329
403.97        8.980723
404.42        9.022798
404.87        9.068201
405.32        9.084089
405.76        9.061805
406.21         9.01501
406.66        8.968139
407.11        8.962162
407.55        9.007044
408.00        9.084029
408.45         9.16398
408.90        9.190088
409.34         9.14729
409.79        9.058743
410.24         8.95502
410.68        8.874604
411.13        8.831527
411.58        8.812204
412.03        8.810431
412.47        8.816921
412.92        8.822291
413.37         8.83273
413.81         8.84097
414.26        8.841424
414.71         8.83118
415.15        8.812457
415.60        8.788727
416.05        8.774137
416.49        8.773184
416.94        8.779623
417.39        8.791347
417.83         8.80453
418.28         8.81484
418.73        8.822584
419.17        8.821846
419.62        8.802827
420.07        8.766104
420.51        8.714716
420.96        8.660219
421.41        8.619342
421.85        8.592806
422.30        8.573765
422.74        8.554331
423.19        8.562943
423.64        8.583545
424.08        8.567375
424.53        8.515475
424.98        8.499727
425.42         8.53012
425.87         8.54463
426.31        8.544736
426.76        8.597826
427.21        8.676966
427.65        8.661102
428.10         8.57179
428.54         8.53303
428.99        8.556743
429.44        8.604156
429.88        8.650127
430.33         8.62442
430.77        8.550732
431.22        8.586335
431.66        8.715045
432.11        8.754949
432.56         8.70005
433.00        8.677067
433.45        8.658765
433.89        8.538798
434.34        8.392838
434.78        8.176455
435.23        8.354923
435.67         8.39262
436.12        8.402817
436.57        8.407018
437.01        8.407064
437.46        8.409036
437.90        8.407223
438.35        8.374727
438.79        8.321682
439.24        8.291657
439.68        8.290548
440.13        8.305193
440.57        8.325295
441.02        8.342166
441.46        8.350323
441.91        8.331148
442.35        8.293115
442.80        8.327833
443.24        8.401386
443.69        8.369851
444.13        8.251875
444.58        8.211363
445.02        8.254644
445.47        8.296816
445.91        8.324313
446.36        8.356146
446.80        8.385506
447.24        8.407278
447.69        8.424056
448.13        8.435291
448.58         8.44427
449.02        8.450723
449.47        8.456024
449.91        8.459546
450.36        8.462934
450.80        8.463614
451.25        8.467111
451.69        8.478292
452.13        8.496021
452.58        8.516119
453.02        8.525639
453.47        8.505315
453.91        8.453437
454.36        8.381076
454.80         8.30083
455.24        8.230712
455.69        8.181829
456.13        8.144145
456.58        8.129882
457.02        8.142277
457.46        8.181461
457.91        8.241562
458.35        8.295673
458.79        8.300918
459.24        8.258221
459.68         8.17591
460.13        8.092448
460.57        8.041584
461.01         8.04095
461.46        8.073291
461.90        8.129172
462.34        8.182554
462.79        8.220111
463.23        8.249862
463.68        8.268722
464.12        8.277485
464.56        8.273441
465.01        8.263788
465.45        8.235908
465.89        8.197441
466.34        8.151555
466.78        8.098806
467.22        8.050757
467.67        8.019914
468.11        8.015482
468.55        8.030037
468.99        8.058496
469.44        8.089776
469.88        8.118621
470.32        8.147717
470.77        8.170549
471.21        8.180349
471.65        8.174578
472.10        8.153399
472.54        8.127481
472.98        8.119506
473.42        8.133105
473.87        8.166207
474.31        8.193664
474.75        8.184262
475.20        8.137342
475.64        8.063412
476.08        7.994603
476.52        7.972656
476.97        8.005985
477.41         8.08777
477.85        8.195942
478.29        8.255674
478.74        8.300712
479.18        8.331766
479.62        8.362201
480.06        8.381865
480.50        8.394384
480.95         8.38958
481.39         8.37071
481.83        8.430318
482.27        8.448335
482.72        8.522012
483.16        8.596581
483.60        8.642574
484.04        8.643636
484.48        8.639391
484.93        8.705189
485.37        8.748192
485.81        8.898026
486.25        9.288419
486.69        8.558863
487.14        8.587092
487.58        9.554845
488.02        9.553053
488.46        9.228433
488.90        9.168993
489.34        9.129391
489.79        9.313054
490.23        9.481439
490.67        9.638824
491.11        9.726377
491.55        9.710572
491.99        9.644509
492.43        9.666192
492.88        9.793593
493.32         9.93696
493.76        10.06549
494.20        10.18213
494.64        10.28056
495.08        10.33808
495.52        10.37339
495.96        10.48709
496.41        10.66477
496.85        10.73513
497.29        10.71049
497.73        10.86568
498.17        11.04025
498.61         11.1658
499.05        11.19334
499.49        11.25324
499.93        11.32999
500.37        11.47726
500.82        11.65804
501.26        11.78048
501.70        11.83214
502.14        11.86351
502.58        11.90965
503.02        12.00216
503.46        12.14818
503.90        12.33657
504.34        12.51839
504.78        12.61195
505.22        12.60131
505.66        12.51603
506.10        12.41157
506.54        12.37588
506.98        12.43291
507.42        12.55526
507.86        12.71178
508.30         12.8499
508.74        12.94923
509.18        13.02563
509.62        13.08151
510.06        13.12053
510.50         13.1472
510.94        13.15626
511.38         13.1595
511.82        13.17931
512.26        13.22066
512.70         13.2808
513.14         13.3456
513.58        13.38949
514.02        13.40627
514.46        13.40281
514.90        13.39402
515.34         13.4038
515.78        13.43795
516.22        13.48934
516.66        13.54193
517.10        13.57069
517.54         13.5699
517.98        13.54682
518.42        13.51914
518.86        13.51495
519.30        13.53914
519.74        13.58088
520.18        13.62025
520.62        13.62631
521.06        13.59293
521.50        13.53269
521.93        13.46327
522.37        13.40774
522.81        13.37736
523.25        13.36382
523.69        13.36229
524.13        13.36565
524.57        13.36758
525.01        13.36708
525.45        13.35785
525.89        13.32942
526.32        13.27886
526.76        13.21398
527.20        13.13612
527.64        13.04931
528.08        12.95945
528.52        12.86865
528.96        12.79125
529.40        12.74846
529.83        12.74112
530.27        12.76015
530.71        12.78442
531.15        12.78074
531.59         12.7397
532.03        12.67037
532.46        12.58082
532.90        12.49463
533.34        12.41834
533.78        12.34087
534.22        12.26732
534.66        12.21946
535.09        12.19036
535.53        12.15413
535.97        12.10945
536.41        12.08435
536.85        12.07927
537.28        12.07245
537.72        12.07656
538.16        12.12142
538.60        12.20575
539.04        12.31707
539.47        12.42077
539.91        12.47263
540.35        12.46419
540.79        12.41438
541.22        12.35798
541.66        12.35519
542.10         12.4195
542.54        12.53221
542.97        12.67061
543.41        12.80279
543.85        12.91559
544.29        13.02142
544.72         13.1186
545.16        13.21422
545.60        13.30947
546.04         13.4018
546.47        13.50433
546.91        13.63687
547.35        13.79896
547.79        13.98442
548.22        14.16982
548.66         14.3163
549.10        14.43451
549.53        14.52876
549.97        14.62084
550.41          14.712
550.84        14.82472
551.28        14.98959
551.72        15.17637
552.15          15.349
552.59        15.51661
553.03        15.46293
553.46         15.6678
553.90        15.74896
554.34        15.84894
554.77         15.9607
555.21        16.08482
555.65         16.2086
556.08        16.32052
556.52        16.41468
556.96        16.48971
557.39        16.58871
557.83        16.70004
558.27        16.72654
558.70        16.68348
559.14        16.69712
559.57        16.76413
560.01        16.80338
560.45        16.81945
560.88        16.87053
561.32        16.96685
561.75        17.07381
562.19        17.18254
562.63        17.27599
563.06        17.34522
563.50        17.39573
563.93        17.42649
564.37        17.48083
564.80         17.5712
565.24        17.64649
565.68        17.65816
566.11        17.91542
566.55        17.77428
566.98        17.77871
567.42        17.79678
567.85         17.9005
568.29        18.10225
568.72         18.3842
569.16        18.70374
569.60        18.91037
570.03        19.06091
570.47        19.13078
570.90        19.16425
571.34        19.25418
571.77        19.37332
572.21        19.51595
572.64        19.65222
573.08        19.82637
573.51        20.03177
573.95        20.14115
574.38        20.18013
574.82        20.27405
575.25         20.1279
575.69        20.16034
576.12        20.25797
576.56        20.39647
576.99         20.6059
577.42        20.48945
577.86        20.48705
578.29        20.87594
578.73        20.56538
579.16        20.49746
579.60        20.28729
580.03        20.29002
580.47        20.27392
580.90        20.21821
581.33        20.17194
581.77        20.35062
582.20        19.91099
582.64        19.63065
583.07        19.74767
583.51          19.632
583.94        19.57497
584.37        19.53812
584.81         19.5322
585.24        19.33799
585.68        19.04947
586.11        18.81352
586.54        18.75752
586.98        18.70022
587.41        18.67679
587.85        18.57288
588.28        18.40884
588.71        18.50521
589.15        18.45708
589.58        18.49912
590.01        18.52598
590.45        18.58378
590.88        18.63833
591.31        18.51464
591.75        18.31975
592.18        18.22203
592.61        18.19557
593.05        18.68891
593.48        18.80403
593.91        18.51025
594.35        18.60877
594.78        18.56943
595.21         18.7141
595.65        18.94798
596.08        19.27587
596.51        19.46567
596.94        19.45046
597.38         19.6024
597.81        19.91526
598.24        20.12895
598.68        20.25188
599.11        20.58115
599.54        20.91815
599.97        20.88263
600.41        21.46141
600.84        21.63053
601.27        22.01984
601.70        22.34881
602.14        22.71339
602.57        23.18273
603.00        23.73499
603.43        23.96397
603.87        24.50272
604.30        24.84377
604.73        25.22198
605.16        25.57606
605.60        26.07243
606.03        26.41374
606.46        26.60717
606.89        27.25878
607.32        27.81532
607.76        28.25655
608.19        28.73939
608.62        29.12851
609.05        29.60268
609.48        30.01192
609.92        30.68261
610.35        31.15248
610.78        30.93359
611.21        31.11107
611.64        31.62838
612.07        32.11884
612.50        32.39683
612.94        32.76482
613.37        33.16366
613.80        33.42493
614.23        33.50876
614.66        33.86821
615.09        34.45502
615.52         34.8808
615.96        35.09844
616.39        35.40672
616.82        35.82966
617.25        35.86045
617.68        36.12004
618.11        36.39547
618.54        36.83867
618.97        37.22135
619.40        37.44682
619.84        37.74636
620.27        37.86194
620.70         37.9453
621.13          37.965
621.56        37.94367
621.99        37.92611
622.42        38.06553
622.85        38.34417
623.28        38.35649
623.71        38.53065
624.14         38.5958
624.57        38.73193
625.00        38.74837
625.43        38.64004
625.86        38.55793
626.29        38.55933
626.72        38.05969
627.15        38.18436
627.58        38.02359
628.01        37.84708
628.44        37.59075
628.87        37.28044
629.30        36.64676
629.73         36.3247
630.16         35.9837
630.59        35.78701
631.02        35.66544
631.45        35.55524
631.88        35.28504
632.31        34.79017
632.74        34.49023
633.17        33.72659
633.60        33.16874
634.03        32.64032
634.46        32.13147
634.89        31.62513
635.32         31.1156
635.75        30.60702
636.18        30.07308
636.61        29.53932
637.04        29.05229
637.47        28.61474
637.89        28.20848
638.32        27.80156
638.75        27.37544
639.18         26.9314
639.61        26.48312
640.04         26.0665
640.47        25.73129
640.90        25.48519
641.33        25.31398
641.76        25.18117
642.18        25.03035
642.61        24.84082
643.04        24.63278
643.47         24.4433
643.90          24.332
644.33        24.31282
644.76        24.36668
645.18        24.45884
645.61        24.53022
646.04        24.56877
646.47        24.59149
646.90        24.63801
647.33        24.77087
647.75        24.99532
648.18        25.31438
648.61         25.7107
649.04        26.06179
649.47        26.33797
649.89        26.97127
650.32        27.25177
650.75         27.7551
651.18        28.27377
651.61        28.77847
652.03        29.31579
652.46        30.05813
652.89         30.9435
653.32        31.61951
653.74        32.12102
654.17         32.5295
654.60         33.4221
655.03        33.89647
655.46        34.21446
655.88        35.03965
656.31        36.05064
656.74         36.0206
657.16        37.51632
657.59        39.68311
658.02        38.34953
658.45        39.33376
658.87        39.73061
659.30        40.04522
659.73        40.55246
660.15        41.65132
660.58        41.40929
661.01        41.85241
661.44        42.40032
661.86        42.74844
662.29        42.88675
662.72        43.48043
663.14        43.74657
663.57        44.22721
664.00        44.67943
664.42        45.16448
664.85        45.68658
665.27        46.25375
665.70        46.79296
666.13        47.12982
666.55        47.39092
666.98        47.45578
667.41        47.41464
667.83        47.65022
668.26        47.69834
668.69         47.9319
669.11        48.20839
669.54         48.5267
669.96        48.88355
670.39        49.30575
670.82        49.71938
671.24        49.96873
671.67        50.10262
672.09        50.01403
672.52        50.25735
672.94         50.5291
673.37         50.8987
673.80        50.99308
674.22        50.87307
674.65        50.96141
675.07        51.27993
675.50        51.52588
675.92        51.66824
676.35        51.81392
676.77        51.95781
677.20        52.05037
677.62        52.12618
678.05        52.24403
678.47        52.39264
678.90        52.62057
679.32        52.90145
679.75        52.99845
680.17        52.85259
680.60        53.30805
681.02        52.99873
681.45        53.11818
681.87        53.27488
682.30        53.48513
682.72         53.7117
683.15        53.87298
683.57        53.98269
684.00        54.06512
684.42        54.15882
684.85        54.30793
685.27        54.52568
685.70        54.77258
686.12        54.96991
686.54        55.13948
686.97        55.29775
687.39        54.92925
687.82        54.98553
688.24        54.95721
688.66        55.15393
689.09         55.1171
689.51        55.45866
689.94         55.5806
690.36        55.64895
690.78        55.64831
691.21        55.63434
691.63        55.70561
692.06        55.86132
692.48        56.04657
692.90        56.20605
693.33        56.27042
693.75        56.21003
694.17        56.15709
694.60        55.94004
695.02        55.96955
695.44        56.16414
695.87        56.56255
696.29        57.00539
696.71        56.86981
697.14        56.31109
697.56        56.27092
697.98        56.74718
698.41         56.9818
698.83        56.95598
699.25        57.16145
699.68        57.52119
700.10        57.71717
700.52         57.6973
700.94        57.56099
701.37        57.41113
701.79        57.42179
702.21        57.62431
702.64          57.942
703.06        58.27844
703.48        58.46617
703.90        58.45959
704.33        58.31771
704.75         58.1092
705.17        57.93562
705.59        57.84459
706.01        57.80973
706.44        57.83752
706.86        57.96421
707.28          58.174
707.70        58.42455
708.12        58.68411
708.55        58.96785
708.97        59.22013
709.39         59.2589
709.81        59.13052
710.23        59.10859
710.66        59.22267
711.08        59.34476
711.50        59.41283
711.92        59.40441
712.34        59.31159
712.76        59.15892
713.19        58.99062
713.61        58.90933
714.03        58.93291
714.45        59.04502
714.87        59.22061
715.29        59.42118
715.71        59.62347
716.13        59.81687
716.56        59.98788
716.98        60.19574
717.40        60.40406
717.82        60.59965
718.24        60.70715
718.66         60.6129
719.08        60.32285
719.50        59.90144
719.92        59.49422
720.34        59.31953
720.76        59.42497
721.19        59.72713
721.61        60.14829
722.03        60.50544
722.45        60.72328
722.87        60.84111
723.29        60.85666
723.71        60.77308
724.13        60.61404
724.55        60.38464
724.97        60.15334
725.39        60.02012
725.81        60.01319
726.23        60.14132
726.65        60.37515
727.07         60.5251
727.49        60.76805
727.91        60.94665
728.33        61.11608
728.75        61.26322
729.17        61.38226
729.59        61.45901
730.01        61.48724
730.43        61.47253
730.85        61.42295
731.27        61.34824
731.69        61.26508
732.10        61.19854
732.52        61.15364
732.94        61.12006
733.36        61.12304
733.78        61.09696
734.20        61.03728
734.62        61.10175
735.04        61.59542
735.46        61.01439
735.88        61.33085
736.30         61.3662
736.72        61.68704
737.13        62.13137
737.55        62.50501
737.97         62.6861
738.39        62.60011
738.81        62.08077
739.23        61.38218
739.65        61.41801
740.06        62.07011
740.48        62.37587
740.90        62.27131
741.32        62.35025
741.74        62.61603
742.16        62.82544
742.57        62.81415
742.99        62.77978
743.41        62.69751
743.83         62.5799
744.25        62.44817
744.67        62.29567
745.08        62.19001
745.50        62.21758
745.92        62.38839
746.34        62.65687
746.75        62.94063
747.17        63.06766
747.59        63.00668
748.01        62.89226
748.42        62.75104
748.84        62.48487
749.26        62.22743
749.68        62.24207
750.09        62.49756
750.51        62.89062
750.93        63.22497
751.35        63.04357
751.76        62.46546
752.18        62.19263
752.60        62.27324
753.01        62.31411
753.43         62.2787
753.85        62.25062
754.27        62.21181
754.68        62.30444
755.10        62.57007
755.52        62.26062
755.93        62.62093
756.35        62.67711
756.77        62.84294
757.18        62.94348
757.60        62.97179
758.02        63.27551
758.43        63.75722
758.85        62.95243
759.26        63.13758
759.68        62.41453
760.10        62.46645
760.51        62.79168
760.93        63.50213
761.34        63.15009
761.76        63.54284
762.18        63.49989
762.59        63.65374
763.01        63.86886
763.42        64.11716
763.84        64.21886
764.26        64.12029
764.67        63.66157
765.09        63.08821
765.50         63.0438
765.92        63.48849
766.33        63.64904
766.75         63.3596
767.16        63.52182
767.58        63.13931
768.00        63.15984
768.41        63.32808
768.83        63.58852
769.24        63.82899
769.66        63.95475
770.07        63.95588
770.49        63.66391
770.90        63.30744
771.32         63.7327
771.73        64.73369
772.15        65.10237
772.56        64.75966
772.97        64.27317
773.39        63.88331
773.80        63.86129
774.22        64.18399
774.63        64.53307
775.05        64.72407
775.46        64.76546
775.88         64.6293
776.29         64.4298
776.70        64.26513
777.12        64.21897
777.53        64.33945
777.95        64.61306
778.36        64.95979
778.77        65.15044
779.19        65.15298
779.60        65.07067
780.02        64.90337
780.43        64.74969
780.84        64.68368
781.26        64.30875
781.67        63.81627
782.09        64.40504
782.50        65.74419
782.91        65.51344
783.33        64.58104
783.74        64.18695
784.15        64.62073
784.57        64.93919
784.98        65.03697
785.39         64.8518
785.81        64.53179
786.22        64.83514
786.63        65.61791
787.04        65.92019
787.46         65.6837
787.87        65.40384
788.28        65.24632
788.70        65.16961
789.11        65.18681
789.52        65.50885
789.93        65.94302
790.35        65.76571
790.76         65.1049
791.17        64.91425
791.58        65.27039
792.00        65.40688
792.41        65.30231
792.82        65.67184
793.23        66.27715
793.65        65.92088
794.06        64.93351
794.47         64.8544
794.88        65.49645
795.29        66.46267
795.71        65.55658
796.12        65.57722
796.53        65.90803
796.94        65.75388
797.35        65.24516
797.76        65.43983
798.18         66.2302
798.59        66.57784
799.00        66.38785
799.41        66.20693
799.82        66.15453
800.23        66.18782
800.64        66.33688
801.06        66.57175
801.47        66.82603
801.88        66.90418
802.29         66.7531
802.70        66.41949
803.11        66.01102
803.52        65.69298
803.93        65.52941
804.34        65.56576
804.75        65.74522
805.17        65.83817
805.58        65.85476
805.99        66.25988
806.40        66.00415
806.81        66.78899
807.22        67.90414
807.63        67.63977
808.04        66.22612
808.45        65.60089
808.86         65.9368
809.27        66.17834
809.68        66.18217
810.09        66.21198
810.50        66.22424
810.91        66.13844
811.32        66.08326
811.73        66.23454
812.14        66.60719
812.55        67.24191
812.96        67.90138
813.37        67.90053
813.78        67.25672
814.19        66.68407
814.60        66.33075
815.01        65.94128
815.42        65.56911
815.83        65.43232
816.24        65.53279
816.65        65.70837
817.05        65.92282
817.46        66.20184
817.87        66.47964
818.28        66.60338
818.69        66.55032
819.10        66.32951
819.51        66.07687
819.92        66.05988
820.33        66.33681
820.74        66.81448
821.14        67.32165
821.55        67.57845
821.96        67.51306
822.37        67.21439
822.78        66.79369
823.19         66.4407
823.60        66.23186
824.00        66.13931
824.41        66.09796
824.82        66.10067
825.23        66.12616
825.64        66.19297
826.04         66.2914
826.45        66.36986
826.86        66.43166
827.27        66.44209
827.68        66.40051
828.08        66.46096
828.49        66.53064
828.90        66.34103
829.31        66.01929
829.72        66.02121
830.12        66.41691
830.53        66.95098
830.94        67.41552
831.35        67.48785
831.75        67.09798
832.16        66.32614
832.57        65.48464
832.97        65.04749
833.38        65.13182
833.79        65.58392
834.20        66.17983
834.60        66.55882
835.01        66.62304
835.42        66.52321
835.82        66.36986
836.23        66.27487
836.64        66.31907
837.04        66.41078
837.45        66.60452
837.86        67.06556
838.26         67.8074
838.67        68.74348
839.08           69.57
839.48        69.70313
839.89        69.02203
840.29        67.74726
840.70        66.42823
841.11        65.68417
841.51        65.67244
841.92        66.20078
842.33         67.0294
842.73        67.71767
843.14         67.9915
843.54        68.01819
843.95        67.91353
844.35        67.92084
844.76        68.08428
845.17        68.30816
845.57        68.47623
845.98        68.39111
846.38        68.04143
846.79        67.50587
847.19        66.95322
847.60         66.6191
848.00        66.57271
848.41        66.71448
848.81        66.94488
849.22        67.01431
849.62        66.89298
850.03        66.65177
850.43        66.36638
850.84        66.09006
851.24        65.90181
851.65        65.71411
852.05        65.67097
852.46        65.91782
852.86        66.44209
853.27        67.16195
853.67        67.78524
854.07        68.01957
854.48        67.79662
854.88        67.23447
855.29        66.46938
855.69        65.89277
856.10        65.58818
856.50        65.53752
856.90        65.64496
857.31        65.75567
857.71        65.85841
858.12        65.94243
858.52        66.05379
858.92        66.14724
859.33        66.19762
859.73        66.24113
860.13        66.21935
860.54        66.07839
860.94        65.86271
861.34         65.5759
861.75         65.3322
862.15        65.35706
862.55        65.66448
862.96        66.15179
863.36        66.68284
863.76        66.93922
864.17        66.81946
864.57        66.45068
864.97         65.9081
865.38        65.32127
865.78        64.78754
866.18        64.27606
866.58        63.88451
866.99        63.78213
867.39        64.01276
867.79        64.51678
868.19        65.13885
868.60        65.60746
869.00         65.8755
869.40        65.97986
869.80        65.96809
870.21        65.95036
870.61        66.02687
871.01        66.10535
871.41        66.14608
871.81        66.10352
872.22        65.96146
872.62         65.7382
873.02        65.49754
873.42        65.32742
873.82        65.25233
874.22        65.25497
874.63        65.23752
875.03        65.06586
875.43        64.70717
875.83        64.21262
876.23        63.73279
876.63        63.49332
877.03        63.54906
877.44        63.82176
877.84        64.16806
878.24        64.36199
878.64        64.29085
879.04        63.86792
879.44        63.36895
879.84        63.32889
880.24        63.80198
880.64        64.59137
881.04        65.29884
881.44        65.30369
881.84          64.487
882.24        63.07312
882.65        61.59539
883.05        60.86951
883.45        61.10127
883.85        62.07439
884.25        63.33091
884.65        64.08424
885.05        64.10048
885.45        63.60231
885.85        62.98291
886.25        62.84502
886.65        63.31776
887.05        64.18319
887.45        65.07595
887.85        65.41226
888.25        65.04793
888.65        64.20363
889.04        63.23221
889.44        62.68803
889.84        62.70557
890.24        63.11697
890.64        63.68332
891.04        64.01754
891.44        63.99998
891.84         63.7605
892.24        63.45363
892.64        63.29457
893.04          63.348
893.44        63.55216
893.83        63.81495
894.23        63.94646
894.63        63.92084
895.03          63.778
895.43         63.6702
895.83        63.84336
896.23        64.31815
896.63        64.97782
897.02        65.55915
897.42        65.67545
897.82        65.25227
898.22        64.46656
898.62        63.54574
899.01        62.81634
899.41        62.40678
899.81         62.2185
900.21        62.24338
900.61        62.46244
901.00        62.82617
901.40        63.32737
901.80        63.83611
902.20          64.131
902.59        64.16926
902.99        63.99031
903.39        63.69463
903.79        63.46833
904.18        63.36295
904.58        63.32327
904.98        63.36145
905.38        63.50044
905.77        63.72713
906.17        64.06961
906.57         64.3757
906.96        64.38358
907.36         64.0461
907.76        63.45885
908.15        62.91725
908.55        62.87493
908.95        63.42426
909.34        64.41252
909.74        65.48616
910.14        66.14467
910.53         66.2005
910.93        65.82293
911.33        65.15211
911.72         64.3979
912.12        63.73922
912.52        63.14896
912.91        62.68583
913.31        62.45447
913.70        62.47092
914.10        62.68813
914.49        63.14087
914.89        63.77864
915.29        64.54939
915.68        65.42399
916.08        66.11939
916.47        66.26017
916.87        65.79639
917.26        64.82395
917.66        63.75526
918.05        63.07483
918.45        62.91014
918.84        63.20036
919.24         63.6467
919.64        63.84092
920.03         63.6823
920.42        63.26568
920.82        62.92252
921.21        63.10778
921.61        63.88435
922.00        65.12097
922.40        66.37574
922.79          67.018
923.19        66.83685
923.58        66.06843
923.98        65.11928
924.37        64.52601
924.77        64.44608
925.16        64.68002
925.55        65.06898
925.95        65.31788
926.34        65.33344
926.74        65.21239
927.13        64.96369
927.52        64.51752
927.92        63.95417
928.31        63.28634
928.70        62.69317
929.10        62.43285
929.49        62.53484
929.89        62.86881
930.28          63.402
930.67        63.95055
931.07        64.39318
931.46        64.84591
931.85        65.08108
932.24        64.79266
932.64        64.01852
933.03        62.83186
933.42        61.74904
933.82        61.52166
934.21        62.27985
934.60        63.85995
934.99        65.67817
935.39        66.66129
935.78        66.52913
936.17        65.48306
936.56        64.12032
936.96        63.39667
937.35        63.55368
937.74        64.30719
938.13        65.12651
938.53        65.19429
938.92        64.35645
939.31        62.96386
939.70         61.5372
940.09        60.79865
940.49        60.87633
940.88        61.53877
941.27        62.48644
941.66        63.17071
942.05        63.39753
942.44        63.39195
942.84        63.23371
943.23        63.02728
943.62        62.85741
944.01         62.6124
944.40        62.53192
944.79        63.05249
945.18        64.18504
945.57        65.77917
945.97        67.22176
946.36        67.55298
946.75        66.53043
947.14        64.55544
947.53        62.28066
947.92        60.63408
948.31        59.87986
948.70        59.78512
949.09        60.16538
949.48        60.68447
949.87        61.18327
950.26        61.75735
950.65        62.37968
951.04        62.98411
951.43         63.5203
951.82        63.90826
952.21        64.08965
952.60        64.03878
952.99        63.78689
953.38        63.39684
953.77        62.97108
954.16         62.6585
954.55        62.49991
954.94        62.44126
955.33        62.50292
955.72        62.69635
956.11        62.98796
956.50        63.39029
956.89        63.67229
957.28        63.45148
957.66        62.68008
958.05        61.53104
958.44        60.40986
958.83        59.90758
959.22        60.12309
959.61        60.88224
960.00        61.83936
960.39        62.33978
960.78        62.16952
961.16        61.53665
961.55        60.75205
961.94        60.19146
962.33        59.98696
962.72        60.05341
963.11        60.32289
963.49        60.70205
963.88        61.05039
964.27        61.36668
964.66        61.75763
965.04        62.42809
965.43        63.33548
965.82        64.44754
966.21        65.31877
966.60        65.13588
966.98        63.76428
967.37        61.64371
967.76        59.54882
968.15        58.42995
968.53        58.45399
968.92        59.36153
969.31        60.73832
969.69        61.72142
970.08        61.87733
970.47        61.46053
970.86        60.82999
971.24        60.49578
971.63         60.5975
972.02        60.98706
972.40        61.43348
972.79        61.32713
973.17         60.6237
973.56        59.56911
973.95        58.66251
974.33          58.528
974.72        59.25684
975.11        60.62725
975.49        62.20161
975.88        63.05495
976.26        62.91789
976.65         62.0305
977.04        60.78734
977.42        59.78428
977.81        59.19701
978.19        58.84084
978.58        58.80446
978.96        59.18124
979.35        59.89751
979.74        60.96391
980.12         62.0903
980.51          62.499
980.89        62.13546
981.28        61.19949
981.66        60.12703
982.05         59.5334
982.43        59.58989
982.82        60.09347
983.20        61.03419
983.59        62.27178
983.97        63.71394
984.35         65.3314
984.74         66.6694
985.12        67.20713
985.51         66.7803
985.89        65.59171
986.28        64.15512
986.66        63.18851
987.04        62.95397
987.43         63.2246
987.81        63.87401
988.20        64.50717
988.58        64.92962
988.96         65.1508
989.35        65.09547
989.73        64.63901
990.12        63.78585
990.50        62.63194
990.88        61.21208
991.27        59.70563
991.65        58.32172
992.03        57.10423
992.42        56.40757
992.80        56.66432
993.18        57.90061
993.56        60.00504
993.95        62.31546
994.33        63.68365
994.71        63.59393
995.10        62.43904
995.48        60.84923
995.86        59.88608
996.24        59.82374
996.63        60.22578
997.01        61.03798
997.39         61.8023
997.77        62.25055
998.15        62.63895
998.54        62.69762
998.92         61.8695
999.30        60.26783
999.68        58.09124
1000.06        56.17149
1000.45        55.68845
1000.83        56.94859
1001.21        59.72971
1001.59        63.25259
1001.97        65.54206
1002.35        65.78284
1002.73        64.55785
1003.12         62.8799
1003.50        61.99428
1003.88         62.3133
1004.26        63.31157
1004.64        64.79111
1005.02        66.30275
1005.40        67.48483
1005.78        68.61272
1006.16        69.10062
1006.54        67.99097
1006.92        65.39157
1007.30        61.72432
1007.69        58.36251
1008.07        57.10881
1008.45        58.47264
1008.83         62.0524
1009.21        66.79941
1009.59        69.98279
1009.97        70.20255
1010.35        68.19287
1010.73        64.87109
1011.11        61.62743
1011.49        59.07685
1011.86        56.92477
1012.24        55.38277
1012.62        54.72107
1013.00         54.9062
1013.38        55.98211
1013.76        57.70739
1014.14         59.2336
1014.52         60.0645
1014.90         60.2593
1015.28        59.99803
1015.66        59.69582
1016.04        59.50026
1016.41        59.26975
1016.79        59.03618
1017.17        58.95118
1017.55        59.03214
1017.93        59.27242
1018.31        59.57047
1018.69        59.73772
1019.06        59.72752
1019.44        59.56903
1019.82        59.22615
1020.20        58.69893
1020.58        58.05719
1020.95        57.29924
1021.33        56.66953
1021.71        56.29162
1022.09        56.17351
1022.46        56.40026
1022.84        56.74195
1023.22        56.68988
1023.60        56.12846
1023.97        55.09879
1024.35        54.45078
1024.73        55.03106
