SpectraSmart Spectrum 2.9.0.0
--------- Device Information -----------
Spectrum Name :  反射率_0
Saving Time :  2024/05/03 20:01:10
Spectro-Module Model Name : SE2030-DUVN
Spectro-Module Serial Number : OS361AC55029948
Wavelength Start : 200
Wavelength End : 1025
Wavelength Unit : Wavelength(nm)
Spectrum Unit : Reflectance(%)
-----------Spectrum Setting ------------
Integration Time : 20ms
Average : 10
Boxcar : 0
Background removal :  enabled
linearity correction :  enabled
SC :  disabled
Intensity correction :  disabled
DWT denoise :  enabled
savitzky-golay :  disabled
FFT :  disabled
Running average :  disabled
Kalman :  disabled
High pass :  disabled
---------------BEGIN--------------------
Wavelength(nm)             Reflectance(%)
200.29               0
200.75        31.50449
201.21        17.11076
201.67        944.5843
202.13        64.90409
202.58        42.50348
203.04        29.71928
203.50        21.46591
203.96        19.39034
204.42        25.05813
204.88        51.27274
205.34        -986.257
205.80       -113.1993
206.26       -163.0356
206.72       -48563.68
207.18        197.5599
207.64         126.431
208.10        106.0511
208.55        93.58788
209.01       -14.62067
209.47       -258.2025
209.93        0.701172
210.39        35.36179
210.85        47.09398
211.31         52.4277
211.77        56.24098
212.23        62.88633
212.69         75.5379
213.14        72.63368
213.60        44.44877
214.06        32.27385
214.52         29.5076
214.98        31.40721
215.44        38.88632
215.90         69.0088
216.36       -368.4993
216.81        -68.7702
217.27       -76.92661
217.73       -151.5121
218.19       -586.9127
218.65       -11149.44
219.11       -662.5762
219.57       -107.0269
220.02       -13.10683
220.48       -8.365795
220.94        85.54324
221.40        57.82905
221.86        55.39135
222.32        55.02091
222.77        55.02814
223.23        56.04832
223.69        56.42579
224.15        51.28182
224.61         42.1921
225.06        34.08762
225.52        30.18361
225.98        30.83099
226.44        35.19599
226.90         43.2792
227.36         53.6533
227.81        59.55426
228.27        57.06884
228.73        49.91479
229.19        41.80568
229.65        35.49903
230.10        31.19278
230.56        28.19901
231.02        26.48921
231.48        26.28485
231.93        27.22843
232.39        29.07263
232.85        31.10812
233.31        32.30128
233.77        32.51392
234.22        32.06554
234.68        31.54593
235.14        31.96495
235.60         33.6765
236.05        36.48702
236.51        39.97318
236.97        43.16293
237.43        45.35888
237.88        46.72612
238.34        47.71238
238.80        49.06058
239.26        51.35884
239.71        57.11088
240.17        64.50574
240.63        73.05204
241.08        76.29388
241.54        71.41101
242.00        65.07728
242.46        66.10941
242.91        77.58302
243.37        103.3979
243.83        149.4454
244.28        195.0843
244.74        189.7823
245.20        136.9473
245.66        77.18622
246.11        43.92715
246.57        35.58381
247.03        39.95773
247.48        48.72627
247.94        54.32002
248.40         55.7401
248.85        55.90449
249.31         55.9481
249.77        56.48344
250.22        57.76875
250.68          59.072
251.14        60.99434
251.59        65.39652
252.05        73.42466
252.51        86.33625
252.96         105.225
253.42        122.9623
253.88         129.088
254.33        123.7456
254.79        111.6713
255.25        97.65583
255.70         85.6329
256.16         77.1488
256.62        71.93264
257.07         69.7718
257.53        69.90646
257.99        70.80888
258.44        71.40025
258.90        71.15427
259.35        69.64892
259.81        67.93818
260.27        65.85985
260.72        63.30117
261.18        60.89025
261.63         58.4626
262.09        56.62558
262.55        55.58577
263.00        55.11096
263.46        55.04848
263.91        54.93537
264.37        54.44929
264.83         53.4814
265.28        52.19863
265.74        50.80745
266.19        49.30369
266.65        47.84926
267.11        46.35161
267.56        44.94119
268.02         43.8974
268.47         43.1767
268.93        42.73951
269.38         42.3133
269.84        41.44999
270.30         40.1228
270.75        38.50312
271.21        37.00698
271.66         36.1158
272.12        35.89737
272.57        36.12715
273.03        36.46557
273.48        36.39299
273.94        35.79236
274.39        34.85078
274.85        33.78629
275.31         32.8144
275.76        32.00246
276.22        31.31501
276.67        30.75367
277.13        30.44554
277.58        30.30075
278.04        30.30884
278.49        30.24823
278.95        29.83673
279.40        29.02879
279.86        28.03374
280.31        27.02126
280.77        26.31494
281.22        25.88895
281.68        25.67873
282.13        25.55484
282.59        25.39662
283.04        25.14918
283.50        24.88441
283.95        24.61884
284.41        24.39677
284.86        24.22268
285.32        24.11208
285.77        24.04814
286.22        24.06951
286.68        24.18092
287.13        24.32888
287.59        24.53247
288.04        24.77387
288.50         25.0521
288.95         25.3343
289.41         25.5653
289.86        25.61166
290.32        25.49464
290.77        25.26686
291.22        25.05994
291.68        25.04868
292.13         25.2793
292.59        25.74716
293.04        26.41013
293.50        27.19633
293.95        28.05699
294.40        29.00253
294.86        30.06598
295.31         31.3049
295.77        32.73695
296.22        34.32768
296.68        35.98165
297.13        37.52794
297.58        38.89083
298.04        40.12595
298.49        41.29738
298.95         42.5807
299.40        44.00783
299.85        45.54283
300.31        47.18789
300.76        48.89911
301.21        50.66691
301.67        52.52077
302.12        54.35941
302.58        56.05603
303.03        57.54948
303.48        58.87063
303.94         60.1987
304.39        61.72583
304.84        63.53056
305.30        65.54933
305.75          67.568
306.20        69.29446
306.66        70.67782
307.11        71.76598
307.57        72.76543
308.02        73.85918
308.47         75.1368
308.93        76.52501
309.38        77.90083
309.83         79.1698
310.29        80.29731
310.74        81.30737
311.19        82.20576
311.65        82.98115
312.10        83.61586
312.55        84.10069
313.00        84.48393
313.46        84.86057
313.91        85.23449
314.36        85.63782
314.82        86.02981
315.27        86.30648
315.72        86.47739
316.18        86.58304
316.63        86.74167
317.08        87.15575
317.53        87.85179
317.99         88.7404
318.44        89.66646
318.89        90.31699
319.35        90.60397
319.80        90.62003
320.25        90.49817
320.70         90.4776
321.16        90.61793
321.61        90.86147
322.06        91.14808
322.51        91.38498
322.97        91.52918
323.42        91.65191
323.87        91.73117
324.32        91.73396
324.78        91.65977
325.23        91.54691
325.68        91.46502
326.13        91.55317
326.59        91.81503
327.04        92.25597
327.49        92.77099
327.94        93.21346
328.39        93.52605
328.85         93.7063
329.30        93.83652
329.75         93.9337
330.20        94.02403
330.66        94.07594
331.11        94.15181
331.56        94.24818
332.01        94.38532
332.46        94.58205
332.92        94.83047
333.37        95.21767
333.82        95.71071
334.27        96.28621
334.72         96.9053
335.17         97.5075
335.63        98.02686
336.08        98.50527
336.53        98.89078
336.98        99.15941
337.43         99.3212
337.88        99.40421
338.34        99.44335
338.79        99.51785
339.24         99.6608
339.69        99.88158
340.14        100.2158
340.59        100.7078
341.05        101.3415
341.50         102.088
341.95        102.8692
342.40        103.5762
342.85        104.1618
343.30        104.6377
343.75        104.9872
344.20        105.1982
344.66        105.3114
345.11        105.3342
345.56        105.3541
346.01        105.4981
346.46        105.7984
346.91        106.2158
347.36        106.7167
347.81        107.2366
348.26        107.7372
348.72        108.2363
349.17         108.654
349.62         108.894
350.07        108.9461
350.52        108.8307
350.97         108.663
351.42        108.6403
351.87        108.7941
352.32        109.0532
352.77        109.2995
353.22        109.3387
353.67        109.1318
354.13        108.7928
354.58        108.3478
355.03        107.9014
355.48        107.5106
355.93        107.1573
356.38        106.9102
356.83        106.8814
357.28        107.0565
357.73        107.3663
358.18         107.672
358.63        107.7448
359.08        107.5166
359.53        107.0574
359.98        106.3963
360.43        105.5991
360.88        104.7156
361.33        103.7241
361.78        102.7669
362.23        102.0528
362.68        101.6112
363.13        101.4167
363.58        101.2268
364.03        100.6401
364.48        99.59745
364.93        98.22799
365.38        96.87886
365.83        96.08707
366.28        95.95166
366.73        96.29082
367.18         96.7396
367.63        96.70889
368.08        96.04195
368.53         94.9228
368.98        93.65485
369.43        92.69073
369.88        92.15494
370.33        91.92465
370.78        91.79235
371.23        91.42482
371.68        90.74046
372.13        89.85317
372.58        89.00246
373.03         88.5343
373.48        88.49138
373.93        88.72978
374.38        88.94085
374.83        88.63531
375.28        87.71102
375.72        86.33315
376.17        84.87103
376.62        83.72301
377.07        82.99159
377.52        82.54971
377.97        82.26635
378.42        81.94095
378.87        81.50715
379.32        81.03394
379.77        80.56923
380.22        80.15605
380.67        79.79552
381.11        79.47663
381.56        79.10457
382.01        78.61689
382.46        78.02573
382.91        77.37188
383.36        76.78516
383.81        76.44191
384.26        76.35336
384.71        76.45583
385.15        76.57629
385.60        76.46426
386.05        76.05551
386.50        75.43665
386.95        74.75957
387.40        74.25587
387.85         73.9853
388.29        73.84063
388.74        73.78952
389.19        73.62569
389.64        73.29945
390.09         72.8564
390.54        72.40023
390.98        72.02106
391.43        71.78369
391.88         71.7839
392.33        71.87064
392.78        71.47452
393.23        70.76643
393.67        70.54482
394.12        70.80851
394.57        70.78445
395.02        70.46562
395.47        70.31762
395.91        70.33977
396.36        70.24187
396.81        70.03403
397.26        69.83054
397.71        69.60523
398.15        69.32371
398.60        69.08581
399.05        68.68311
399.50        68.22643
399.95        68.29422
400.39        68.74081
400.84        68.44039
401.29        67.54172
401.74        67.29996
402.18         67.6805
402.63        67.64919
403.08        67.28319
403.53        66.83564
403.97        67.26604
404.42        67.41558
404.87        67.47341
405.32         67.4092
405.76        67.19632
406.21        66.90067
406.66        66.55764
407.11        66.20972
407.55        65.94405
408.00        65.80171
408.45        65.78949
408.90          65.929
409.34        66.09795
409.79        65.97461
410.24        65.65071
410.68         65.5458
411.13        65.68935
411.58        65.85595
412.03        65.90316
412.47        65.71855
412.92         65.2648
413.37         64.6105
413.81        63.99649
414.26         63.8341
414.71         64.1489
415.15        64.87602
415.60         65.6764
416.05        66.01477
416.49         65.7402
416.94        65.03759
417.39        64.26313
417.83         63.9327
418.28        64.17068
418.73        64.80737
419.17         65.5926
419.62        66.05101
420.07        66.03183
420.51         65.6626
420.96        65.17583
421.41        64.75785
421.85        64.45412
422.30        64.49776
422.74        64.67922
423.19        64.32287
423.64        63.60299
424.08        63.72695
424.53         64.6388
424.98        65.18013
425.42        65.24738
425.87        65.66827
426.31        66.33536
426.76        66.23878
427.21        65.59258
427.65        65.68057
428.10        66.36196
428.54        66.66346
428.99        66.24254
429.44        65.90283
429.88        65.67595
430.33        65.87495
430.77        66.28098
431.22        66.36674
431.66        66.10651
432.11        65.89806
432.56        65.77806
433.00        65.96959
433.45        66.41148
433.89        67.04548
434.34        64.77345
434.78         67.7958
435.23        67.08281
435.67        66.27605
436.12        65.25757
436.57         65.3965
437.01        67.00204
437.46        67.61119
437.90        67.19268
438.35        66.79073
438.79        67.08109
439.24        66.96905
439.68        66.64577
440.13        66.47576
440.57        66.56455
441.02        66.52547
441.46        66.36332
441.91        67.19949
442.35        68.44521
442.80        67.81217
443.24        65.85108
443.69        66.00358
444.13        67.98318
444.58        68.57858
445.02        67.65686
445.47        67.03002
445.91        66.93581
446.36        66.96337
446.80        67.13523
447.24        67.64231
447.69        68.26073
448.13        68.42934
448.58        68.17628
449.02        68.00762
449.47        68.01879
449.91        67.94907
450.36        67.84832
450.80        67.89094
451.25         68.0378
451.69        68.04615
452.13        67.91664
452.58        67.82034
453.02        67.76999
453.47        67.65721
453.91        67.46233
454.36        67.36436
454.80        67.43126
455.24        67.01733
455.69        67.39527
456.13        67.49988
456.58        67.56767
457.02        67.70012
457.46        67.01084
457.91        66.83202
458.35        66.83595
458.79        66.87281
459.24        66.86334
459.68        66.54144
460.13        66.04059
460.57        65.87187
461.01        66.13538
461.46        65.89915
461.90        65.96525
462.34        66.25098
462.79        65.61025
463.23        65.39218
463.68         65.2691
464.12        65.20207
464.56        65.16763
465.01        65.42532
465.45        65.81705
465.89        65.72678
466.34        65.26772
466.78        65.43546
467.22        66.22716
467.67        65.62691
468.11        65.46056
468.55        65.19025
468.99        65.35332
469.44        65.30447
469.88        65.05711
470.32        64.91416
470.77        64.86469
471.21        64.81933
471.65         64.7553
472.10        64.69054
472.54        64.63982
472.98        64.61546
473.42        64.60451
473.87        64.73194
474.31        64.86077
474.75        64.56004
475.20        63.98631
475.64        63.81624
476.08        64.05391
476.52        64.08321
476.97        63.85479
477.41        63.86165
477.85         64.1815
478.29        64.04108
478.74        64.21118
479.18         64.8281
479.62        64.39635
480.06          64.378
480.50        64.18731
480.95        64.24182
481.39        64.61999
481.83        63.40001
482.27        63.85744
482.72        64.16492
483.16        63.88023
483.60        63.98728
484.04        64.15863
484.48         64.0002
484.93        63.52173
485.37        64.33684
485.81        65.15266
486.25         64.5312
486.69        66.68475
487.14        66.85633
487.58         63.9542
488.02        63.44541
488.46        64.86101
488.90        62.95423
489.34        63.70366
489.79        64.09556
490.23        63.95758
490.67        64.29031
491.11        64.45887
491.55        64.34939
491.99         63.9719
492.43        63.75149
492.88         63.7475
493.32        63.81609
493.76         63.8995
494.20        63.90892
494.64        63.79887
495.08        63.75123
495.52        63.81075
495.96        63.56698
496.41        63.18274
496.85        63.79091
497.29        64.93877
497.73        64.90359
498.17        63.79206
498.61        63.47922
499.05        64.03175
499.49        64.09088
499.93          63.623
500.37        63.51027
500.82        63.76184
501.26        63.28085
501.70        63.28976
502.14         63.1319
502.58        63.16194
503.02        63.21907
503.46        63.31704
503.90        63.29197
504.34        63.55064
504.78        63.56973
505.22        63.47771
505.66        63.37375
506.10        63.30366
506.54        63.21486
506.98        63.10946
507.42        63.12846
507.86         63.2453
508.30        62.99606
508.74         63.0663
509.18        62.91277
509.62         62.8022
510.06        62.81194
510.50        62.95586
510.94        63.19096
511.38        63.40471
511.82         63.4353
512.26        63.25191
512.70        62.91877
513.14        62.55364
513.58        62.34089
514.02         62.3244
514.46        62.43673
514.90        62.61742
515.34        62.76421
515.78        62.83787
516.22        62.88377
516.66        62.87543
517.10        62.76748
517.54        62.57209
517.98        62.29784
518.42        62.05798
518.86        62.03979
519.30        62.26944
519.74        62.68534
520.18        63.13586
520.62        63.36735
521.06        63.31396
521.50        63.05431
521.93        62.70053
522.37        62.45006
522.81        62.35839
523.25        62.36823
523.69        62.43785
524.13        62.50172
524.57         62.5361
525.01         62.5727
525.45        62.61071
525.89        62.64057
526.32        62.65786
526.76        62.66039
527.20        62.66169
527.64        62.70329
528.08        62.79032
528.52        62.89331
528.96        62.97583
529.40        63.02641
529.83        63.00145
530.27        62.82877
530.71        62.57926
531.15        62.45799
531.59        62.49114
532.03        62.59951
532.46        62.69893
532.90        62.68141
533.34        62.53323
533.78        62.30912
534.22        62.10757
534.66        62.07157
535.09        62.21022
535.53        62.46509
535.97        62.76285
536.41        62.94079
536.85        62.94435
537.28        62.99018
537.72        63.03237
538.16        62.61116
538.60        61.94826
539.04        61.91026
539.47        62.39275
539.91        62.58948
540.35        62.46727
540.79        62.42254
541.22        62.39636
541.66         62.7053
542.10        62.39016
542.54        62.18394
542.97        61.93356
543.41        62.06365
543.85        62.48696
544.29        62.68783
544.72        62.61341
545.16         62.5971
545.60         62.6208
546.04        62.47639
546.47        62.20417
546.91        62.06091
547.35         62.0906
547.79         62.1109
548.22        62.07147
548.66        62.50034
549.10        62.49705
549.53        62.71706
549.97        62.85655
550.41        62.89127
550.84         62.8019
551.28        62.61049
551.72        62.36629
552.15        62.14672
552.59         62.0068
553.03        61.87303
553.46        61.76552
553.90        61.82316
554.34        62.00805
554.77        62.20185
555.21        62.37307
555.65        62.51447
556.08        62.59185
556.52        62.64963
556.96        62.66462
557.39        62.52389
557.83        62.32638
558.27        62.29269
558.70        62.41059
559.14        62.56086
559.57        62.66541
560.01         62.5915
560.45        62.39481
560.88         62.4278
561.32        62.66478
561.75        62.64951
562.19        62.46555
562.63        62.39194
563.06        62.45379
563.50        62.78194
563.93        63.20111
564.37        63.02377
564.80        62.39468
565.24        62.31944
565.68        62.70836
566.11        62.80257
566.55           62.63
566.98        62.32891
567.42        62.36283
567.85        62.64177
568.29        62.78962
568.72        62.83789
569.16        62.76923
569.60        62.80786
570.03        62.89787
570.47        63.13665
570.90        63.50759
571.34        62.90498
571.77        63.58588
572.21        63.35372
572.64        63.48596
573.08        63.39303
573.51        63.36612
573.95        63.20249
574.38        63.26464
574.82        62.60979
575.25        64.19674
575.69        64.44987
576.12        64.09534
576.56         63.0389
576.99        63.34655
577.42        64.59451
577.86        63.53871
578.29        63.64653
578.73        63.88665
579.16        63.99839
579.60        63.88808
580.03        63.81608
580.47        63.69864
580.90        63.90335
581.33         63.2532
581.77        63.68104
582.20         64.9512
582.64        64.82241
583.07        64.73418
583.51        64.04671
583.94        63.50161
584.37        63.23672
584.81        63.22853
585.24         63.3278
585.68        64.32049
586.11        63.91265
586.54        63.93097
586.98        63.24103
587.41        62.69213
587.85         63.9101
588.28        64.10046
588.71        63.54536
589.15        63.49098
589.58        63.56433
590.01        62.91127
590.45        62.64609
590.88        63.08782
591.31        63.52787
591.75        63.90651
592.18        63.62211
592.61        62.98909
593.05        62.82435
593.48        64.16173
593.91        64.36608
594.35        64.35843
594.78        63.84355
595.21        63.23082
595.65        62.98344
596.08        63.02822
596.51         63.8295
596.94        63.47249
597.38        63.43578
597.81        63.11707
598.24        63.46733
598.68        63.04049
599.11          62.341
599.54        64.12897
599.97        63.46975
600.41        63.59298
600.84        63.42614
601.27        63.65588
601.70        63.50349
602.14        63.32573
602.57        63.34571
603.00        63.59719
603.43        63.73195
603.87        63.21162
604.30        63.70175
604.73        63.61508
605.16        63.41292
605.60        62.83266
606.03        62.80719
606.46        63.26054
606.89        63.28267
607.32        63.37307
607.76        62.90621
608.19        63.34383
608.62        63.36837
609.05        63.25822
609.48        63.18136
609.92        63.46569
610.35        62.62756
610.78        63.96083
611.21        64.93432
611.64        64.16763
612.07        64.04214
612.50        64.00985
612.94        63.78479
613.37        63.34511
613.80        63.76077
614.23        63.45369
614.66        63.42497
615.09         63.2822
615.52         63.4384
615.96        63.78699
616.39        63.95003
616.82        63.93001
617.25        63.57614
617.68        63.66249
618.11        63.46701
618.54        62.58692
618.97        62.54597
619.40        63.07802
619.84        63.36675
620.27        63.48378
620.70        63.67458
621.13        63.93138
621.56        63.46083
621.99        62.47439
622.42         62.5085
622.85         63.5191
623.28        63.12979
623.71        62.88155
624.14        62.98353
624.57         62.1834
625.00        62.26631
625.43         62.3998
625.86         62.7388
626.29        63.05016
626.72        63.27285
627.15        63.37527
627.58        63.33294
628.01         63.1489
628.44        63.03178
628.87        63.08073
629.30        62.75018
629.73        62.45484
630.16        63.23572
630.59        62.61893
631.02        62.74403
631.45        62.83518
631.88        62.91901
632.31        62.96235
632.74        63.00058
633.17        63.03003
633.60        62.97511
634.03        62.83855
634.46        62.64086
634.89        62.43479
635.32        62.30735
635.75        62.27999
636.18        62.32756
636.61        62.40913
637.04        62.46025
637.47        62.46408
637.89        62.42733
638.32        62.34065
638.75        62.29083
639.18        62.30355
639.61        62.10652
640.04        62.16785
640.47        62.11752
640.90         62.0984
641.33        62.10226
641.76        62.14123
642.18        62.23279
642.61        62.34646
643.04        62.47834
643.47        62.60471
643.90        62.68938
644.33         62.7182
644.76        62.71099
645.18        62.67952
645.61        62.56356
646.04        62.36742
646.47        62.24887
646.90        62.30086
647.33        61.94002
647.75        62.35626
648.18        62.53679
648.61        62.77301
649.04        63.01445
649.47        63.20874
649.89        63.20692
650.32        63.00756
650.75        62.91705
651.18        62.95804
651.61        62.79685
652.03        62.51363
652.46        62.62941
652.89        62.94905
653.32        62.81651
653.74        62.42762
654.17        62.01608
654.60        61.76339
655.03        63.33398
655.46        62.43758
655.88        61.77158
656.31        64.45975
656.74        69.98501
657.16        67.82511
657.59        64.64581
658.02        63.91269
658.45        64.17509
658.87        64.24776
659.30        63.30781
659.73        62.88636
660.15        62.98537
660.58        62.41078
661.01        62.34455
661.44        62.23919
661.86        62.15552
662.29        62.05019
662.72        62.20938
663.14        62.54001
663.57        62.30901
664.00        61.70171
664.42        61.66243
664.85        62.18342
665.27        62.49351
665.70        62.50229
666.13        62.58062
666.55        62.70819
666.98        62.65652
667.41        62.48597
667.83        62.38892
668.26        62.38961
668.69        62.45943
669.11        62.52694
669.54        62.45531
669.96        62.22705
670.39        61.94053
670.82        61.73829
671.24         61.6913
671.67        61.87037
672.09        62.51075
672.52        63.40093
672.94        63.53558
673.37        63.56899
673.80        63.13388
674.22          62.657
674.65        62.38775
675.07        62.42728
675.50        62.67095
675.92        62.99974
676.35        63.19413
676.77         63.2001
677.20        63.09258
677.62        62.94298
678.05        62.86353
678.47        62.88282
678.90        62.95597
679.32        63.04642
679.75        63.15856
680.17        63.28433
680.60        63.34833
681.02        63.32311
681.45        63.55964
681.87        63.39335
682.30        63.35289
682.72        63.26982
683.15        63.19882
683.57        63.16027
684.00         63.1566
684.42         63.1659
684.85        63.15103
685.27        63.10234
685.70        62.96838
686.12        62.80109
686.54        62.89408
686.97        63.17117
687.39        63.23363
687.82        63.07533
688.24        62.95451
688.66        62.88931
689.09        62.68688
689.51        62.42158
689.94        62.37849
690.36        62.61149
690.78        62.88049
691.21        63.03354
691.63        63.76607
692.06        63.40345
692.48        63.60699
692.90        63.85134
693.33         63.9148
693.75        63.79973
694.17          63.558
694.60        63.27834
695.02        63.54111
695.44        63.46611
695.87        63.81361
696.29        64.18233
696.71        64.17426
697.14        63.80966
697.56        63.49932
697.98        63.35753
698.41        63.25576
698.83        63.20029
699.25        63.33781
699.68        63.57099
700.10        63.72675
700.52        63.73901
700.94        63.66579
701.37         63.5495
701.79        63.48395
702.21        63.48617
702.64         63.5126
703.06        63.52699
703.48        63.52734
703.90        63.52289
704.33        63.34886
704.75        63.37172
705.17        63.35171
705.59         63.3964
706.01        63.47146
706.44        63.59369
706.86        63.78779
707.28        64.01595
707.70        64.33716
708.12        64.65296
708.55        64.64185
708.97        64.35443
709.39        64.21642
709.81        64.26593
710.23         64.2319
710.66        64.12788
711.08        64.16721
711.50        64.30598
711.92        64.38345
712.34        64.38074
712.76        64.34451
713.19        64.28947
713.61        64.29716
714.03         64.3557
714.45        64.43011
714.87        64.49822
715.29         64.5339
715.71        64.52475
716.13        64.48294
716.56        64.38361
716.98        64.25336
717.40        64.08569
717.82        63.89441
718.24        63.72681
718.66        63.65183
719.08        63.67989
719.50        63.79881
719.92        63.97105
720.34        64.09351
720.76        64.16278
721.19        64.27312
721.61        64.39883
722.03         64.4203
722.45        64.36195
722.87        64.13295
723.29        63.81223
723.71        63.93928
724.13          64.545
724.55        64.08038
724.97        64.49527
725.39        64.42668
725.81        64.45873
726.23        64.37579
726.65        64.24259
727.07        64.21616
727.49        64.30271
727.91        64.47179
728.33        64.68485
728.75        64.87943
729.17        65.02785
729.59        65.14626
730.01        65.23987
730.43        65.31538
730.85        65.37553
731.27        65.41006
731.69        65.41932
732.10        65.41528
732.52        65.39698
732.94        65.36465
733.36        65.31557
733.78        65.24172
734.20        65.15427
734.62        65.07583
735.04        65.01015
735.46         64.9659
735.88        64.94096
736.30        64.89735
736.72        64.87718
737.13        64.98498
737.55         65.1369
737.97        65.33314
738.39        65.50484
738.81        65.26773
739.23        64.80771
739.65        65.05727
740.06        65.82228
740.48        66.02663
740.90        65.60262
741.32        65.16894
741.74         64.8848
742.16        64.73411
742.57        64.78808
742.99         65.0266
743.41        65.38386
743.83        65.73291
744.25        66.01887
744.67         66.2571
745.08         66.4365
745.50        66.49952
745.92        66.45543
746.34         66.3017
746.75        66.07903
747.17        65.86945
747.59        65.69595
748.01        65.57094
748.42        65.48422
748.84        65.35391
749.26         65.1802
749.68        65.11447
750.09         65.1736
750.51         65.1331
750.93        65.09857
751.35        65.59284
751.76        66.44998
752.18        66.81537
752.60        66.60403
753.01        66.23521
753.43        65.87654
753.85        65.67165
754.27        65.68144
754.68        65.82439
755.10        66.03521
755.52         66.2129
755.93        66.35217
756.35         66.5433
756.77         66.6675
757.18        66.69858
757.60        66.70014
758.02        66.11292
758.43        65.31835
758.85        66.26097
759.26        68.60284
759.68        68.62041
760.10        67.56704
760.51        66.95148
760.93        67.38727
761.34        66.99538
761.76         67.4048
762.18        66.88843
762.59        66.14136
763.01        66.15716
763.42        66.93752
763.84        67.19016
764.26        66.85321
764.67        66.69966
765.09        66.79459
765.50        66.76717
765.92        66.65069
766.33        66.51104
766.75        66.34588
767.16        66.36351
767.58        66.52965
768.00        66.69303
768.41        66.86676
768.83        67.20846
769.24        67.58973
769.66        67.60394
770.07         67.2647
770.49        66.88502
770.90        66.58562
771.32        66.59581
771.73        66.87365
772.15        67.00929
772.56        66.99726
772.97        67.06545
773.39        67.21265
773.80        67.42635
774.22        67.62952
774.63        67.74081
775.05        67.71363
775.46        67.65469
775.88        67.55331
776.29        67.36089
776.70        67.12914
777.12        66.99424
777.53        67.00635
777.95        67.11745
778.36        67.27557
778.77        67.35489
779.19        67.33336
779.60        67.25795
780.02         67.1908
780.43        67.24692
780.84        67.45477
781.26        67.70197
781.67        67.97985
782.09        68.29925
782.50        68.58342
782.91        68.65069
783.33        68.50175
783.74        68.39528
784.15        68.32629
784.57        68.17159
784.98        67.98172
785.39        67.89037
785.81        67.91891
786.22        68.04719
786.63        68.19289
787.04        68.21238
787.46        68.10206
787.87        67.87946
788.28        67.68227
788.70        67.70501
789.11        67.95582
789.52        68.37627
789.93        68.82832
790.35        69.06994
790.76        69.06735
791.17        68.90407
791.58        68.67132
792.00        68.50069
792.41        68.46615
792.82        68.48382
793.23        68.58248
793.65        68.84832
794.06        69.25455
794.47        69.64668
794.88        69.86106
795.29        69.83826
795.71        69.52604
796.12        68.88326
796.53        68.14668
796.94        67.92492
797.35        68.29742
797.76        68.87209
798.18        69.37955
798.59        69.67313
799.00        69.62151
799.41        69.20097
799.82        68.63605
800.23        68.36179
800.64        68.47596
801.06        68.80565
801.47        69.26193
801.88         69.5748
802.29        69.64639
802.70        69.56198
803.11        69.38876
803.52        69.22159
803.93        69.10659
804.34         69.0143
804.75        68.94588
805.17        68.91287
805.58        68.94035
805.99        68.99345
806.40        69.07861
806.81         69.2337
807.22        69.41492
807.63        69.52494
808.04        69.54513
808.45        69.51328
808.86        69.42338
809.27        69.23286
809.68        68.99918
810.09        68.85109
810.50        68.82166
810.91        68.88848
811.32        68.98859
811.73        69.00893
812.14        68.92175
812.55        68.76254
812.96        68.60684
813.37        68.58315
813.78        68.72253
814.19        68.97549
814.60        69.25775
815.01        69.45243
815.42         69.5305
815.83        69.52036
816.24        69.47112
816.65        69.47577
817.05        69.56503
817.46         69.6704
817.87         69.7687
818.28        69.77824
818.69        69.68237
819.10        69.51042
819.51        69.31427
819.92         69.1862
820.33        69.15663
820.74        69.19436
821.14        69.25686
821.55        69.29644
821.96        69.29002
822.37        69.27448
822.78        69.25467
823.19        69.23504
823.60        69.22964
824.00        69.24323
824.41        69.30144
824.82        69.52975
825.23        69.93331
825.64        70.46833
826.04        71.02872
826.45        71.33714
826.86        71.35748
827.27        71.15967
827.68        70.84895
828.08        70.63277
828.49        70.53663
828.90        70.51903
829.31        70.58235
829.72        70.72337
830.12        70.95282
830.53        71.23741
830.94        71.48077
831.35        71.46189
831.75        71.15343
832.16        70.55138
832.57        69.90836
832.97        69.60495
833.38        69.72321
833.79        70.16257
834.20        70.65092
834.60        70.74549
835.01        70.38161
835.42          69.713
835.82        69.03252
836.23        68.76828
836.64        69.04903
837.04        69.74753
837.45        70.59872
837.86        71.26108
838.26          71.597
838.67         71.6616
839.08        71.51439
839.48        71.23385
839.89        70.87882
840.29        70.40397
840.70         69.9296
841.11        69.58633
841.51        69.42848
841.92        69.46022
842.33        69.58492
842.73         69.6207
843.14         69.4797
843.54        69.21613
843.95        69.02128
844.35        69.24299
844.76         69.8894
845.17        70.86749
845.57        71.85722
845.98        72.16924
846.38         71.6993
846.79        70.66401
847.19          69.476
847.60        68.79501
848.00        68.77527
848.41        69.19889
848.81        69.88406
849.22        70.41685
849.62        70.69441
850.03        70.77687
850.43        70.71777
850.84        70.48065
851.24        70.15047
851.65        69.70947
852.05        69.26506
852.46        69.00043
852.86        68.93008
853.27         69.0278
853.67        69.22665
854.07        69.61156
854.48         70.1066
854.88        70.77579
855.29        71.28303
855.69        71.22503
856.10        70.41661
856.50        69.08828
856.90         67.7078
857.31        66.99794
857.71        67.15472
858.12        67.95223
858.52        69.11857
858.92        69.93399
859.33        70.11981
859.73        69.89673
860.13        69.45378
860.54        69.13237
860.94          69.079
861.34        69.14859
861.75        69.21382
862.15         69.1893
862.55        68.99717
862.96        68.70913
863.36         68.4063
863.76        68.20259
864.17        68.12192
864.57        68.16505
864.97        68.20351
865.38        68.02113
865.78        67.62213
866.18        67.03749
866.58         66.4993
866.99        66.40638
867.39        66.85114
867.79        67.67018
868.19        68.52464
868.60        68.87118
869.00        68.60296
869.40        67.90507
869.80        67.04336
870.21        66.49658
870.61        66.45119
871.01        66.71075
871.41        67.16584
871.81        67.66072
872.22        68.10425
872.62        68.61801
873.02        69.08626
873.42        69.27135
873.82        69.12752
874.22        68.69559
874.63        68.26131
875.03        68.24104
875.43        68.71375
875.83        69.54591
876.23        70.44115
876.63        70.87354
877.03         70.7215
877.44        70.20611
877.84        69.53071
878.24        69.05292
878.64        68.87736
879.04         68.8151
879.44        68.91655
879.84        69.27684
880.24        69.84164
880.64        70.62252
881.04        71.19029
881.44        70.78245
881.84        69.33315
882.24        67.18771
882.65        65.11547
883.05        64.10569
883.45        64.39237
883.85         65.6859
884.25        67.49845
884.65        68.89993
885.05        69.51098
885.45        69.55093
885.85        69.26674
886.25        69.06177
886.65        69.06335
887.05        69.11073
887.45        69.09416
887.85        68.88247
888.25        68.46098
888.65        67.94544
889.04        67.46666
889.44        67.21563
889.84        67.22475
890.24        67.45184
890.64        67.78941
891.04        68.06308
891.44        68.21288
891.84        68.26605
892.24        68.32283
892.64         68.5415
893.04        68.96002
893.44        69.54548
893.83        70.15821
894.23        70.48332
894.63        70.47678
895.03        70.17488
895.43        69.84621
895.83        69.91979
896.23         70.4589
896.63        71.33769
897.02        72.12418
897.42        72.12132
897.82        71.22956
898.22        69.71353
898.62        68.13641
899.01        67.27246
899.41        67.29869
899.81        68.01746
900.21        68.99684
900.61        69.41299
901.00        69.02585
901.40        68.18183
901.80        67.37076
902.20        67.27753
902.59        68.05602
902.99         69.4224
903.39        71.02773
903.79        72.10247
904.18        72.31427
904.58        71.92533
904.98        71.23201
905.38        70.64279
905.77        70.27865
906.17        70.03395
906.57         69.8828
906.96        69.84447
907.36        69.85983
907.76        69.97143
908.15        70.14154
908.55        70.19278
908.95        70.11015
909.34        69.91571
909.74        69.65563
910.14        69.36872
910.53        69.09353
910.93        68.86452
911.33        68.73087
911.72         68.7891
912.12        69.03923
912.52        69.41355
912.91        69.89532
913.31        70.42834
913.70        70.98338
914.10        71.51185
914.49        71.86877
914.89        71.74152
915.29        71.13323
915.68        70.17788
916.08        69.19363
916.47        68.62762
916.87        68.62411
917.26        68.99326
917.66        69.61198
918.05        70.27747
918.45        70.85796
918.84        71.45722
919.24        71.82867
919.64        71.67058
920.03        70.96088
920.42        69.79723
920.82        68.62663
921.21        67.94823
921.61         67.8665
922.00        68.30497
922.40         68.9571
922.79        69.36072
923.19        69.32558
923.58        69.00645
923.98        68.68461
924.37        68.74837
924.77        69.27504
925.16        70.12893
925.55         71.0313
925.95        71.48632
926.34        71.38125
926.74        70.86024
927.13        70.14565
927.52        69.56678
927.92         69.2311
928.31        69.03236
928.70        68.94929
929.10        68.92543
929.49        68.95058
929.89         69.0835
930.28        69.26654
930.67        69.34534
931.07        69.28809
931.46        69.12198
931.85        69.03732
932.24         69.3871
932.64        70.19282
933.03        71.39697
933.42        72.60825
933.82        73.19446
934.21        73.02502
934.60        72.26967
934.99        71.34666
935.39        70.87227
935.78        70.98684
936.17        71.48711
936.56        72.09306
936.96        72.33864
937.35        72.12795
937.74        71.62146
938.13        70.91842
938.53        70.15334
938.92        69.41943
939.31        68.75858
939.70        68.32556
940.09        68.37334
940.49        68.86701
940.88        69.70358
941.27        70.75128
941.66        71.76511
942.05        72.56683
942.44        73.21486
942.84        73.33959
943.23        72.37489
943.62        70.43738
944.01        67.89823
944.40        65.63252
944.79        64.73918
945.18        65.35714
945.57        67.21661
945.97        69.63054
946.36        71.42448
946.75        71.93985
947.14        71.49886
947.53        70.60294
947.92        70.11757
948.31        70.28574
948.70        70.72986
949.09        71.27576
949.48        71.68024
949.87        71.82033
950.26         71.8877
950.65        71.68861
951.04        70.86024
951.43        69.44578
951.82        67.58676
952.21        65.87596
952.60         65.2114
952.99        65.74474
953.38        67.23033
953.77        69.01122
954.16        69.93199
954.55        69.64291
954.94        68.43616
955.33        66.91356
955.72        66.08475
956.11        66.24078
956.50        67.09391
956.89        68.14706
957.28        68.59708
957.66        68.24737
958.05        67.36104
958.44        66.43454
958.83        66.22831
959.22        66.91674
959.61        68.22375
960.00        69.66023
960.39        70.39248
960.78        70.17348
961.16        69.29488
961.55        68.14141
961.94        67.29682
962.33        66.96198
962.72        66.94579
963.11        67.18771
963.49        67.62102
963.88          68.119
964.27        68.73747
964.66        69.31039
965.04        69.55272
965.43        69.35508
965.82        68.81758
966.21        68.13323
966.60        67.65868
966.98        67.52291
967.37        67.60877
967.76        67.86503
968.15        68.16747
968.53        68.47286
968.92        68.79682
969.31        69.07903
969.69        69.19988
970.08        69.10259
970.47        68.79008
970.86        68.42604
971.24        68.29034
971.63        68.45464
972.02        68.93875
972.40        69.51951
972.79         69.7385
973.17        69.57101
973.56        69.05495
973.95        68.70335
974.33        69.32847
974.72        70.98682
975.11        73.50146
975.49        76.19144
975.88        77.48396
976.26        76.87399
976.65          74.797
977.04        72.08739
977.42        69.86544
977.81        68.47554
978.19        67.57073
978.58        67.04349
978.96        66.53615
979.35        65.96938
979.74         65.4828
980.12        65.15751
980.51         64.9514
980.89        64.95432
981.28        65.13387
981.66        65.46973
982.05        65.88772
982.43        66.36649
982.82        66.81634
983.20         67.4373
983.59        68.58472
983.97        70.34873
984.35        72.61324
984.74        74.59171
985.12        75.17711
985.51        73.96744
985.89        71.50614
986.28        68.79008
986.66        66.88116
987.04        66.12613
987.43        66.10149
987.81        66.69884
988.20        67.52665
988.58        68.41772
988.96        69.54175
989.35        70.35223
989.73        70.10011
990.12        68.71348
990.50        66.36283
990.88        64.10208
991.27          63.527
991.65        64.95615
992.03        68.12785
992.42        71.72079
992.80        73.21632
993.18        71.55548
993.56        67.82605
993.95        63.89571
994.33         61.5778
994.71        61.29063
995.10        62.35623
995.48        64.26044
995.86        65.47209
996.24        65.35103
996.63        64.57748
997.01         63.6934
997.39        63.34336
997.77        63.73325
998.15        64.46375
998.54         65.7001
998.92        67.84899
999.30        70.80563
999.68        74.46886
1000.06        77.68097
1000.45        78.29972
1000.83        76.08742
1001.21        71.80618
1001.59        67.10718
1001.97        64.18513
1002.35        63.50825
1002.73        64.49578
1003.12        66.58128
1003.50        68.73747
1003.88        70.35437
1004.26        71.72203
1004.64        72.70259
1005.02        73.10485
1005.40        72.89928
1005.78         71.8802
1006.16         70.4174
1006.54        69.26215
1006.92        68.62784
1007.30        68.50383
1007.69        68.35363
1008.07        67.23086
1008.45        65.11815
1008.83        62.59842
1009.21        60.60347
1009.59        60.05872
1009.97        61.03094
1010.35        63.38496
1010.73         66.4009
1011.11        68.27567
1011.49        68.12691
1011.86         66.1465
1012.24        63.89167
1012.62        63.79261
1013.00        66.59065
1013.38        72.14583
1013.76        78.55576
1014.14        80.68906
1014.52        77.14308
1014.90        70.66014
1015.28        64.82681
1015.66        62.80253
1016.04        64.72951
1016.41        70.02037
1016.79        77.31072
1017.17        83.17843
1017.55        85.02782
1017.93        83.36091
1018.31        78.69889
1018.69         73.1619
1019.06        68.37276
1019.44        64.49673
1019.82        61.88838
1020.20        60.67622
1020.58        60.55555
1020.95        61.72412
1021.33        63.57127
1021.71        64.47485
1022.09        63.74394
1022.46        61.42076
1022.84        59.27919
1023.22         59.6161
1023.60        63.06064
1023.97        70.06679
1024.35        78.28662
1024.73        79.81171
