SpectraSmart Spectrum 2.9.0.0
--------- Device Information -----------
Spectrum Name :  反射率_0
Saving Time :  2024/05/03 20:27:52
Spectro-Module Model Name : SE2030-DUVN
Spectro-Module Serial Number : OS361AC55029948
Wavelength Start : 200
Wavelength End : 1025
Wavelength Unit : Wavelength(nm)
Spectrum Unit : Reflectance(%)
-----------Spectrum Setting ------------
Integration Time : 20ms
Average : 10
Boxcar : 0
Background removal :  enabled
linearity correction :  enabled
SC :  disabled
Intensity correction :  disabled
DWT denoise :  enabled
savitzky-golay :  disabled
FFT :  disabled
Running average :  disabled
Kalman :  disabled
High pass :  disabled
---------------BEGIN--------------------
Wavelength(nm)             Reflectance(%)
200.29               0
200.75        1.090488
201.21        29.21184
201.67       -1622.813
202.13       -53.89002
202.58       -12.62288
203.04        13.46182
203.50        32.64551
203.96        44.36818
204.42        51.50117
204.88        61.91395
205.34       -268.3506
205.80      -0.5129454
206.26       -43.22741
206.72       -30024.04
207.18        176.5358
207.64        137.6229
208.10        137.5337
208.55        177.9746
209.01        537.8922
209.47        420.5468
209.93        73.50719
210.39        49.16269
210.85        45.39659
211.31        46.88334
211.77        51.83621
212.23        64.79747
212.69        96.89974
213.14        112.6998
213.60        63.52128
214.06        35.79194
214.52        24.84541
214.98        18.87229
215.44        12.24906
215.90       -7.848848
216.36        200.9433
216.81         24.3465
217.27       -24.34056
217.73       -139.2614
218.19       -760.2823
218.65       -16968.11
219.11       -1142.846
219.57       -229.4155
220.02       -67.56198
220.48       -63.39536
220.94        122.7579
221.40        66.03484
221.86        60.67762
222.32        60.33709
222.77        61.79498
223.23        66.59256
223.69        74.49819
224.15         78.1878
224.61           73.23
225.06         64.6518
225.52        59.70412
225.98         61.4345
226.44        69.34202
226.90        83.17078
227.36        99.93415
227.81        107.6162
228.27         100.258
228.73        85.17886
229.19        70.40199
229.65         61.6707
230.10        58.20247
230.56        57.65771
231.02        58.23043
231.48        58.45156
231.93        58.05938
232.39        57.81886
232.85        57.73748
233.31        57.87022
233.77        58.24269
234.22        58.57407
234.68        59.21943
235.14        60.85328
235.60        63.59258
236.05        67.55424
236.51        71.45827
236.97        72.85423
237.43        71.10574
237.88        67.14016
238.34        63.22598
238.80        62.13876
239.26        64.84092
239.71        73.83179
240.17        88.94971
240.63        105.9912
241.08        112.6974
241.54        104.3063
242.00        90.97456
242.46        85.92651
242.91        92.19884
243.37          110.67
243.83        146.4141
244.28         185.677
244.74        189.0594
245.20        157.6697
245.66        116.8714
246.11        88.51921
246.57        74.05759
247.03        66.22171
247.48        61.96037
247.94        58.21404
248.40        53.87821
248.85        49.60962
249.31        46.26902
249.77        45.21676
250.22        46.64143
250.68         49.4589
251.14        52.83686
251.59        57.10749
252.05        63.39695
252.51        73.28739
252.96        88.63536
253.42        106.4209
253.88        118.6629
254.33        122.0036
254.79        118.2086
255.25        110.4399
255.70        102.2386
256.16        96.04954
256.62        91.78513
257.07        89.32806
257.53        88.53313
257.99        88.17236
258.44        87.68712
258.90        87.25388
259.35        86.26666
259.81        85.47811
260.27         84.2987
260.72        82.17745
261.18        79.88844
261.63         77.3925
262.09        75.52506
262.55        74.57981
263.00        74.29192
263.46        74.44476
263.91        74.53681
264.37        74.30906
264.83        73.58262
265.28        72.49375
265.74        71.12872
266.19        69.20768
266.65        66.97866
267.11        64.48242
267.56        62.09272
268.02        60.46221
268.47        59.58976
268.93        59.31241
269.38         59.2322
269.84        58.67933
270.30        57.52759
270.75        56.00231
271.21        54.48956
271.66        53.40127
272.12        52.81872
272.57        52.49413
273.03        52.22831
273.48        51.75012
273.94        51.00594
274.39        50.11449
274.85        49.12104
275.31        47.94448
275.76        46.62294
276.22        45.27913
276.67        44.08949
277.13        43.45411
277.58        43.28948
278.04        43.49121
278.49        43.68419
278.95        43.36847
279.40        42.42321
279.86        41.15456
280.31        39.80584
280.77        38.84185
281.22        38.23005
281.68        37.88366
282.13        37.59851
282.59        37.18347
283.04        36.57444
283.50        35.90406
283.95        35.25846
284.41        34.80382
284.86         34.5439
285.32        34.44731
285.77         34.4208
286.22        34.40663
286.68        34.38533
287.13        34.32964
287.59        34.28003
288.04        34.22082
288.50        34.17933
288.95        34.12493
289.41        34.05129
289.86        33.89613
290.32        33.69783
290.77        33.47022
291.22        33.31431
291.68        33.35359
292.13        33.60466
292.59        34.07729
293.04        34.69655
293.50        35.34465
293.95        35.97886
294.40        36.63371
294.86        37.41694
295.31         38.4901
295.77        39.88863
296.22        41.53931
296.68        43.29523
297.13        44.89531
297.58        46.23312
298.04        47.40451
298.49        48.46907
298.95        49.60615
299.40        50.85683
299.85        52.18213
300.31        53.65229
300.76        55.32768
301.21        57.20985
301.67        59.29764
302.12         61.3802
302.58        63.16196
303.03        64.55368
303.48         65.6566
303.94        66.76128
304.39        68.21424
304.84        70.12297
305.30        72.34976
305.75        74.62044
306.20        76.55682
306.66        78.07503
307.11        79.25776
307.57        80.28573
308.02        81.28304
308.47        82.36542
308.93        83.49512
309.38        84.66131
309.83        85.95435
310.29        87.36657
310.74        88.84814
311.19        90.29669
311.65        91.51989
312.10        92.43229
312.55        93.07149
313.00         93.4978
313.46        93.83412
313.91         94.1111
314.36        94.35806
314.82        94.60144
315.27        94.84577
315.72         95.1245
316.18        95.45875
316.63        95.89699
317.08        96.52036
317.53        97.32398
317.99        98.25001
318.44        99.19242
318.89        99.91785
319.35        100.3557
319.80        100.5586
320.25        100.6272
320.70        100.7588
321.16        100.9962
321.61        101.3039
322.06         101.614
322.51        101.8187
322.97        101.8821
323.42        101.8838
323.87         101.848
324.32        101.8192
324.78        101.8103
325.23        101.8429
325.68         101.932
326.13        102.1209
326.59        102.3868
327.04        102.7731
327.49        103.2093
327.94        103.6156
328.39        103.9538
328.85        104.1814
329.30        104.3935
329.75        104.6127
330.20        104.8559
330.66        105.1015
331.11        105.3355
331.56        105.4127
332.01        105.3378
332.46        105.1663
332.92        105.0533
333.37        105.3774
333.82        106.1691
334.27        107.3247
334.72         108.604
335.17        109.5961
335.63        110.1234
336.08        110.3245
336.53        110.3012
336.98        110.3009
337.43        110.4185
337.88         110.598
338.34        110.7822
338.79        110.9048
339.24        110.9616
339.69        111.0388
340.14        111.2262
340.59        111.6396
341.05         112.291
341.50        113.1159
341.95         114.044
342.40        114.9868
342.85         115.881
343.30        116.7251
343.75        117.4234
344.20        117.8372
344.66        117.9825
345.11        117.8983
345.56        117.7583
346.01        117.8305
346.46        118.1823
346.91        118.7333
347.36        119.3951
347.81        120.0127
348.26        120.5247
348.72        120.9888
349.17        121.3492
349.62        121.5448
350.07        121.5804
350.52         121.457
350.97        121.2987
351.42        121.3227
351.87        121.5519
352.32        121.8997
352.77        122.2086
353.22        122.2204
353.67        121.8865
354.13        121.3544
354.58        120.6745
355.03        119.9966
355.48        119.4041
355.93        118.8768
356.38         118.514
356.83        118.4712
357.28        118.7336
357.73        119.2131
358.18         119.716
358.63        119.9229
359.08        119.7329
359.53        119.2273
359.98        118.4614
360.43        117.5501
360.88        116.5607
361.33         115.462
361.78        114.3806
362.23        113.5013
362.68        112.8535
363.13        112.4255
363.58        112.0124
364.03        111.2697
364.48        110.1461
364.93        108.7498
365.38        107.3772
365.83        106.4826
366.28        106.1504
366.73        106.2338
367.18        106.4116
367.63        106.1688
368.08         105.378
368.53        104.2003
368.98        102.9358
369.43        102.0322
369.88        101.5958
370.33        101.4929
370.78        101.4738
371.23        101.1341
371.68        100.3714
372.13        99.31873
372.58        98.24311
373.03        97.53377
373.48        97.26081
373.93        97.28684
374.38        97.32795
374.83        96.93481
375.28        96.00992
375.72        94.69177
376.17        93.34306
376.62        92.33922
377.07        91.76369
377.52        91.49357
377.97        91.32999
378.42          90.966
378.87        90.33433
379.32        89.54929
379.77        88.78771
380.22        88.28114
380.67        88.05759
381.11        88.04339
381.56        88.02798
382.01        87.74702
382.46        87.14973
382.91        86.34973
383.36        85.53655
383.81        84.97379
384.26        84.71037
384.71        84.65242
385.15        84.65916
385.60        84.54085
386.05        84.22513
386.50        83.76875
386.95        83.24794
387.40        82.77201
387.85        82.38194
388.29        82.02314
388.74        81.71114
389.19        81.28809
389.64        80.73528
390.09         80.0884
390.54        79.50832
390.98         79.1699
391.43         79.1342
391.88        79.45804
392.33        79.88706
392.78        79.65858
393.23        78.93159
393.67        78.63188
394.12        78.78608
394.57         78.5659
395.02        78.06359
395.47        77.59998
395.91        77.28481
396.36        77.02862
396.81        76.88262
397.26        76.88657
397.71        76.88236
398.15        76.70913
398.60         76.4593
399.05        75.80367
399.50        75.01702
399.95        75.29903
400.39        76.37756
400.84        76.10364
401.29        74.68547
401.74        74.44707
402.18        75.32314
402.63        75.40797
403.08        74.75932
403.53        74.12038
403.97        74.56966
404.42        74.60354
404.87        74.48417
405.32        74.32512
405.76        74.10932
406.21        73.93182
406.66        73.74866
407.11        73.34853
407.55        72.86483
408.00         72.6446
408.45        72.70747
408.90        72.91695
409.34        73.08466
409.79        72.78349
410.24        72.17404
410.68        71.94164
411.13        72.13533
411.58        72.36107
412.03        72.46494
412.47        72.39406
412.92        72.08698
413.37        71.58196
413.81        71.06581
414.26         70.8907
414.71        71.06988
415.15        71.55241
415.60          72.057
416.05         72.1766
416.49        71.80707
416.94        71.11247
417.39         70.3788
417.83        70.00594
418.28        70.09716
418.73        70.52209
419.17        71.10803
419.62        71.50859
420.07          71.603
420.51          71.452
420.96        71.20776
421.41        70.96241
421.85        70.72651
422.30        70.70523
422.74        70.71978
423.19           70.29
423.64        69.54214
424.08        69.35323
424.53        69.73824
424.98        70.01121
425.42        70.13382
425.87        70.62889
426.31        71.35391
426.76        71.47063
427.21        71.08367
427.65        71.13177
428.10        71.52135
428.54        71.50239
428.99         71.1451
429.44        70.66865
429.88        70.22924
430.33        70.48561
430.77        71.11385
431.22        71.02836
431.66        70.31756
432.11        70.14147
432.56        70.49816
433.00        70.81416
433.45        70.90233
433.89        71.28074
434.34        68.83112
434.78        71.32043
435.23        70.90734
435.67        69.89733
436.12        69.22025
436.57        69.31273
437.01        70.69604
437.46        71.44123
437.90         71.1283
438.35        70.47172
438.79        70.85265
439.24        70.70296
439.68        70.45604
440.13        70.45515
440.57         70.7086
441.02        70.60361
441.46        70.16357
441.91        70.65125
442.35        71.59528
442.80        70.96472
443.24        69.22063
443.69        69.33534
444.13         71.0492
444.58        71.59043
445.02        70.83403
445.47        70.32584
445.91        70.24544
446.36        70.25311
446.80        70.36782
447.24        70.67722
447.69        71.04158
448.13         71.2374
448.58        71.22445
449.02         71.0364
449.47        70.78851
449.91        70.62766
450.36        70.61389
450.80        70.66441
451.25        70.75027
451.69        70.79457
452.13        70.78056
452.58        70.74466
453.02        70.66985
453.47         70.5556
453.91        70.39728
454.36         70.1936
454.80        69.96823
455.24         69.8343
455.69        69.82945
456.13        69.82089
456.58        69.73808
457.02        69.96656
457.46        69.51581
457.91        69.40516
458.35        69.30188
458.79        69.31975
459.24        69.37541
459.68        69.00145
460.13        68.33678
460.57        68.11514
461.01        68.47395
461.46        68.18899
461.90        68.01554
462.34        68.85399
462.79        67.60946
463.23        67.34253
463.68        67.35447
464.12        67.36024
464.56        67.33567
465.01        67.58326
465.45        68.00537
465.89        67.86887
466.34        67.20454
466.78        67.71882
467.22        68.21967
467.67        67.11269
468.11         67.0976
468.55        66.87509
468.99        67.15764
469.44        67.18295
469.88        66.92641
470.32        66.78359
470.77        66.75372
471.21        66.74424
471.65        66.72601
472.10        66.70565
472.54        66.68662
472.98        66.63533
473.42        66.53295
473.87        66.61703
474.31        66.72355
474.75        66.18423
475.20        65.26236
475.64        65.07175
476.08        65.56187
476.52        65.73752
476.97        65.53902
477.41        65.58086
477.85        65.84249
478.29        66.12438
478.74        65.66125
479.18        66.27749
479.62         66.0746
480.06        66.10352
480.50        65.78019
480.95        65.74664
481.39        66.11467
481.83        65.06032
482.27        65.17189
482.72         66.0434
483.16        65.46645
483.60        65.69765
484.04        65.96243
484.48        65.68493
484.93        64.88808
485.37        66.24876
485.81        66.58369
486.25         66.2519
486.69         68.9403
487.14        68.72781
487.58        65.54799
488.02        65.46706
488.46        66.33806
488.90        64.58302
489.34        65.71136
489.79        65.75684
490.23        65.68681
490.67        65.67886
491.11        65.57622
491.55        65.54334
491.99         65.5312
492.43        65.48223
492.88        65.40021
493.32        65.43608
493.76         65.5628
494.20        65.58184
494.64        65.45279
495.08         65.4398
495.52        65.53778
495.96        65.16087
496.41        64.53892
496.85        64.99456
497.29        66.20503
497.73        66.28181
498.17        65.30367
498.61        64.92795
499.05        65.24059
499.49        65.30962
499.93        65.08347
500.37        64.87197
500.82        64.70296
501.26        64.60149
501.70        64.59138
502.14        64.66338
502.58        64.78567
503.02        64.88404
503.46        64.94007
503.90        64.99801
504.34        65.03378
504.78        64.99077
505.22        64.86338
505.66        64.67422
506.10        64.49249
506.54        64.42974
506.98        64.49226
507.42         64.8001
507.86        64.71251
508.30        65.07624
508.74        64.75677
509.18        64.55497
509.62        64.29004
510.06        64.17547
510.50        64.24855
510.94        64.45109
511.38        64.68548
511.82        64.76678
512.26        64.65341
512.70        64.40941
513.14        64.11717
513.58         63.9151
514.02        63.83906
514.46        63.81462
514.90        63.80421
515.34        63.86352
515.78        63.79262
516.22        63.78152
516.66        63.74918
517.10        63.65173
517.54        63.49251
517.98        63.27676
518.42        63.11684
518.86        63.18442
519.30        63.49506
519.74        64.00792
520.18        64.53765
520.62        64.72586
521.06        64.53091
521.50        64.17304
521.93        63.79237
522.37        63.52554
522.81        63.43385
523.25          63.506
523.69        63.67757
524.13        63.81194
524.57        63.87104
525.01        63.91397
525.45         63.9279
525.89        63.88416
526.32        63.78525
526.76        63.63399
527.20        63.50428
527.64        63.52762
528.08        63.72165
528.52        64.04789
528.96        64.38424
529.40        64.53501
529.83        64.44482
530.27        64.17942
530.71        63.86129
531.15        63.69216
531.59         63.7175
532.03        63.88449
532.46        64.06316
532.90        64.04606
533.34         63.8064
533.78        63.44254
534.22        63.09996
534.66        62.98579
535.09        63.12464
535.53        63.43371
535.97        63.81588
536.41        64.07147
536.85        64.12805
537.28        64.21231
537.72        64.27766
538.16        63.85399
538.60        63.16833
539.04        63.11182
539.47        63.59113
539.91        63.74387
540.35        63.53021
540.79         63.4783
541.22        63.57719
541.66        63.60958
542.10        63.57531
542.54        63.43717
542.97        63.27293
543.41        63.45152
543.85        63.87232
544.29         64.0156
544.72        63.85067
545.16        63.77987
545.60        63.79483
546.04        63.67102
546.47        63.44492
546.91         63.3121
547.35         63.3008
547.79        63.34668
548.22         63.4287
548.66        63.59819
549.10        63.80601
549.53        63.99049
549.97        64.11787
550.41        64.19276
550.84        64.19272
551.28        64.12698
551.72        64.01126
552.15        63.79505
552.59        63.51096
553.03        63.44527
553.46        63.24654
553.90        63.07315
554.34         63.1965
554.77        63.34908
555.21         63.6739
555.65        63.39075
556.08        63.82611
556.52        63.87465
556.96        63.90581
557.39          63.884
557.83        63.85072
558.27        63.75796
558.70        63.62458
559.14         63.6383
559.57        63.74011
560.01        63.66322
560.45        63.45883
560.88        63.45723
561.32        63.65469
561.75        63.77604
562.19        63.84549
562.63        63.78561
563.06        63.66068
563.50        64.02605
563.93        64.66818
564.37        64.47131
564.80        63.60952
565.24         63.4577
565.68        63.93964
566.11         64.0512
566.55        63.79827
566.98        63.64334
567.42        63.63604
567.85        63.90749
568.29        63.97787
568.72        64.00745
569.16        63.97243
569.60        64.01395
570.03        64.09117
570.47        64.31297
570.90        64.70434
571.34        64.09508
571.77        65.21598
572.21        64.69799
572.64        65.02817
573.08        64.60502
573.51        64.62084
573.95        64.59261
574.38         64.8642
574.82        64.42728
575.25        65.59108
575.69         65.7074
576.12        65.10657
576.56        64.39124
576.99        64.75925
577.42         65.5595
577.86         65.3013
578.29        65.67294
578.73        65.52567
579.16        65.53414
579.60        65.42041
580.03        65.34239
580.47        65.21082
580.90        65.38451
581.33        64.85768
581.77        65.38295
582.20        66.50194
582.64        66.46127
583.07        66.26479
583.51        65.49931
583.94        64.85142
584.37        64.54571
584.81        64.80806
585.24          64.913
585.68        65.84473
586.11        65.25146
586.54        65.48697
586.98        64.96391
587.41        64.31842
587.85          65.239
588.28        65.43358
588.71        65.15692
589.15        64.48621
589.58        65.27138
590.01        64.29594
590.45        64.03794
590.88        64.54802
591.31        64.82963
591.75        65.02127
592.18        64.65576
592.61        64.06041
593.05         64.0836
593.48         65.7732
593.91        65.44588
594.35        65.71343
594.78        65.14504
595.21        64.99668
595.65        64.78659
596.08        64.56557
596.51         65.1984
596.94        64.92081
597.38        64.81325
597.81         64.2428
598.24        65.27719
598.68        65.10354
599.11         63.8576
599.54        65.75791
599.97        64.76686
600.41        65.07849
600.84        64.91243
601.27        65.14269
601.70        64.77824
602.14        64.85372
602.57        64.88362
603.00        65.09581
603.43        65.04686
603.87        64.80302
604.30        64.92217
604.73        65.12943
605.16        64.96454
605.60        64.23322
606.03        64.28571
606.46        65.01196
606.89        64.50159
607.32        64.99492
607.76         64.4201
608.19        64.61482
608.62        64.93285
609.05        64.60265
609.48        64.51357
609.92        64.66563
610.35        63.89258
610.78        65.34706
611.21        66.09041
611.64        65.50963
612.07        65.35583
612.50        65.29797
612.94        65.09144
613.37        64.74652
613.80        64.83126
614.23        64.68774
614.66        64.56838
615.09        64.65228
615.52        64.83743
615.96        65.13446
616.39        65.31403
616.82        65.36759
617.25        65.00842
617.68        65.30217
618.11        64.76161
618.54         63.9663
618.97        63.87416
619.40        64.49297
619.84        64.64193
620.27        64.88574
620.70        65.03338
621.13        65.24561
621.56        64.90022
621.99        64.13464
622.42        64.37044
622.85         64.7354
623.28        64.64167
623.71         64.4759
624.14        64.40565
624.57        64.19162
625.00        63.61681
625.43        64.13622
625.86        64.29555
626.29        64.47728
626.72        64.60739
627.15        64.66148
627.58        64.62029
628.01        64.47973
628.44        64.33866
628.87        64.19613
629.30        64.04244
629.73        63.86278
630.16        64.03715
630.59        63.88449
631.02        63.98117
631.45        64.10487
631.88        64.19315
632.31        64.21679
632.74         64.2923
633.17        64.24548
633.60        64.20434
634.03        64.12331
634.46        64.01092
634.89        63.88752
635.32        63.79213
635.75        63.73674
636.18        63.71038
636.61        63.70355
637.04         63.7007
637.47        63.69926
637.89        63.69563
638.32         63.6573
638.75        63.62935
639.18        63.62693
639.61        63.40448
640.04        63.43029
640.47        63.39132
640.90        63.42965
641.33         63.5219
641.76        63.65136
642.18        63.79075
642.61        63.89659
643.04        63.97859
643.47        64.03539
643.90        64.06773
644.33        64.07321
644.76        64.06194
645.18        64.03545
645.61        63.91196
646.04        63.69264
646.47        63.55436
646.90        63.59365
647.33        63.20771
647.75         63.6049
648.18         63.7672
648.61        64.01559
649.04        64.25008
649.47        64.45123
649.89        64.67934
650.32        64.81178
650.75        64.70181
651.18         64.4067
651.61        63.97309
652.03        63.59459
652.46        63.80111
652.89        64.37637
653.32        64.44464
653.74        64.23757
654.17        63.83281
654.60        63.56213
655.03        64.91142
655.46        64.04856
655.88        63.95948
656.31          67.359
656.74        74.13609
657.16        70.08427
657.59         65.6977
658.02         65.2168
658.45        65.93416
658.87        66.17704
659.30        64.60429
659.73         64.0658
660.15        64.32132
660.58        63.76065
661.01        63.94976
661.44         63.9771
661.86        63.82951
662.29        63.49565
662.72        63.49637
663.14         63.8147
663.57        63.71185
664.00        63.29792
664.42        63.32731
664.85        63.76691
665.27        63.94963
665.70          63.839
666.13        63.84613
666.55        63.97027
666.98        63.96851
667.41        63.86848
667.83        63.81062
668.26        63.80739
668.69        63.84905
669.11        63.88375
669.54        63.81947
669.96        63.64865
670.39        63.40792
670.82        63.23577
671.24        63.29699
671.67        63.60814
672.09        64.19078
672.52        64.86941
672.94        64.88177
673.37        64.92166
673.80        64.47396
674.22        63.95972
674.65        63.67003
675.07         63.7043
675.50        63.95099
675.92        64.29224
676.35        64.50739
676.77        64.53997
677.20        64.46108
677.62        64.34332
678.05         64.3005
678.47        64.36058
678.90        64.48119
679.32        64.60934
679.75        64.72427
680.17        64.81219
680.60        64.80199
681.02        64.70362
681.45        64.91259
681.87        64.75879
682.30        64.84345
682.72        64.93459
683.15        64.82683
683.57        64.59706
684.00        64.63303
684.42        64.89858
684.85        65.01237
685.27        64.95491
685.70        64.85201
686.12        64.71767
686.54        64.78339
686.97        64.97961
687.39        64.62182
687.82        64.30408
688.24        64.04593
688.66        64.04887
689.09        64.03571
689.51        64.02137
689.94        64.16415
690.36        64.46647
690.78        64.78972
691.21        64.98763
691.63        65.48065
692.06        65.02216
692.48        65.06049
692.90        65.22239
693.33        65.25438
693.75        65.17155
694.17        65.05893
694.60        64.95029
695.02         65.3293
695.44        65.26414
695.87        65.56541
696.29        65.85858
696.71        65.80322
697.14        65.43874
697.56         65.1572
697.98        65.05543
698.41        64.97756
698.83        64.92252
699.25        65.05353
699.68        65.27052
700.10        65.39311
700.52        65.35802
700.94        65.22585
701.37        65.06041
701.79        64.98852
702.21         65.0284
702.64        65.13979
703.06        65.26246
703.48        65.31003
703.90        65.26628
704.33        65.16525
704.75        65.05939
705.17        65.01641
705.59         65.0581
706.01        65.15335
706.44        65.28291
706.86        65.44498
707.28        65.60429
707.70        65.76196
708.12        65.89314
708.55        65.94445
708.97        65.90749
709.39        65.81691
709.81        65.70493
710.23        65.63371
710.66         65.6277
711.08        65.68226
711.50        65.78268
711.92         65.9229
712.34        66.08903
712.76        66.27739
713.19        66.42493
713.61        66.48528
714.03        66.41914
714.45        66.24497
714.87        66.02839
715.29        65.87043
715.71        65.79486
716.13        65.78121
716.56        65.76801
716.98        65.71617
717.40        65.59418
717.82        65.43858
718.24        65.30299
718.66         65.2692
719.08        65.35128
719.50        65.50662
719.92        65.70184
720.34        65.88586
720.76        66.03844
721.19        66.16655
721.61        66.25016
722.03        66.25617
722.45         66.2151
722.87        65.97952
723.29         65.6341
723.71         65.7631
724.13        66.40007
724.55        65.94721
724.97        66.39475
725.39        66.31323
725.81        66.30113
726.23        66.14595
726.65        65.94586
727.07         65.9106
727.49        66.05446
727.91        66.33059
728.33        66.66158
728.75        66.91774
729.17        67.05257
729.59        67.10314
730.01        67.10712
730.43        67.12436
730.85        67.17335
731.27        67.22596
731.69        67.26813
732.10        67.28915
732.52        67.28024
732.94         67.2535
733.36        67.20382
733.78        67.11527
734.20        67.00012
734.62        66.88339
735.04        66.78468
735.46        66.72704
735.88        66.70663
736.30        66.71146
736.72        66.76557
737.13        66.84158
737.55        66.87527
737.97        67.12536
738.39        67.48662
738.81        67.18833
739.23        66.47849
739.65        66.78703
740.06        67.85992
740.48        68.14982
740.90        67.56536
741.32        66.96523
741.74        66.56885
742.16        66.35384
742.57        66.41373
742.99        66.72997
743.41        67.18315
743.83        67.56124
744.25        67.78806
744.67         67.8979
745.08        67.93929
745.50        67.95286
745.92        67.97783
746.34        67.98988
746.75        67.95396
747.17        67.84634
747.59        67.66248
748.01          67.405
748.42        67.17046
748.84        67.09797
749.26         67.1694
749.68        67.39774
750.09         67.6823
750.51        67.54536
750.93        67.16419
751.35        67.54707
751.76        68.55718
752.18        68.88218
752.60        68.40801
753.01        68.30854
753.43        67.89978
753.85         67.7787
754.27        67.72791
754.68        68.03274
755.10        68.12688
755.52        68.30747
755.93        68.42824
756.35        68.55825
756.77         68.6164
757.18        68.65034
757.60        68.71734
758.02        68.31413
758.43        67.70005
758.85        68.62213
759.26        70.15519
759.68        70.40662
760.10        69.25126
760.51        68.73138
760.93        69.00205
761.34        69.03776
761.76        69.14389
762.18        68.79598
762.59        68.25992
763.01         68.2524
763.42        68.78809
763.84        68.94042
764.26         68.6998
764.67        68.54738
765.09        68.55838
765.50        68.63404
765.92        68.73071
766.33         68.4762
766.75        68.00755
767.16        67.98109
767.58        68.42698
768.00        68.91314
768.41        69.33884
768.83        69.80904
769.24        70.13492
769.66         69.8895
770.07        69.20545
770.49        68.58102
770.90        68.20206
771.32        68.33663
771.73        68.86956
772.15        69.16771
772.56        69.18172
772.97        69.26852
773.39        69.42882
773.80        69.55527
774.22        69.60705
774.63        69.64603
775.05        69.63158
775.46        69.56461
775.88        69.43356
776.29         69.2632
776.70         69.1008
777.12        69.03084
777.53        69.09422
777.95        69.25623
778.36        69.44963
778.77        69.52332
779.19        69.45255
779.60        69.29079
780.02        69.13745
780.43         69.1486
780.84        69.36235
781.26        69.71211
781.67        70.14845
782.09        70.46373
782.50        70.62629
782.91        70.78667
783.33        70.91176
783.74        70.90324
784.15        70.72827
784.57         70.5023
784.98        70.29296
785.39        70.09405
785.81         69.9786
786.22        70.12548
786.63        70.43061
787.04         70.5519
787.46        70.46975
787.87         70.3066
788.28        70.18988
788.70        70.25459
789.11        70.50462
789.52        70.89105
789.93        71.29665
790.35        71.52018
790.76        71.53795
791.17        71.41862
791.58         71.2262
792.00        71.05778
792.41        70.98248
792.82        70.90891
793.23        70.90174
793.65        71.15855
794.06        71.64249
794.47        72.05878
794.88        72.24541
795.29        72.24426
795.71        71.99868
796.12        71.41166
796.53        70.69411
796.94        70.44585
797.35        70.74017
797.76        71.17863
798.18        71.54469
798.59        71.79245
799.00        71.80836
799.41        71.53324
799.82        71.13519
800.23        70.96022
800.64        71.08006
801.06          71.349
801.47        71.69711
801.88        71.88804
802.29        71.84389
802.70        71.63559
803.11        71.36163
803.52        71.16759
803.93        71.10924
804.34        71.15421
804.75        71.23576
805.17        71.26568
805.58        71.24718
805.99        71.10775
806.40        70.95162
806.81        71.12969
807.22        71.56025
807.63        71.77585
808.04        71.72308
808.45        71.67001
808.86        71.61034
809.27        71.34148
809.68        70.97217
810.09        70.81535
810.50        70.92789
810.91        71.21806
811.32         71.5671
811.73        71.77387
812.14        71.77481
812.55        71.63658
812.96         71.4252
813.37        71.25444
813.78        71.17832
814.19        71.16588
814.60        71.20937
815.01        71.30253
815.42        71.43564
815.83        71.61175
816.24         71.8182
816.65        72.01372
817.05        72.17388
817.46         72.2635
817.87        72.28886
818.28        72.21808
818.69        72.05744
819.10        71.81614
819.51        71.57198
819.92        71.46896
820.33        71.54163
820.74         71.7428
821.14        71.97697
821.55        72.11185
821.96        72.10249
822.37        72.00674
822.78        71.85786
823.19        71.71548
823.60          71.623
824.00        71.58038
824.41        71.61014
824.82        71.83476
825.23        72.25252
825.64        72.81135
826.04        73.41605
826.45         73.8019
826.86        73.92107
827.27        73.83137
827.68        73.56906
828.08        73.22899
828.49        72.83494
828.90        72.41242
829.31        72.07089
829.72        71.98228
830.12        72.20724
830.53        72.64108
830.94        73.17918
831.35        73.57104
831.75        73.73147
832.16        73.65443
832.57        73.40099
832.97        73.05352
833.38          72.673
833.79          72.266
834.20        71.87504
834.60        71.55597
835.01        71.35227
835.42        71.26715
835.82        71.33833
836.23        71.56611
836.64        71.94286
837.04        72.45967
837.45        72.97062
837.86        73.35685
838.26        73.57189
838.67         73.5951
839.08        73.44713
839.48        73.15633
839.89        72.76464
840.29        72.26387
840.70        71.79775
841.11        71.51347
841.51        71.46584
841.92        71.64294
842.33        71.91457
842.73        72.04628
843.14        71.93704
843.54        71.66187
843.95        71.44637
844.35        71.69798
844.76        72.43963
845.17        73.55387
845.57        74.71257
845.98          75.203
846.38        74.89803
846.79        74.01321
847.19        72.91644
847.60        72.20405
848.00        72.02651
848.41        72.18454
848.81        72.56905
849.22        72.88844
849.62        73.08012
850.03        73.18102
850.43         73.1853
850.84        72.94144
851.24        72.50486
851.65        71.89313
852.05        71.28181
852.46        70.96049
852.86        70.96747
853.27        71.23785
853.67        71.63087
854.07        72.14841
854.48        72.69718
854.88        73.36106
855.29        73.86008
855.69        73.90404
856.10        73.32232
856.50        72.29932
856.90        71.18862
857.31        70.55595
857.71        70.56401
858.12        71.01951
858.52        71.76553
858.92        72.28922
859.33        72.39104
859.73        72.26043
860.13        71.96706
860.54        71.65025
860.94        71.41354
861.34        71.17242
861.75        70.95151
862.15        70.91845
862.55        71.03851
862.96        71.27612
863.36        71.51743
863.76        71.56946
864.17          71.378
864.57        71.05069
864.97        70.59551
865.38        70.01199
865.78        69.38656
866.18        68.69418
866.58         68.1592
866.99        68.16234
867.39        68.77311
867.79        69.83929
868.19        70.96552
868.60        71.51373
869.00        71.34894
869.40        70.65522
869.80        69.73397
870.21        69.14351
870.61        69.09218
871.01        69.36461
871.41        69.81248
871.81        70.21608
872.22        70.47856
872.62        70.76054
873.02        71.01208
873.42        71.10882
873.82        71.04923
874.22        70.84067
874.63        70.71008
875.03        70.99684
875.43        71.73475
875.83        72.76205
876.23        73.79214
876.63        74.31937
877.03        74.21809
877.44        73.72775
877.84        72.93123
878.24        72.00195
878.64        71.07935
879.04        70.08887
879.44        69.39807
879.84        69.53977
880.24        70.52062
880.64        72.22076
881.04        73.89117
881.44        74.16712
881.84        72.78236
882.24        70.25081
882.65        67.61422
883.05        66.26443
883.45        66.54257
883.85        68.03379
884.25        70.12182
884.65        71.65832
885.05        72.19418
885.45         72.0443
885.85         71.5594
886.25        71.27657
886.65        71.35456
887.05        71.57577
887.45        71.75053
887.85         71.6283
888.25        71.15734
888.65        70.48971
889.04        69.82102
889.44        69.43987
889.84        69.40305
890.24        69.64429
890.64        70.00496
891.04        70.22455
891.44        70.23772
891.84        70.12316
892.24        70.04864
892.64        70.27347
893.04        70.85325
893.44        71.69888
893.83        72.63998
894.23         73.3083
894.63        73.61419
895.03        73.59787
895.43        73.44437
895.83        73.45842
896.23        73.70636
896.63        74.11806
897.02        74.42153
897.42        74.18204
897.82        73.36516
898.22        72.15542
898.62        70.98953
899.01         70.4579
899.41        70.68317
899.81         71.5074
900.21        72.51936
900.61        72.93855
901.00        72.52775
901.40        71.59656
901.80         70.6287
902.20        70.29781
902.59        70.76286
902.99        71.78033
903.39        73.00561
903.79         73.6923
904.18          73.569
904.58         72.9086
904.98        72.12383
905.38        71.77799
905.77         71.9743
906.17        72.53677
906.57         73.2049
906.96        73.59928
907.36        73.54898
907.76        73.20406
908.15        72.74357
908.55        72.37559
908.95        72.21883
909.34        72.19111
909.74        72.22207
910.14        72.16778
910.53        71.99917
910.93        71.80306
911.33        71.66852
911.72        71.73898
912.12        72.03212
912.52        72.47213
912.91        72.97248
913.31        73.38025
913.70        73.66219
914.10        73.79463
914.49        73.81642
914.89        73.71364
915.29         73.5403
915.68        73.33339
916.08        73.11861
916.47        72.88216
916.87        72.67299
917.26        72.43987
917.66         72.3548
918.05        72.66036
918.45        73.33419
918.84        74.36422
919.24        75.27367
919.64        75.34326
920.03        74.43076
920.42        72.78561
920.82        71.10242
921.21        70.20139
921.61        70.24936
922.00         71.0666
922.40         72.1654
922.79        72.76589
923.19        72.57864
923.58        71.87461
923.98        71.12582
924.37        70.98182
924.77        71.59097
925.16        72.75513
925.55        74.06771
925.95        74.79967
926.34        74.75648
926.74        74.13076
927.13         73.2961
927.52        72.81586
927.92        72.82815
928.31        73.14036
928.70        73.51675
929.10        73.55143
929.49        73.18034
929.89         72.6125
930.28        72.03832
930.67        71.70084
931.07        71.67044
931.46         71.8231
931.85        72.23442
932.24        73.06406
932.64        74.23568
933.03        75.77154
933.42        77.13912
933.82        77.46886
934.21        76.64078
934.60        74.90711
934.99        73.04613
935.39         72.2318
935.78        72.70419
936.17        74.09829
936.56        75.78926
936.96        76.68913
937.35        76.51165
937.74        75.60983
938.13        74.29404
938.53        73.05083
938.92        72.09952
939.31        71.35371
939.70        70.96085
940.09        71.17963
940.49         71.9445
940.88        73.18244
941.27        74.63528
941.66        75.80151
942.05        76.43958
942.44        76.66875
942.84        76.29142
943.23        75.05722
943.62        73.16126
944.01        70.85769
944.40         68.9051
944.79        68.25641
945.18        69.01019
945.57        70.95132
945.97        73.37695
946.36        75.08667
946.75        75.43476
947.14        74.76805
947.53        73.66812
947.92        73.12664
948.31        73.42487
948.70        74.15833
949.09         75.1324
949.48        76.05489
949.87         76.7458
950.26        77.36889
950.65        77.64973
951.04        77.10509
951.43        75.75205
951.82        73.77221
952.21        71.81013
952.60        70.84937
952.99        71.09109
953.38        72.28823
953.77        73.85062
954.16        74.72744
954.55        74.58379
954.94        73.68001
955.33        72.51638
955.72         71.9268
956.11        72.14336
956.50        72.91454
956.89        73.78022
957.28        74.01141
957.66        73.45284
958.05        72.35487
958.44        71.23875
958.83        70.90478
959.22        71.53326
959.61        72.83889
960.00        74.31726
960.39        75.09891
960.78        74.90649
961.16        74.02219
961.55        72.78903
961.94        71.73273
962.33        71.05398
962.72        70.59744
963.11        70.36146
963.49        70.37182
963.88        70.55371
964.27        70.96839
964.66        71.46574
965.04        71.78108
965.43        71.78097
965.82        71.51707
966.21        71.16355
966.60        71.03929
966.98        71.24792
967.37        71.70262
967.76        72.19467
968.15         72.3636
968.53        72.14343
968.92        71.57493
969.31        71.00959
969.69        71.01464
970.08         71.6646
970.47        72.79382
970.86        73.90652
971.24        74.21029
971.63        73.54297
972.02        72.21893
972.40         70.7897
972.79        70.15386
973.17        70.65833
973.56        71.92831
973.95        73.67525
974.33        75.50327
974.72        77.13493
975.11        78.68471
975.49        80.05062
975.88        80.81797
976.26        80.88116
976.65        80.24155
977.04        79.02497
977.42        77.40606
977.81        75.57994
978.19        73.55032
978.58        71.72366
978.96        70.49583
979.35        69.96698
979.74        70.00785
980.12        70.31271
980.51        70.20889
980.89        69.60284
981.28        68.67664
981.66        67.70828
982.05        67.11816
982.43        67.08646
982.82        67.40672
983.20        68.11851
983.59        69.31856
983.97        71.02478
984.35        73.21701
984.74        75.23838
985.12         76.1965
985.51        75.68898
985.89        74.06506
986.28        72.13919
986.66        70.79727
987.04        70.35349
987.43        70.44057
987.81        70.92956
988.20        71.38113
988.58        71.69495
988.96        72.10373
989.35        72.26328
989.73        71.73669
990.12        70.48558
990.50        68.53822
990.88        66.80397
991.27        66.64943
991.65        68.33639
992.03        71.75339
992.42        75.40007
992.80         76.4452
993.18        73.88786
993.56        68.98428
993.95        64.25636
994.33        62.34725
994.71        63.76203
995.10        67.66188
995.48        72.85769
995.86        76.04269
996.24        75.76129
996.63        73.21444
997.01        69.81297
997.39         67.4266
997.77        66.57346
998.15        66.50058
998.54        67.24634
998.92        68.99192
999.30        71.57181
999.68        75.16633
1000.06        78.54646
1000.45        79.31499
1000.83        77.18379
1001.21        72.83678
1001.59        68.28889
1001.97        66.36108
1002.35        67.55573
1002.73         71.0993
1003.12        75.68768
1003.50        78.87136
1003.88        79.62967
1004.26        78.74348
1004.64        76.96246
1005.02        75.53017
1005.40        74.82289
1005.78        74.17787
1006.16        73.63535
1006.54        73.35171
1006.92        73.25599
1007.30         73.6229
1007.69         73.5137
1008.07        71.28324
1008.45        67.08125
1008.83        61.94225
1009.21         57.7663
1009.59        56.52363
1009.97        58.32565
1010.35         62.8163
1010.73        68.71955
1011.11         72.7151
1011.49        73.09271
1011.86        70.26101
1012.24        66.51098
1012.62        65.52377
1013.00        68.43129
1013.38        74.86736
1013.76        82.30113
1014.14        84.16379
1014.52         78.8484
1014.90        70.05205
1015.28        62.46186
1015.66        60.13792
1016.04        63.27338
1016.41        71.18136
1016.79        82.07823
1017.17        90.96979
1017.55        94.12376
1017.93        92.07113
1018.31        86.01891
1018.69        79.80365
1019.06        75.50173
1019.44        72.55119
1019.82        70.60405
1020.20        69.19461
1020.58         67.9567
1020.95        67.24823
1021.33        66.79154
1021.71        65.99137
1022.09        64.82128
1022.46        63.27722
1022.84        62.23843
1023.22        62.70052
1023.60        64.95821
1023.97        69.35665
1024.35        74.82856
1024.73        77.48505
