SpectraSmart Spectrum 2.9.0.0
--------- Device Information -----------
Spectrum Name :  反射率_0
Saving Time :  2024/05/03 20:07:58
Spectro-Module Model Name : SE2030-DUVN
Spectro-Module Serial Number : OS361AC55029948
Wavelength Start : 200
Wavelength End : 1025
Wavelength Unit : Wavelength(nm)
Spectrum Unit : Reflectance(%)
-----------Spectrum Setting ------------
Integration Time : 20ms
Average : 10
Boxcar : 0
Background removal :  enabled
linearity correction :  enabled
SC :  disabled
Intensity correction :  disabled
DWT denoise :  enabled
savitzky-golay :  disabled
FFT :  disabled
Running average :  disabled
Kalman :  disabled
High pass :  disabled
---------------BEGIN--------------------
Wavelength(nm)             Reflectance(%)
200.29               0
200.75       -38.87872
201.21       -77.05187
201.67        2431.755
202.13        93.79763
202.58        63.79991
203.04         56.9937
203.50        57.05072
203.96        62.29505
204.42        76.10048
204.88        130.7375
205.34       -1834.603
205.80       -139.3962
206.26       -141.0753
206.72       -32458.25
207.18        118.7426
207.64        81.42258
208.10        88.92129
208.55        155.2091
209.01        827.5593
209.47        1101.603
209.93        171.1242
210.39        78.28509
210.85        54.18888
211.31         49.1059
211.77        53.41054
212.23        70.85844
212.69        119.4544
213.14        155.9024
213.60        93.02596
214.06        51.43282
214.52        36.02729
214.98        33.91505
215.44        42.48294
215.90        83.98502
216.36       -524.9996
216.81       -104.1657
217.27       -109.2685
217.73        -194.219
218.19       -706.7565
218.65       -13655.91
219.11       -907.3421
219.57        -203.696
220.02       -86.54686
220.48       -112.0181
220.94        133.5296
221.40        50.30223
221.86        39.79935
222.32        37.49793
222.77        37.94102
223.23        41.34983
223.69        47.75048
224.15         52.2107
224.61        50.50019
225.06        45.47586
225.52        42.51744
225.98        44.31092
226.44        50.59094
226.90        60.99905
227.36        72.79147
227.81        76.21254
228.27         67.3973
228.73         53.0997
229.19        39.99982
229.65        32.57261
230.10         30.0149
230.56        30.12595
231.02        31.53831
231.48        33.18051
231.93         34.6696
232.39         36.3564
232.85        37.91608
233.31        38.83733
233.77        39.08617
234.22        38.70217
234.68        38.18319
235.14        38.44075
235.60        39.76482
236.05        42.10321
236.51        44.88138
236.97        46.85806
237.43         47.5279
237.88        47.39541
238.34         47.3052
238.80        48.41716
239.26        51.47796
239.71        59.18327
240.17        70.93011
240.63        87.02268
241.08        99.20525
241.54        101.2612
242.00        97.55196
242.46        98.20462
242.91        107.0951
243.37        125.2022
243.83        156.5907
244.28        187.8604
244.74         184.017
245.20         149.898
245.66        109.2747
246.11        79.66814
246.57        62.29794
247.03        51.86929
247.48         47.0344
247.94        46.28899
248.40        48.52063
248.85         53.8092
249.31        60.97282
249.77        65.39692
250.22        65.70303
250.68        64.02875
251.14         63.1126
251.59        66.22283
252.05        74.66768
252.51         89.5416
252.96        111.8776
253.42        132.8573
253.88        139.9584
254.33        133.5088
254.79        120.1431
255.25         106.088
255.70        94.73142
256.16        87.05087
256.62        82.10121
257.07        79.23426
257.53        78.06655
257.99        77.42142
258.44        76.79768
258.90        76.38279
259.35        75.54123
259.81          74.827
260.27        73.61263
260.72        71.32198
261.18        68.69667
261.63        65.83661
262.09        63.51823
262.55        62.03592
263.00        61.17556
263.46        60.73131
263.91         60.3419
264.37        59.87463
264.83         59.1901
265.28        58.37216
265.74        57.38971
266.19        55.88922
266.65        54.03868
267.11        51.87442
267.56        49.79296
268.02        48.45916
268.47        47.88136
268.93        47.89475
269.38        47.99744
269.84        47.34993
270.30        45.83179
270.75        43.76392
271.21        41.76735
271.66        40.59834
272.12        40.38411
272.57        40.78348
273.03        41.36019
273.48        41.44429
273.94        40.86027
274.39        39.84714
274.85        38.62533
275.31        37.39725
275.76        36.25604
276.22        35.19296
276.67        34.27114
277.13        33.71097
277.58        33.42569
278.04        33.38428
278.49        33.32256
278.95         32.8905
279.40        32.02529
279.86        30.96677
280.31        29.90205
280.77        29.18944
281.22        28.79783
281.68        28.64517
282.13        28.58563
282.59        28.48528
283.04        28.27832
283.50        28.04532
283.95        27.79165
284.41        27.55378
284.86        27.33445
285.32        27.15407
285.77        27.01697
286.22        26.99849
286.68        27.11163
287.13        27.29376
287.59        27.53536
288.04        27.76826
288.50        27.98848
288.95        28.17641
289.41        28.32127
289.86        28.35555
290.32         28.3101
290.77        28.20675
291.22        28.12621
291.68        28.17014
292.13        28.37061
292.59        28.75141
293.04         29.3083
293.50        30.03292
293.95        30.89463
294.40        31.88101
294.86         33.0082
295.31        34.30697
295.77        35.78571
296.22        37.41984
296.68        39.10803
297.13        40.66766
297.58        42.02373
298.04        43.23811
298.49         44.3903
298.95         45.6854
299.40        47.15967
299.85        48.77059
300.31        50.51284
300.76        52.32587
301.21        54.19624
301.67        56.16125
302.12        58.11134
302.58        59.91225
303.03         61.4964
303.48        62.88828
303.94        64.29177
304.39        65.93031
304.84        67.89038
305.30        70.10806
305.75        72.31853
306.20        74.15314
306.66        75.55672
307.11        76.60194
307.57        77.58932
308.02        78.82983
308.47        80.43655
308.93        82.29888
309.38        84.18239
309.83        85.82967
310.29        87.16969
310.74        88.26315
311.19         89.2312
311.65        90.24617
312.10        91.31742
312.55        92.36812
313.00        93.29528
313.46        93.96869
313.91        94.35405
314.36        94.57222
314.82        94.74215
315.27        95.00715
315.72        95.43577
316.18        95.98231
316.63        96.64724
317.08        97.44852
317.53        98.35668
317.99         99.3441
318.44        100.2992
318.89        100.9721
319.35        101.3042
319.80        101.3584
320.25         101.289
320.70        101.3807
321.16        101.6924
321.61         102.162
322.06        102.6719
322.51        103.0249
322.97         103.155
323.42          103.17
323.87        103.1052
324.32        103.0264
324.78        102.9625
325.23        102.9267
325.68        102.9676
326.13        103.1891
326.59        103.5741
327.04        104.1478
327.49        104.7851
327.94        105.3076
328.39        105.6515
328.85        105.8087
329.30        105.9048
329.75        106.0179
330.20        106.1914
330.66        106.3789
331.11         106.601
331.56        106.7697
332.01        106.8841
332.46        106.9802
332.92        107.1067
333.37        107.4613
333.82        108.0328
334.27        108.7718
334.72        109.5568
335.17        110.1865
335.63        110.5602
336.08        110.7726
336.53        110.8737
336.98        111.0127
337.43        111.2438
337.88        111.5394
338.34        111.8397
338.79        112.0734
339.24        112.2271
339.69        112.3593
340.14        112.5594
340.59         112.958
341.05         113.569
341.50        114.3337
341.95        115.1596
342.40        115.9195
342.85        116.5565
343.30        117.0933
343.75        117.5047
344.20        117.7595
344.66         117.896
345.11        117.9206
345.56        117.9348
346.01        118.0903
346.46        118.4255
346.91        118.8973
347.36        119.4575
347.81        120.0192
348.26        120.5368
348.72        121.0297
349.17        121.4357
349.62        121.6885
350.07        121.7812
350.52        121.7253
350.97        121.5948
351.42        121.5242
351.87         121.534
352.32        121.5679
352.77        121.5711
353.22        121.4503
353.67        121.1876
354.13        120.8727
354.58        120.4484
355.03        119.8957
355.48        119.2522
355.93        118.5467
356.38        117.9421
356.83        117.6944
357.28        117.8236
357.73        118.2166
358.18        118.6521
358.63        118.7691
359.08        118.4599
359.53        117.8281
359.98          116.97
360.43        116.0569
360.88        115.1603
361.33        114.2217
361.78        113.3058
362.23        112.5067
362.68         111.832
363.13        111.2946
363.58        110.7432
364.03        109.9219
364.48        108.8038
364.93        107.4733
365.38        106.1816
365.83        105.3127
366.28        104.9339
366.73        104.9188
367.18        104.9912
367.63        104.7083
368.08        103.9548
368.53        102.8621
368.98        101.6741
369.43        100.7533
369.88        100.1898
370.33        99.88409
370.78        99.63456
371.23        99.12049
371.68        98.27135
372.13        97.19639
372.58        96.15049
373.03        95.50143
373.48        95.30499
373.93        95.43227
374.38        95.57084
374.83        95.22092
375.28        94.27529
375.72        92.88152
376.17        91.44405
376.62        90.40874
377.07         89.8691
377.52        89.67681
377.97        89.59222
378.42        89.24056
378.87        88.53983
379.32        87.63649
379.77        86.73678
380.22        86.10709
380.67        85.79349
381.11        85.72033
381.56        85.68548
382.01        85.43867
382.46        84.92352
382.91        84.23177
383.36        83.55147
383.81        83.14643
384.26        83.05349
384.71        83.17734
385.15        83.30997
385.60        83.15628
386.05        82.64359
386.50        81.87753
386.95        81.05874
387.40         80.4872
387.85        80.22719
388.29        80.14097
388.74        80.13866
389.19        79.91289
389.64        79.41065
390.09        78.72883
390.54        78.02901
390.98        77.50726
391.43        77.24559
391.88        77.24671
392.33        77.39581
392.78        77.11501
393.23        76.46975
393.67        76.40908
394.12        76.93086
394.57        76.02189
395.02        75.55549
395.47        75.36206
395.91        75.88182
396.36        75.98653
396.81        75.66092
397.26        75.50092
397.71        75.41718
398.15        75.16525
398.60         74.8674
399.05        74.19413
399.50        73.41491
399.95        73.76518
400.39        74.94195
400.84        74.69485
401.29         73.2198
401.74        72.91003
402.18        73.71498
402.63        73.71667
403.08        72.99207
403.53        72.32481
403.97        72.77238
404.42        72.85186
404.87        72.81579
405.32        72.73905
405.76        72.59261
406.21        72.54707
406.66        72.51066
407.11        72.06705
407.55        71.41808
408.00        71.20136
408.45        71.44088
408.90        71.85371
409.34        72.15002
409.79        71.71597
410.24        70.79257
410.68        70.41277
411.13         70.6509
411.58        70.90962
412.03        70.99866
412.47        70.90918
412.92        70.57225
413.37        70.01418
413.81        69.45499
414.26        69.29259
414.71        69.54701
415.15        70.15573
415.60        70.79975
416.05        70.99701
416.49        70.62172
416.94        69.85916
417.39        69.04217
417.83        68.64297
418.28         68.7752
418.73        69.27708
419.17        69.93725
419.62        70.34371
420.07        70.36041
420.51        70.08892
420.96        69.69443
421.41         69.2822
421.85        68.88539
422.30        68.71439
422.74        68.64053
423.19        68.24417
423.64        67.65727
424.08        67.75294
424.53        68.46731
424.98        68.92957
425.42        69.04841
425.87        69.44571
426.31        70.03107
426.76        69.94727
427.21        69.37821
427.65        69.47413
428.10        70.10028
428.54        70.21156
428.99         69.8396
429.44         69.4007
429.88        69.04922
430.33         69.2334
430.77        69.69538
431.22        69.69891
431.66         69.2523
432.11        69.00401
432.56        68.98741
433.00        69.20518
433.45        69.56885
433.89        70.03731
434.34        67.47628
434.78        70.15451
435.23        70.43595
435.67        68.38644
436.12        67.87824
436.57        67.82703
437.01        69.54534
437.46        70.20979
437.90        69.78654
438.35        68.99554
438.79         69.3288
439.24         69.1263
439.68        68.82462
440.13        68.83659
440.57        69.12701
441.02        68.95571
441.46        68.37969
441.91        68.77287
442.35        69.75516
442.80        69.21683
443.24        68.07166
443.69        68.27161
444.13        69.74168
444.58        70.22687
445.02        69.61154
445.47        69.09195
445.91        68.88335
446.36        68.83804
446.80         68.9819
447.24        69.47263
447.69        70.06484
448.13        70.10096
448.58        69.65639
449.02        69.39716
449.47        69.43345
449.91        69.46784
450.36        69.49479
450.80        69.52561
451.25        69.54233
451.69        69.53985
452.13         69.5032
452.58        69.36665
453.02          69.154
453.47        68.99019
453.91        68.88402
454.36        68.82111
454.80        68.76232
455.24        68.64063
455.69        68.46036
456.13        68.33048
456.58        68.03957
457.02        68.02116
457.46        68.33444
457.91        68.18652
458.35        67.67667
458.79        67.59618
459.24        67.89982
459.68        67.66319
460.13        66.96143
460.57        66.78215
461.01        67.29408
461.46        66.52866
461.90        66.71024
462.34         67.2826
462.79        66.40488
463.23        66.15504
463.68        66.20175
464.12        66.27513
464.56        66.35384
465.01        66.38506
465.45        66.32301
465.89        66.12452
466.34        65.85732
466.78        65.85189
467.22         66.1974
467.67        65.66948
468.11        66.11909
468.55        65.97735
468.99        65.82996
469.44        65.74524
469.88        65.75217
470.32        65.73997
470.77        65.68272
471.21        65.66267
471.65        65.65295
472.10        65.62537
472.54        65.56704
472.98        65.44051
473.42        65.23856
473.87        65.13924
474.31        65.04922
474.75        64.57893
475.20        63.90557
475.64        63.71594
476.08        64.00585
476.52        64.09713
476.97        63.93616
477.41        64.08151
477.85        64.51239
478.29        64.31754
478.74        64.25134
479.18        64.46229
479.62        64.69385
480.06         64.7529
480.50        64.47871
480.95        64.31432
481.39         64.2989
481.83        63.76198
482.27        63.77127
482.72         63.8046
483.16        63.72879
483.60        63.74693
484.04        64.02007
484.48        63.96164
484.93        63.41433
485.37        64.86669
485.81        64.80545
486.25        64.64957
486.69        66.25887
487.14        66.28381
487.58        63.43684
488.02        63.47083
488.46        64.91154
488.90         63.2276
489.34        63.83169
489.79        63.86884
490.23         64.0416
490.67        64.16167
491.11        63.97801
491.55        63.88863
491.99        63.85062
492.43        63.75489
492.88         63.6097
493.32        63.53765
493.76        63.54223
494.20        63.52398
494.64         63.4552
495.08        63.51965
495.52        63.68974
495.96        63.44464
496.41        62.95391
496.85        63.34092
497.29        64.33228
497.73        64.29402
498.17        63.32666
498.61         62.9829
499.05        63.35166
499.49        63.44676
499.93        63.24517
500.37        63.31854
500.82        63.57007
501.26        63.47128
501.70        63.08382
502.14        62.93329
502.58        63.04156
503.02        63.06321
503.46        62.99777
503.90        63.06464
504.34         63.2177
504.78        63.24901
505.22        63.13283
505.66        62.94772
506.10        62.73593
506.54        62.52957
506.98        62.65639
507.42        62.59657
507.86        62.31783
508.30        62.98985
508.74        62.39274
509.18        62.32167
509.62        62.18992
510.06        62.17262
510.50        62.27449
510.94        62.47744
511.38        62.69827
511.82        62.74168
512.26        62.57862
512.70        62.27415
513.14        61.94385
513.58        61.76895
514.02        61.79031
514.46        61.94141
514.90        62.14725
515.34        62.28358
515.78        62.31075
516.22        62.28231
516.66        62.20395
517.10         62.0811
517.54        61.93501
517.98        61.75824
518.42        61.62863
518.86        61.67533
519.30        61.91063
519.74        62.29206
520.18        62.69211
520.62        62.89815
521.06        62.85526
521.50        62.62248
521.93        62.30387
522.37        62.08654
522.81        62.01711
523.25        62.04272
523.69        62.10478
524.13         62.1084
524.57        62.03262
525.01        61.92723
525.45        61.82451
525.89        61.76708
526.32        61.76495
526.76         61.7997
527.20        61.87506
527.64        62.00824
528.08        62.18895
528.52        62.40867
528.96          62.604
529.40        62.67652
529.83        62.59834
530.27        62.40685
530.71        62.18124
531.15         62.0563
531.59        62.06308
532.03         62.1739
532.46        62.29816
532.90        62.28857
533.34        62.12721
533.78        61.88173
534.22        61.65762
534.66        61.60629
535.09        61.73949
535.53         61.9952
535.97        62.29255
536.41        62.45963
536.85        62.43682
537.28        62.43811
537.72        62.43139
538.16        61.97457
538.60        61.29065
539.04        61.26461
539.47        61.77736
539.91         61.9002
540.35        61.60751
540.79        61.51963
541.22         61.6407
541.66        61.69762
542.10        61.69214
542.54         61.6361
542.97        61.56578
543.41        61.75397
543.85         62.0898
544.29        62.09282
544.72        61.79546
545.16        61.65831
545.60         61.6839
546.04        61.69741
546.47         61.6588
546.91        61.46867
547.35        61.20949
547.79        61.23613
548.22        61.50011
548.66        61.66288
549.10        61.69043
549.53        61.81048
549.97        61.98935
550.41         62.0577
550.84        61.99073
551.28        61.87554
551.72        61.73262
552.15        61.52181
552.59        61.28445
553.03        61.24128
553.46        61.00405
553.90        61.01563
554.34        61.12881
554.77        61.25975
555.21         61.3847
555.65         61.5256
556.08        61.65222
556.52        61.73368
556.96         61.7501
557.39        61.70448
557.83          61.621
558.27        61.49126
558.70        61.33914
559.14        61.22314
559.57        61.16325
560.01        61.17125
560.45         61.2393
560.88        61.39299
561.32        61.56524
561.75         61.5709
562.19        61.47422
562.63        61.20791
563.06        60.92057
563.50        61.33448
563.93         62.1909
564.37        62.12817
564.80        61.28162
565.24         61.1302
565.68        61.60063
566.11        61.67451
566.55        61.36616
566.98          61.109
567.42        60.99211
567.85        61.26258
568.29        61.44607
568.72        61.55466
569.16        61.52742
569.60        61.60653
570.03        61.76027
570.47        61.90715
570.90        62.04342
571.34        61.75364
571.77        62.57603
572.21        62.00489
572.64        62.18325
573.08         61.9095
573.51        62.15892
573.95        61.94906
574.38        61.74671
574.82        61.15325
575.25        62.38047
575.69        62.83231
576.12        62.01277
576.56        61.57042
576.99        61.67533
577.42        62.61272
577.86        61.99931
578.29        62.40858
578.73         62.3658
579.16         62.4808
579.60        62.44262
580.03        62.41538
580.47        62.30569
580.90        62.41127
581.33        61.91004
581.77        62.17607
582.20        62.89546
582.64        62.65596
583.07         62.8237
583.51        62.27765
583.94        61.74615
584.37        61.49856
584.81        61.75127
585.24        61.88474
585.68         62.8309
586.11        62.19109
586.54        62.39097
586.98        61.82916
587.41        61.21781
587.85        62.21289
588.28        62.50806
588.71         62.0019
589.15        61.67824
589.58        62.10686
590.01        61.37957
590.45        60.93159
590.88        61.73752
591.31        61.97908
591.75        61.96078
592.18        61.87495
592.61        61.60136
593.05        61.43238
593.48        62.40768
593.91         62.4709
594.35         62.5955
594.78        62.23512
595.21        61.85984
595.65        61.63253
596.08        61.51261
596.51         62.3435
596.94        61.87696
597.38        61.87145
597.81        61.64929
598.24        61.93077
598.68        61.65771
599.11        61.02488
599.54        62.60789
599.97        61.70687
600.41         62.0623
600.84        61.77643
601.27         61.7487
601.70         61.7033
602.14        61.62358
602.57        61.67822
603.00         61.7905
603.43        61.71268
603.87        61.43796
604.30        61.53895
604.73        61.96268
605.16        61.55597
605.60        60.95447
606.03        60.87973
606.46        61.46607
606.89        61.21458
607.32        61.19561
607.76         61.0653
608.19        61.19839
608.62        61.27463
609.05        61.22177
609.48        61.20288
609.92        61.46145
610.35        60.79747
610.78        61.97373
611.21         62.6589
611.64        62.11478
612.07        61.94969
612.50        61.81129
612.94        61.64555
613.37        61.49329
613.80        61.41957
614.23        61.42934
614.66        61.45599
615.09        61.49308
615.52         61.5688
615.96         61.6566
616.39        61.68629
616.82        61.64878
617.25        61.51615
617.68         61.6714
618.11        61.24284
618.54        60.57528
618.97        60.53963
619.40        61.11328
619.84        61.37875
620.27        61.25096
620.70        61.53398
621.13        62.17596
621.56        61.43622
621.99        60.97104
622.42        60.82501
622.85        61.48578
623.28        61.23953
623.71        61.25475
624.14        61.23999
624.57        60.82007
625.00        60.43013
625.43        60.86086
625.86         60.9229
626.29        60.79246
626.72        61.33612
627.15        61.09525
627.58        61.20831
628.01        61.19675
628.44        61.09101
628.87        60.99345
629.30        60.57998
629.73        60.91998
630.16         60.9159
630.59        60.89997
631.02        60.63708
631.45        60.82081
631.88        60.85468
632.31        60.92025
632.74        61.02139
633.17        61.11072
633.60         61.1007
634.03        60.97224
634.46        60.75839
634.89        60.52131
635.32        60.36475
635.75        60.31722
636.18         60.3487
636.61        60.41809
637.04        60.46035
637.47        60.45657
637.89        60.41784
638.32        60.33629
638.75        60.27992
639.18        60.27088
639.61        60.09468
640.04        60.20168
640.47        60.11956
640.90        60.03667
641.33        60.19141
641.76        60.53449
642.18          60.754
642.61        60.78722
643.04         60.8026
643.47        60.81981
643.90        60.80466
644.33        60.76419
644.76        60.71614
645.18        60.66969
645.61        60.55743
646.04        60.38435
646.47        60.31969
646.90        60.42474
647.33        60.09389
647.75        60.46207
648.18        60.51091
648.61        60.60689
649.04          60.842
649.47        61.15159
649.89        61.41117
650.32        61.47204
650.75        61.14168
651.18          60.615
651.61          60.338
652.03        60.41531
652.46        60.92062
652.89        61.52095
653.32        61.36841
653.74        60.79446
654.17        60.26934
654.60        60.12786
655.03        61.46675
655.46        60.22646
655.88        59.65035
656.31        63.00281
656.74        67.32395
657.16        64.48007
657.59        61.39447
658.02        61.42758
658.45        62.21471
658.87        61.97726
659.30        60.99458
659.73        60.90981
660.15        60.98483
660.58        60.71978
661.01        60.64141
661.44        60.43338
661.86        60.27544
662.29        60.16059
662.72        60.29135
663.14        60.57818
663.57         60.3737
664.00        59.83941
664.42        59.81295
664.85        60.27495
665.27         60.5342
665.70        60.52132
666.13        60.45773
666.55        60.58697
666.98        60.47861
667.41        60.27099
667.83         60.1515
668.26        60.14748
668.69        60.22649
669.11        60.30957
669.54        60.26857
669.96        60.08641
670.39        59.81684
670.82        59.60188
671.24        59.62738
671.67        59.92162
672.09        60.45171
672.52        61.06648
672.94         61.1818
673.37        61.39756
673.80        60.97065
674.22        60.33384
674.65        60.03537
675.07        60.18244
675.50        60.51671
675.92        60.88351
676.35        61.07091
676.77        61.01379
677.20        60.80096
677.62        60.55228
678.05        60.41561
678.47        60.42609
678.90        60.68042
679.32        60.82275
679.75        61.01199
680.17        61.13727
680.60        61.15431
681.02        61.05973
681.45        61.22795
681.87        61.03517
682.30        60.99466
682.72         60.9328
683.15        60.84789
683.57        60.77235
684.00        60.79649
684.42        60.89429
684.85        60.94527
685.27        60.93145
685.70        60.84588
686.12        60.72208
686.54        60.80538
686.97        61.01455
687.39        60.97209
687.82        60.67862
688.24        60.50401
688.66        60.46888
689.09        60.34749
689.51        60.17881
689.94        60.18197
690.36        60.38903
690.78        60.61905
691.21        60.72349
691.63        61.28946
692.06        60.75606
692.48        60.89846
692.90        61.20355
693.33        61.29194
693.75        61.15556
694.17        60.94159
694.60         60.7326
695.02        61.03117
695.44        60.98499
695.87        61.33668
696.29        61.68745
696.71         61.6395
697.14         61.2137
697.56        60.80641
697.98        60.56705
698.41        60.43179
698.83         60.4151
699.25        60.64071
699.68         60.9792
700.10        61.20139
700.52        61.22379
700.94        61.11844
701.37        60.95435
701.79        60.86732
702.21        60.88213
702.64        60.95331
703.06        61.02983
703.48        61.04093
703.90        60.97624
704.33        60.87411
704.75        60.77644
705.17        60.72997
705.59        60.74992
706.01        60.81002
706.44        60.91299
706.86        61.07157
707.28        61.25156
707.70         61.5021
708.12         61.7564
708.55        61.76525
708.97        61.57306
709.39         61.5344
709.81        61.65189
710.23        61.64932
710.66        61.52681
711.08        61.47508
711.50        61.50338
711.92        61.55315
712.34        61.62103
712.76         61.7215
713.19        61.80389
713.61        61.83605
714.03        61.78339
714.45        61.65833
714.87        61.50562
715.29        61.39602
715.71         61.3447
716.13        61.33435
716.56        61.31908
716.98        61.28468
717.40        61.20557
717.82        61.10612
718.24        61.02001
718.66        60.99937
719.08        61.05129
719.50         61.1439
719.92        61.26093
720.34         61.3782
720.76        61.48438
721.19        61.58154
721.61         61.6411
722.03        61.61461
722.45        61.52834
722.87        61.25492
723.29        60.88668
723.71        60.98549
724.13        61.58616
724.55        61.19704
724.97        61.65523
725.39        61.61844
725.81        61.63433
726.23        61.51217
726.65        61.33722
727.07         61.2871
727.49        61.38093
727.91        61.59808
728.33        61.87704
728.75        62.09918
729.17        62.22463
729.59        62.29046
730.01        62.32637
730.43         62.3718
730.85        62.43915
731.27        62.51063
731.69         62.5576
732.10        62.55093
732.52        62.49058
732.94        62.36517
733.36        62.20237
733.78        62.13307
734.20        62.19686
734.62        62.03579
735.04        62.21776
735.46        62.18353
735.88         62.0918
736.30         61.9474
736.72        61.82124
737.13        61.76972
737.55        61.75888
737.97        61.98165
738.39        62.33091
738.81        62.15168
739.23        61.62843
739.65        61.91912
740.06        62.81377
740.48         63.0721
740.90        62.61704
741.32        62.12607
741.74        61.79148
742.16        61.62046
742.57        61.69265
742.99         62.0132
743.41        62.44931
743.83        62.70616
744.25        62.74368
744.67        62.74894
745.08        62.79165
745.50        62.82342
745.92        62.87971
746.34        62.99518
746.75        63.11021
747.17        63.11236
747.59        62.97814
748.01        62.76281
748.42        62.54262
748.84        62.36538
749.26        62.25413
749.68         62.3627
750.09        62.61404
750.51        62.49102
750.93        62.15716
751.35        62.53932
751.76        63.47434
752.18        63.80045
752.60        63.43482
753.01        62.99488
753.43        62.66029
753.85        62.49497
754.27        62.55649
754.68        62.78698
755.10        63.10018
755.52        63.35842
755.93        63.54123
756.35        63.73304
756.77         63.8238
757.18        63.81367
757.60        63.75265
758.02        63.13485
758.43         62.3035
758.85        63.15817
759.26         64.7069
759.68        65.12708
760.10        64.14577
760.51        63.57813
760.93         63.3145
761.34        63.38982
761.76        64.04285
762.18        63.75283
762.59        62.85499
763.01        62.82854
763.42        63.68593
763.84         63.9813
764.26        63.68098
764.67        63.44683
765.09         63.4136
765.50        63.68359
765.92        64.10723
766.33        63.85319
766.75        63.02773
767.16        62.82056
767.58        63.28454
768.00        63.76294
768.41        64.12994
768.83        64.42547
769.24        64.55545
769.66        64.47691
770.07        64.21837
770.49        63.78657
770.90         63.3287
771.32        63.33525
771.73        63.76412
772.15        64.01741
772.56        64.06904
772.97        64.25552
773.39        64.52296
773.80        64.67543
774.22        64.65222
774.63        64.54259
775.05         64.3644
775.46        64.20638
775.88        64.08631
776.29        64.00299
776.70        63.96445
777.12        63.99779
777.53        64.11152
777.95        64.26443
778.36        64.42816
778.77         64.5222
779.19        64.54413
779.60        64.53683
780.02        64.48437
780.43        64.45097
780.84        64.47459
781.26        64.26799
781.67        64.00861
782.09        64.53204
782.50          65.572
782.91        65.73965
783.33        65.05779
783.74        64.81147
784.15        65.03424
784.57        64.96907
784.98        64.65829
785.39        64.53466
785.81        64.62961
786.22        64.82763
786.63        65.04897
787.04          65.159
787.46        65.14204
787.87        65.02405
788.28        64.90205
788.70        64.89941
789.11         65.0236
789.52        65.24555
789.93        65.48759
790.35        65.61906
790.76        65.63425
791.17        65.55554
791.58        65.43906
792.00        65.41621
792.41        65.50648
792.82        65.51886
793.23         65.4977
793.65          65.654
794.06        65.99257
794.47        66.33977
794.88        66.53077
795.29        66.48019
795.71        66.13774
796.12        65.50012
796.53          64.799
796.94        64.60248
797.35        64.98676
797.76        65.57594
798.18        66.12063
798.59        66.49428
799.00        66.56407
799.41        66.29231
799.82        65.85159
800.23        65.59596
800.64        65.60903
801.06         65.7475
801.47        65.96889
801.88        66.09387
802.29        66.06139
802.70        65.93598
803.11        65.77329
803.52        65.64361
803.93        65.57829
804.34        65.55721
804.75        65.55571
805.17        65.54572
805.58        65.54321
805.99        65.50178
806.40        65.46484
806.81        65.58389
807.22        65.81017
807.63        65.92792
808.04         65.9106
808.45        65.87062
808.86        65.80411
809.27        65.62695
809.68        65.39405
810.09        65.25826
810.50         65.2543
810.91        65.33997
811.32        65.48195
811.73        65.62035
812.14        65.72812
812.55        65.82578
812.96        65.90017
813.37        65.92452
813.78        65.90295
814.19        65.84523
814.60        65.78985
815.01         65.8015
815.42         65.8939
815.83        66.04396
816.24        66.23588
816.65        66.42767
817.05        66.59048
817.46        66.70064
817.87        66.74702
818.28        66.66674
818.69        66.46239
819.10        66.15201
819.51        65.83144
819.92        65.68272
820.33        65.75082
820.74        65.96909
821.14         66.2345
821.55        66.40419
821.96        66.42179
822.37        66.34555
822.78         66.1788
823.19        65.92886
823.60        65.63869
824.00        65.33728
824.41        65.10384
824.82         65.1442
825.23        65.48655
825.64        66.05829
826.04        66.76321
826.45        67.33293
826.86        67.69805
827.27        67.91701
827.68         67.9511
828.08        67.77695
828.49        67.38839
828.90        66.81404
829.31        66.27268
829.72        66.12497
830.12        66.47846
830.53        67.20821
830.94        68.04616
831.35        68.45552
831.75        68.28684
832.16        67.61906
832.57        66.77985
832.97        66.27802
833.38        66.25201
833.79        66.56449
834.20        66.93608
834.60        66.92311
835.01        66.46401
835.42        65.73115
835.82        65.04609
836.23        64.87033
836.64        65.33131
837.04        66.28229
837.45        67.39557
837.86        68.21648
838.26        68.56794
838.67        68.52379
839.08        68.20412
839.48        67.79732
839.89        67.39333
840.29        66.91987
840.70        66.45022
841.11        66.03998
841.51        65.73032
841.92        65.56313
842.33         65.4912
842.73        65.40974
843.14        65.26244
843.54        65.08039
843.95        65.02107
844.35        65.38181
844.76        66.14613
845.17        67.21284
845.57        68.27467
845.98        68.66841
846.38        68.29002
846.79        67.36217
847.19        66.22564
847.60        65.43387
848.00        65.14123
848.41        65.16082
848.81        65.48424
849.22        65.98926
849.62        66.62994
850.03        67.39115
850.43        68.06666
850.84           68.18
851.24        67.68832
851.65        66.68936
852.05        65.54893
852.46         64.8963
852.86        64.86962
853.27        65.29569
853.67        65.89489
854.07        66.45771
854.48        66.85106
854.88        67.21961
855.29         67.3818
855.69        67.21658
856.10        66.62722
856.50        65.72397
856.90        64.77314
857.31        64.20359
857.71        64.14966
858.12        64.49842
858.52        65.11419
858.92        65.53822
859.33        65.60434
859.73        65.44544
860.13        65.23582
860.54        65.29166
860.94        65.70509
861.34        66.32954
861.75        66.88881
862.15        67.03878
862.55        66.65257
862.96        65.87857
863.36        64.97298
863.76        64.35252
864.17        64.14108
864.57        64.26575
864.97        64.53297
865.38        64.61205
865.78        64.44862
866.18        64.10019
866.58        63.76708
866.99        63.78421
867.39        64.22725
867.79        64.94232
868.19        65.61121
868.60        65.73983
869.00         65.2486
869.40        64.31802
869.80        63.27834
870.21        62.70598
870.61         62.8017
871.01        63.34666
871.41        64.11124
871.81        64.76392
872.22        65.17155
872.62        65.47076
873.02        65.66841
873.42        65.76233
873.82        65.77187
874.22        65.68174
874.63        65.57085
875.03        65.54855
875.43        65.64936
875.83         65.8347
876.23        66.08324
876.63        66.33495
877.03        66.56018
877.44        66.80172
877.84         66.9407
878.24        66.81661
878.64        66.41917
879.04        65.77536
879.44        65.14986
879.84        64.92704
880.24         65.1545
880.64        65.75172
881.04        66.33957
881.44        66.24457
881.84         65.3566
882.24        63.95423
882.65        62.60909
883.05        62.03836
883.45        62.41565
883.85        63.50785
884.25        64.90819
884.65        65.86577
885.05        66.10202
885.45        65.82414
885.85        65.30542
886.25        64.97038
886.65        64.94462
887.05        65.07414
887.45        65.23479
887.85        65.25142
888.25        65.06809
888.65        64.77492
889.04        64.44901
889.44        64.21389
889.84        64.09509
890.24        64.07848
890.64        64.10378
891.04        64.08001
891.44        63.99699
891.84         63.8853
892.24        63.87037
892.64        64.14001
893.04        64.72301
893.44        65.56158
893.83        66.47554
894.23        67.07819
894.63        67.28389
895.03         67.1374
895.43        66.86372
895.83        66.83633
896.23        67.13331
896.63        67.65821
897.02        68.10165
897.42        67.96754
897.82        67.19131
898.22        65.96336
898.62        64.72814
899.01        64.08426
899.41         64.1646
899.81        64.83026
900.21        65.66574
900.61        65.89328
901.00        65.31021
901.40        64.23701
901.80        63.23582
902.20        63.08555
902.59        63.94678
902.99        65.55024
903.39        67.41646
903.79        68.50903
904.18        68.44741
904.58        67.59087
904.98        66.49086
905.38        65.91267
905.77        66.01943
906.17        66.57349
906.57          67.307
906.96        67.82711
907.36        67.94022
907.76        67.79809
908.15        67.52006
908.55        67.20699
908.95        66.95126
909.34        66.70663
909.74        66.44978
910.14        66.11536
910.53        65.71671
910.93        65.33732
911.33        65.09751
911.72        65.18933
912.12        65.62265
912.52        66.28282
912.91        67.04414
913.31        67.68626
913.70        68.14634
914.10        68.43048
914.49        68.49968
914.89        68.23231
915.29        67.68162
915.68        66.90737
916.08        66.16048
916.47        65.78193
916.87        65.86948
917.26        66.27234
917.66        66.84032
918.05        67.32328
918.45        67.60098
918.84        67.79208
919.24        67.75513
919.64        67.38614
920.03        66.72223
920.42         65.8013
920.82        64.96323
921.21         64.5656
921.61        64.67226
922.00        65.24208
922.40         65.9726
922.79        66.40202
923.19        66.34734
923.58        65.95168
923.98        65.53383
924.37        65.54346
924.77        66.07986
925.16        67.01905
925.55        68.04331
925.95        68.57962
926.34        68.48102
926.74        67.87881
927.13        67.09624
927.52        66.61757
927.92        66.56451
928.31        66.80296
928.70        67.07857
929.10        66.95325
929.49        66.36833
929.89        65.51347
930.28        64.72089
930.67        64.46609
931.07        64.84703
931.46         65.6856
931.85        66.75903
932.24        67.73545
932.64         68.4374
933.03        69.00499
933.42        69.31799
933.82        69.22919
934.21        68.78986
934.60        68.02354
934.99        67.24673
935.39        66.92633
935.78        67.14438
936.17        67.77352
936.56        68.52908
936.96        68.90376
937.35        68.79524
937.74        68.35258
938.13        67.69914
938.53        67.03385
938.92        66.45383
939.31        65.95972
939.70        65.69096
940.09        65.88059
940.49        66.48045
940.88        67.39966
941.27        68.44556
941.66        69.26669
942.05        69.67799
942.44        69.77802
942.84        69.35551
943.23        68.10707
943.62        66.20582
944.01         63.9352
944.40        61.99908
944.79        61.26482
945.18        61.82793
945.57        63.48281
945.97        65.63045
946.36        67.27132
946.75        67.81385
947.14        67.49496
947.53        66.76351
947.92        66.40504
948.31        66.64169
948.70        67.17138
949.09        67.75352
949.48        68.02505
949.87        67.87045
950.26        67.49516
950.65        66.97697
951.04        66.39349
951.43        65.82545
951.82        65.24541
952.21        64.79228
952.60        64.68219
952.99        64.92484
953.38        65.45819
953.77        66.03392
954.16        66.22332
954.55        65.89367
954.94        65.13023
955.33        64.19716
955.72        63.53136
956.11        63.28831
956.50        63.43063
956.89         63.7029
957.28        63.67521
957.66        63.27107
958.05        62.57676
958.44        62.06776
958.83        62.49635
959.22        63.96296
959.61         66.1994
960.00        68.40929
960.39        69.22758
960.78        68.30094
961.16        66.05834
961.55        63.37302
961.94        61.61036
962.33        61.17455
962.72          61.709
963.11        62.73094
963.49         63.4519
963.88        63.56493
964.27        63.33613
964.66        63.03459
965.04        63.09226
965.43        63.56359
965.82        64.28189
966.21         64.9521
966.60        65.15234
966.98          64.812
967.37        64.08055
967.76        63.29892
968.15        62.98986
968.53        63.30818
968.92        64.04573
969.31         64.9753
969.69        65.69727
970.08        66.02821
970.47        66.09439
970.86         65.9623
971.24        65.73409
971.63        65.49185
972.02        65.27771
972.40        65.16955
972.79        65.26567
973.17        65.65611
973.56         66.2051
973.95        67.04465
974.33        68.40406
974.72        70.17589
975.11        72.30212
975.49        74.30338
975.88         75.0638
976.26        74.28111
976.65        72.27818
977.04         69.7138
977.42        67.45313
977.81        65.80043
978.19        64.53165
978.58        63.71098
978.96        63.22533
979.35        63.03371
979.74        63.16596
980.12         63.5105
980.51        63.72174
980.89        63.77913
981.28        63.70959
981.66        63.61656
982.05        63.65828
982.43        63.90791
982.82        64.24847
983.20        64.78082
983.59        65.69094
983.97        67.03905
984.35        68.76299
984.74        70.29233
985.12        70.91052
985.51         70.2886
985.89        68.76716
986.28        66.98567
986.66        65.56344
987.04        64.74675
987.43        64.21451
987.81        64.00623
988.20        64.06346
988.58        64.40103
988.96        65.16248
989.35        65.75196
989.73        65.32272
990.12        63.77593
990.50        61.32629
990.88        59.12421
991.27        58.89766
991.65        60.97976
992.03        65.08912
992.42         69.6636
992.80        71.61472
993.18        69.71872
993.56        65.28385
993.95        60.61782
994.33        58.09084
994.71        58.22115
995.10        60.20522
995.48        63.35193
995.86        65.64183
996.24        66.10036
996.63        65.46931
997.01         64.3744
997.39        63.60902
997.77        63.42582
998.15        63.36253
998.54        63.56868
998.92         64.4558
999.30        66.03123
999.68        68.36849
1000.06        70.53465
1000.45        70.72381
1000.83        68.79733
1001.21        65.34158
1001.59        61.93482
1001.97        60.74326
1002.35        62.13017
1002.73        65.46131
1003.12        69.65472
1003.50        72.69211
1003.88        73.68559
1004.26        73.23772
1004.64        71.89198
1005.02        70.58054
1005.40        69.62769
1005.78        68.55841
1006.16        67.55525
1006.54        66.98117
1006.92        66.86429
1007.30         67.3863
1007.69        67.76054
1008.07        66.52621
1008.45         63.6728
1008.83        60.01373
1009.21        57.00762
1009.59        56.19958
1009.97        57.70755
1010.35        61.24377
1010.73         65.8608
1011.11        69.07244
1011.49        69.57232
1011.86        67.64439
1012.24        64.99477
1012.62        64.36577
1013.00        66.56687
1013.38        71.24023
1013.76        76.48981
1014.14        77.45989
1014.52         73.1074
1014.90         66.4095
1015.28        60.60925
1015.66        58.38374
1016.04        59.81483
1016.41        64.28429
1016.79        71.04906
1017.17          78.178
1017.55        83.69431
1017.93         87.7532
1018.31        88.85394
1018.69        85.37178
1019.06        78.33698
1019.44        69.83194
1019.82        62.60601
1020.20        58.70868
1020.58        57.77972
1020.95        59.34045
1021.33        62.29197
1021.71        63.85436
1022.09        62.82991
1022.46        59.80986
1022.84        56.96723
1023.22        57.04719
1023.60        60.81322
1023.97        68.43482
1024.35        77.71063
1024.73        80.78002
