SpectraSmart Spectrum 2.9.0.0
--------- Device Information -----------
Spectrum Name :  反射率_0
Saving Time :  2024/05/03 20:16:29
Spectro-Module Model Name : SE2030-DUVN
Spectro-Module Serial Number : OS361AC55029948
Wavelength Start : 200
Wavelength End : 1025
Wavelength Unit : Wavelength(nm)
Spectrum Unit : Reflectance(%)
-----------Spectrum Setting ------------
Integration Time : 20ms
Average : 10
Boxcar : 0
Background removal :  enabled
linearity correction :  enabled
SC :  disabled
Intensity correction :  disabled
DWT denoise :  enabled
savitzky-golay :  disabled
FFT :  disabled
Running average :  disabled
Kalman :  disabled
High pass :  disabled
---------------BEGIN--------------------
Wavelength(nm)             Reflectance(%)
200.29               0
200.75        17.62201
201.21        22.39409
201.67       -175.9079
202.13        15.74872
202.58        22.38442
203.04        27.33676
203.50        30.99621
203.96        32.83781
204.42        32.71183
204.88        28.38939
205.34        234.3573
205.80        64.57211
206.26        82.74454
206.72        14834.84
207.18       -29.65932
207.64       -15.87324
208.10       -27.56625
208.55         -80.614
209.01        -596.343
209.47       -739.8696
209.93       -65.76017
210.39       -2.232019
210.85        14.80478
211.31        21.94476
211.77        26.93091
212.23        33.69691
212.69        45.94164
213.14        46.61343
213.60        22.39386
214.06        11.15662
214.52        6.655728
214.98        2.487823
215.44       -5.348647
215.90       -33.39223
216.36        319.1404
216.81        55.23317
217.27        26.85348
217.73       -13.89696
218.19       -209.2946
218.65       -5135.416
219.11       -296.5832
219.57       -22.27689
220.02        33.29674
220.48         78.9494
220.94       -36.23249
221.40        12.54309
221.86        20.91047
222.32        22.61017
222.77        21.36105
223.23        18.37727
223.69        12.77196
224.15        6.457377
224.61        4.180927
225.06        4.806492
225.52        7.010994
225.98        10.64137
226.44        16.01387
226.90        23.92042
227.36        33.59145
227.81        39.84084
228.27        39.27111
228.73        34.53127
229.19         28.5488
229.65        23.63777
230.10        20.17438
230.56         17.7101
231.02        16.41178
231.48        16.64448
231.93        18.08205
232.39        20.37036
232.85        22.84873
233.31        24.52152
233.77        25.23485
234.22        25.31515
234.68        25.16438
235.14        25.47724
235.60        26.50358
236.05        28.02459
236.51        29.97841
236.97        32.16375
237.43        34.22688
237.88        36.30849
238.34        38.12899
238.80        39.40093
239.26        40.25072
239.71        42.69631
240.17        44.18977
240.63        49.12032
241.08        56.35745
241.54         63.2768
242.00        67.44864
242.46        69.47523
242.91        70.68289
243.37        69.75608
243.83        66.70074
244.28        64.62621
244.74        67.12914
245.20        74.03541
245.66        77.96629
246.11        71.72085
246.57         58.7545
247.03        43.34225
247.48        29.95621
247.94        21.76885
248.40        18.51888
248.85        17.87385
249.31        20.26287
249.77        25.44312
250.22        31.36756
250.68        37.20797
251.14        42.07964
251.59        46.19809
252.05        50.67472
252.51        56.28326
252.96        64.25397
253.42        74.03531
253.88        81.90048
254.33        85.64046
254.79        84.92056
255.25        80.41099
255.70        74.76839
256.16         70.1739
256.62        67.25017
257.07        66.37399
257.53        67.19754
257.99        68.50594
258.44        69.11993
258.90        68.38162
259.35        66.08676
259.81        63.44701
260.27        60.80491
260.72        58.54311
261.18        57.05115
261.63        55.83869
262.09         54.9838
262.55        54.17907
263.00        53.25877
263.46        52.33019
263.91        51.34956
264.37        50.56562
264.83        49.92649
265.28         49.3442
265.74        48.67673
266.19        47.48534
266.65        45.88631
267.11        43.98783
267.56        42.13927
268.02        40.90995
268.47        40.31612
268.93         40.1916
269.38        40.17164
269.84        39.65276
270.30        38.53994
270.75        37.07103
271.21        35.63868
271.66        34.68708
272.12        34.30504
272.57        34.27402
273.03        34.38469
273.48        34.34006
273.94        34.04643
274.39        33.60222
274.85        33.04407
275.31         32.3256
275.76        31.47558
276.22        30.56491
276.67        29.71903
277.13        29.22178
277.58        29.02088
278.04        29.04906
278.49        29.05912
278.95        28.72835
279.40        27.98803
279.86        27.06065
280.31        26.10448
280.77        25.41759
281.22        24.98205
281.68        24.74639
282.13        24.59828
282.59        24.44399
283.04        24.23734
283.50        24.03422
283.95        23.86274
284.41        23.78374
284.86           23.79
285.32         23.8797
285.77        23.98361
286.22        24.06116
286.68        24.10908
287.13        24.10924
287.59        24.13306
288.04        24.23895
288.50        24.44669
288.95        24.70124
289.41        24.93633
289.86        25.00074
290.32        24.90181
290.77        24.69489
291.22        24.49282
291.68        24.44211
292.13        24.58308
292.59        24.91429
293.04        25.41215
293.50        26.03938
293.95        26.76572
294.40        27.60579
294.86        28.57835
295.31        29.71664
295.77        31.03219
296.22        32.49155
296.68        34.03904
297.13        35.56763
297.58        37.00646
298.04        38.38607
298.49         39.6863
298.95        40.95662
299.40        42.21552
299.85        43.47223
300.31        44.83298
300.76        46.41685
301.21        48.24867
301.67        50.30524
302.12        52.39968
302.58        54.26533
303.03        55.81141
303.48        57.12243
303.94        58.43135
304.39        60.01229
304.84        61.95975
305.30        64.16696
305.75        66.40749
306.20        68.37135
306.66        69.98969
307.11        71.32217
307.57         72.5327
308.02        73.73856
308.47        75.03614
308.93        76.38323
309.38        77.74251
309.83        79.15414
310.29        80.60515
310.74        82.06692
311.19        83.46841
311.65        84.67025
312.10        85.60958
312.55        86.31412
313.00        86.84467
313.46        87.32083
313.91        87.76842
314.36        88.21329
314.82        88.66054
315.27        89.08195
315.72        89.49648
316.18        89.92279
316.63        90.42116
317.08        91.09529
317.53        91.94736
317.99        92.91908
318.44         93.8839
318.89        94.57838
319.35        94.93179
319.80        95.01041
320.25        94.96377
320.70          95.061
321.16        95.35933
321.61         95.8031
322.06        96.26398
322.51        96.53214
322.97        96.54607
323.42        96.41294
323.87        96.22182
324.32        96.12189
324.78        96.15583
325.23        96.31561
325.68        96.55911
326.13        96.83498
326.59        97.09399
327.04        97.40121
327.49        97.74697
327.94         98.1487
328.39        98.59516
328.85        99.02214
329.30        99.44173
329.75        99.74749
330.20        99.92011
330.66        99.96552
331.11          99.975
331.56        99.98473
332.01        100.0384
332.46        100.1415
332.92        100.3021
333.37        100.6441
333.82        101.1411
334.27        101.7718
334.72        102.4757
335.17        103.1445
335.63         103.698
336.08        104.1935
336.53        104.5916
336.98         104.898
337.43        105.1254
337.88        105.2769
338.34         105.385
338.79        105.5291
339.24        105.7374
339.69        106.0322
340.14        106.4049
340.59        106.8274
341.05        107.2817
341.50        107.7612
341.95        108.3016
342.40        108.9752
342.85        109.7674
343.30        110.6374
343.75        111.4151
344.20        111.8377
344.66        111.8888
345.11        111.6517
345.56         111.366
346.01         111.396
346.46        111.8321
346.91         112.561
347.36        113.4299
347.81         114.188
348.26        114.7487
348.72        115.1897
349.17        115.5233
349.62        115.7976
350.07        116.0299
350.52        116.1753
350.97        116.2608
351.42        116.3519
351.87         116.449
352.32        116.5341
352.77        116.5451
353.22        116.3732
353.67        116.0151
354.13        115.5634
354.58        115.0457
355.03        114.5734
355.48        114.1942
355.93        113.8894
356.38        113.6934
356.83        113.6598
357.28        113.7611
357.73        113.9407
358.18        114.0897
358.63        114.0325
359.08        113.7203
359.53        113.2123
359.98        112.5232
360.43        111.6951
360.88        110.7689
361.33        109.7267
361.78        108.7234
362.23        107.9848
362.68        107.5398
363.13        107.3555
363.58        107.1564
364.03        106.4928
364.48        105.2995
364.93        103.7221
365.38        102.1612
365.83        101.2333
366.28        101.0571
366.73        101.4359
367.18        101.9476
367.63        101.9079
368.08        101.1379
368.53        99.84479
368.98        98.40314
369.43        97.37826
369.88        96.90774
370.33        96.82253
370.78        96.82193
371.23        96.41698
371.68        95.49543
372.13        94.24481
372.58        92.99197
373.03         92.2073
373.48         91.9828
373.93         92.1445
374.38        92.39275
374.83        92.25201
375.28        91.58511
375.72        90.51407
376.17        89.34214
376.62        88.37033
377.07        87.68326
377.52        87.18706
377.97        86.71207
378.42        86.11448
378.87        85.38885
379.32        84.43237
379.77        83.40656
380.22        83.45605
380.67        83.07179
381.11        83.39477
381.56        83.67732
382.01        83.53552
382.46        82.86887
382.91        81.84273
383.36        80.77515
383.81         80.0885
384.26        79.86995
384.71        79.97845
385.15        80.17331
385.60        80.09921
386.05        79.65659
386.50        78.97636
386.95         78.2364
387.40        77.69554
387.85        77.41853
388.29        77.27769
388.74        77.22517
389.19        77.02665
389.64        76.63731
390.09        76.13008
390.54        75.62486
390.98          75.232
391.43        75.01228
391.88        75.03706
392.33        75.18088
392.78        74.85413
393.23        74.21613
393.67        74.21863
394.12        74.73036
394.57        74.46087
395.02        73.51883
395.47        73.07924
395.91         73.1873
396.36        73.04857
396.81         72.6927
397.26        72.58973
397.71        72.60637
398.15        72.41734
398.60        72.10904
399.05        71.43352
399.50        70.67931
399.95         70.9371
400.39        71.97009
400.84          71.952
401.29        70.95634
401.74         70.6632
402.18        71.07117
402.63        71.00077
403.08         70.5504
403.53        69.98912
403.97        70.33693
404.42        70.44865
404.87        70.51113
405.32        70.40089
405.76        70.08913
406.21        69.72887
406.66        69.35561
407.11        68.95081
407.55        68.65929
408.00        68.58952
408.45        68.73241
408.90        69.20938
409.34        69.70764
409.79        69.29422
410.24        68.23754
410.68        67.79784
411.13        68.06455
411.58        68.34737
412.03         68.4584
412.47        68.41413
412.92         68.1404
413.37        67.66803
413.81        67.17793
414.26        67.00189
414.71        67.15773
415.15        67.59951
415.60        68.08021
416.05        68.24728
416.49        68.00356
416.94        67.48515
417.39        66.93517
417.83        66.69446
418.28        66.85056
418.73        67.29116
419.17        67.84821
419.62        68.18718
420.07        68.20209
420.51        67.96085
420.96        67.64194
421.41        67.37138
421.85        67.16399
422.30        67.22949
422.74        67.36689
423.19        67.00479
423.64        66.28368
424.08        66.20751
424.53        66.75866
424.98        67.07429
425.42         67.0945
425.87        67.45053
426.31        68.06461
426.76        68.10179
427.21        67.72487
427.65        68.01703
428.10        68.75941
428.54         68.8871
428.99        68.43331
429.44        67.69326
429.88        66.96168
430.33        67.20458
430.77         68.0479
431.22        68.05584
431.66        67.29181
432.11        67.04764
432.56        67.35181
433.00        67.71365
433.45        67.97196
433.89        68.37054
434.34        65.88808
434.78        68.51273
435.23        68.35798
435.67        67.07347
436.12        66.49185
436.57        66.70909
437.01        68.48683
437.46        69.20238
437.90        68.78679
438.35        68.28587
438.79        68.39433
439.24        68.17875
439.68         67.8548
440.13        67.76384
440.57        67.93175
441.02        67.89382
441.46        67.65676
441.91        68.23051
442.35          69.171
442.80        68.75375
443.24        67.35851
443.69        67.50333
444.13        68.97986
444.58        69.47314
445.02        68.88355
445.47        68.50519
445.91        68.49207
446.36        68.56806
446.80        68.74303
447.24        69.09493
447.69        69.47143
448.13        69.62503
448.58        69.52103
449.02        69.21159
449.47        68.85358
449.91        68.65827
450.36        68.69436
450.80        68.85248
451.25        69.06985
451.69        69.21417
452.13        69.25067
452.58        69.23685
453.02         69.1443
453.47        68.96315
453.91        68.69725
454.36        68.32425
454.80        67.93446
455.24        67.78677
455.69        67.89587
456.13        68.03381
456.58         68.0794
457.02        68.28416
457.46        67.69196
457.91        67.72009
458.35        67.58083
458.79        67.62718
459.24        67.63221
459.68        67.28582
460.13        66.74239
460.57        66.46226
461.01        66.53182
461.46        66.44781
461.90        66.43784
462.34        66.49168
462.79        65.86066
463.23        65.66244
463.68        65.68922
464.12        65.67606
464.56        65.59959
465.01        65.80001
465.45        66.11127
465.89        65.99173
466.34        65.52858
466.78        65.42702
467.22        65.79332
467.67        65.25892
468.11         65.5733
468.55        65.39113
468.99        65.26192
469.44        65.17968
469.88           65.17
470.32        65.16164
470.77        65.12151
471.21          65.106
471.65        65.08479
472.10        65.03016
472.54        64.96448
472.98         64.8832
473.42        64.77376
473.87        64.86834
474.31        65.00658
474.75        64.51141
475.20        63.63905
475.64        63.52197
476.08        64.07935
476.52        64.21243
476.97        63.86919
477.41        63.73619
477.85        63.85926
478.29        63.80102
478.74        63.80832
479.18         63.9373
479.62        64.23032
480.06        64.29874
480.50        64.07204
480.95        64.23289
481.39        64.07768
481.83        63.77853
482.27        63.69823
482.72        64.09953
483.16        63.90665
483.60        64.00474
484.04        64.16599
484.48        63.79953
484.93        62.99344
485.37        64.14978
485.81        65.37158
486.25         64.4129
486.69        65.97947
487.14        66.37125
487.58        63.22291
488.02        63.43158
488.46        64.66857
488.90        63.14205
489.34        63.77512
489.79        63.85451
490.23        63.83947
490.67        64.09956
491.11         64.2562
491.55        64.21146
491.99        63.94108
492.43        63.76178
492.88        63.69934
493.32        63.62636
493.76        63.55486
494.20        63.50361
494.64        63.45332
495.08        63.58747
495.52        63.82946
495.96        63.55507
496.41        62.95315
496.85        63.19693
497.29        64.08707
497.73        64.20531
498.17        63.58978
498.61        63.35265
499.05        63.56081
499.49        63.68789
499.93        63.65976
500.37        63.50674
500.82        63.26725
501.26        63.10721
501.70        63.07978
502.14        63.19724
502.58         63.3927
503.02        63.44688
503.46        63.39243
503.90        63.28531
504.34        63.17568
504.78        63.06847
505.22        62.97813
505.66        62.91047
506.10        62.86735
506.54        62.82537
506.98        62.77457
507.42        62.85014
507.86         62.7703
508.30        62.80396
508.74        62.68362
509.18        62.57675
509.62        62.47095
510.06        62.45095
510.50        62.53014
510.94        62.68221
511.38        62.84169
511.82        62.89637
512.26        62.82219
512.70        62.65595
513.14        62.46371
513.58        62.35026
514.02        62.33777
514.46        62.38432
514.90        62.45026
515.34        62.46987
515.78         62.4265
516.22        62.36082
516.66        62.26825
517.10        62.13691
517.54         61.9805
517.98         61.7976
518.42         61.6707
518.86        61.73064
519.30        61.98739
519.74        62.40174
520.18        62.82983
520.62        63.01686
521.06        62.91488
521.50         62.6344
521.93        62.29399
522.37        62.06666
522.81        62.00365
523.25        62.06694
523.69        62.18646
524.13        62.23755
524.57        62.19143
525.01         62.1051
525.45        62.01134
525.89        61.95438
526.32          61.946
526.76        61.96622
527.20        62.02333
527.64        62.14243
528.08        62.31659
528.52        62.53854
528.96        62.74155
529.40        62.82106
529.83        62.74689
530.27        62.55539
530.71        62.33313
531.15        62.22628
531.59        62.26654
532.03        62.42369
532.46        62.58738
532.90        62.57921
533.34        62.37782
533.78        62.06176
534.22        61.76901
534.66        61.69972
535.09        61.87325
535.53        62.21201
535.97         62.6013
536.41        62.81261
536.85        62.77412
537.28        62.72037
537.72        62.64649
538.16        62.16111
538.60        61.49886
539.04        61.50494
539.47        62.04998
539.91         62.2309
540.35        61.99197
540.79        61.86867
541.22        61.87338
541.66        61.83195
542.10        61.75829
542.54        61.60637
542.97        61.44423
543.41        61.61795
543.85        62.02753
544.29        62.17627
544.72        62.03729
545.16        62.00359
545.60        62.06198
546.04        61.98502
546.47        61.80542
546.91        61.69451
547.35        61.67381
547.79         61.7325
548.22        61.82627
548.66        61.86686
549.10        61.85403
549.53         61.9609
549.97        62.14489
550.41        62.20225
550.84        62.10829
551.28        61.99147
551.72        61.87457
552.15        61.70419
552.59        61.52089
553.03        61.48698
553.46        61.31462
553.90        61.33343
554.34        61.42672
554.77        61.51131
555.21        61.58572
555.65        61.70779
556.08        61.85817
556.52        61.99941
556.96        62.08475
557.39        62.09533
557.83        62.05328
558.27         61.8982
558.70        61.68919
559.14        61.68891
559.57        61.84651
560.01        61.82056
560.45        61.66358
560.88        61.74369
561.32        62.01031
561.75        62.16859
562.19        62.21094
562.63        61.88667
563.06         61.3889
563.50        61.74992
563.93        62.71017
564.37        62.65524
564.80         61.7235
565.24        61.54889
565.68        62.06304
566.11         62.1856
566.55         61.9254
566.98        61.72318
567.42        61.65442
567.85        61.95935
568.29        62.13768
568.72        62.19239
569.16        62.09481
569.60        62.09067
570.03         62.1394
570.47        62.44452
570.90        62.52374
571.34        62.19653
571.77        63.00996
572.21        62.57125
572.64        62.57919
573.08        62.50483
573.51        62.75784
573.95        62.61623
574.38        62.44144
574.82        61.75905
575.25        63.28804
575.69        63.55875
576.12        62.95692
576.56        62.23758
576.99         62.3369
577.42        63.24593
577.86        63.05985
578.29        63.17469
578.73        63.02274
579.16        63.00624
579.60         63.0041
580.03        62.99817
580.47        62.93033
580.90         62.6956
581.33        62.45261
581.77        62.60373
582.20        64.18337
582.64        63.52457
583.07        63.69098
583.51        62.97969
583.94         62.5521
584.37        62.32017
584.81        62.46875
585.24        62.50251
585.68        63.39037
586.11        62.48621
586.54        63.29573
586.98        62.18519
587.41        61.75783
587.85        63.00035
588.28        62.82507
588.71         62.5593
589.15        62.42415
589.58        62.44314
590.01        61.91467
590.45        61.73186
590.88        62.28363
591.31         62.6015
591.75        62.70058
592.18        62.46785
592.61        62.16658
593.05        61.82071
593.48        63.18859
593.91        62.98883
594.35        63.07392
594.78        62.58777
595.21        62.45331
595.65        62.36853
596.08        62.29475
596.51        62.98296
596.94        62.46444
597.38        62.34965
597.81        62.01934
598.24         62.7021
598.68        62.35054
599.11        61.65344
599.54        63.36765
599.97        62.46554
600.41        62.64288
600.84        62.43059
601.27        62.66667
601.70        62.43251
602.14        62.40628
602.57        62.44123
603.00        62.65701
603.43        62.61797
603.87        62.37184
604.30        62.61326
604.73        62.45252
605.16        62.70169
605.60        61.57804
606.03        61.74491
606.46        62.63214
606.89        61.96644
607.32        62.40937
607.76        61.62145
608.19        62.18584
608.62        62.25556
609.05        62.23169
609.48        62.06441
609.92         62.0835
610.35        61.25036
610.78        62.89498
611.21        63.45763
611.64        62.64493
612.07        62.46234
612.50        62.62922
612.94         62.5241
613.37        62.12854
613.80        62.28762
614.23        62.11133
614.66        62.07329
615.09        62.18832
615.52        62.21571
615.96        62.18438
616.39          62.313
616.82        62.67234
617.25        61.97448
617.68        62.68851
618.11        62.24032
618.54        61.56531
618.97        61.41781
619.40        61.86766
619.84        61.85234
620.27        62.20321
620.70        62.38105
621.13        62.58577
621.56        62.28133
621.99        61.59809
622.42        61.57685
622.85        62.19945
623.28        61.85062
623.71        61.38703
624.14         61.7414
624.57        61.28792
625.00        61.33904
625.43        61.56193
625.86        61.71206
626.29        61.73751
626.72        62.17305
627.15        62.09677
627.58        62.00678
628.01        61.91942
628.44        61.98133
628.87         61.3231
629.30        61.34006
629.73        61.66131
630.16        61.74613
630.59        61.55272
631.02        61.41336
631.45         61.3867
631.88        61.38976
632.31        61.43078
632.74        61.52054
633.17        61.61043
633.60        61.62486
634.03        61.54675
634.46        61.39697
634.89        61.21796
635.32        61.08221
635.75        61.01144
636.18        60.98376
636.61         60.9804
637.04        60.97484
637.47        60.96187
637.89        60.94253
638.32         60.8945
638.75         60.8772
639.18        60.90548
639.61        60.71891
640.04        60.78421
640.47        60.74598
640.90        60.74941
641.33        60.80096
641.76        60.88451
642.18        60.95565
642.61        60.97913
643.04        60.97829
643.47        60.97731
643.90        61.01242
644.33        61.08432
644.76        61.18706
645.18        61.28666
645.61         61.2457
646.04        61.05242
646.47        60.89965
646.90        60.89129
647.33        60.47795
647.75        60.82804
648.18        60.93261
648.61        61.13161
649.04        61.41387
649.47        61.72066
649.89        62.04834
650.32        62.24738
650.75        61.99783
651.18        61.46043
651.61        61.19907
652.03        61.27629
652.46        61.49371
652.89        61.68555
653.32        61.48347
653.74        61.19273
654.17        60.98576
654.60        61.23811
655.03        61.97156
655.46        61.29564
655.88         60.4548
656.31        64.11373
656.74        69.24181
657.16        65.93806
657.59         62.4276
658.02        62.22835
658.45        62.95194
658.87        63.06799
659.30        61.38966
659.73        61.49401
660.15        61.52301
660.58        61.37817
661.01        61.31732
661.44        60.99404
661.86        60.73313
662.29        60.54394
662.72         60.7487
663.14        61.25896
663.57        60.98611
664.00         60.6063
664.42        60.60357
664.85         61.1134
665.27        61.33022
665.70        61.19732
666.13        61.15355
666.55        61.19341
666.98        61.07571
667.41        60.85789
667.83        60.72826
668.26        60.71054
668.69        60.78414
669.11        60.87104
669.54        60.82799
669.96        60.63435
670.39        60.35835
670.82        60.15186
671.24        60.17051
671.67        60.46196
672.09         61.1004
672.52        61.88112
672.94        62.00597
673.37        62.08967
673.80        61.54337
674.22        60.84459
674.65        60.53048
675.07        60.70634
675.50        61.07854
675.92        61.47627
676.35        61.70102
676.77        61.68171
677.20         61.4713
677.62        61.18715
678.05        61.03428
678.47        61.06061
678.90        61.18977
679.32        61.36047
679.75        61.53592
680.17        61.69283
680.60        61.77565
681.02         61.7538
681.45        61.95923
681.87        61.75051
682.30         61.6482
682.72        61.51457
683.15        61.44957
683.57        61.47837
684.00        61.57996
684.42        61.71024
684.85        61.79391
685.27        61.80418
685.70        61.70678
686.12        61.53279
686.54        61.53437
686.97        61.64262
687.39         61.5024
687.82        61.14323
688.24        60.95798
688.66        60.97522
689.09        60.97144
689.51        60.94349
689.94        61.04478
690.36        61.29245
690.78        61.48892
691.21        61.51816
691.63        62.11871
692.06        61.68442
692.48        61.80501
692.90        61.99251
693.33        62.08515
693.75        62.08375
694.17        62.01606
694.60        61.92238
695.02        62.28654
695.44         62.2209
695.87        62.51606
696.29        62.79588
696.71        62.64376
697.14         62.1289
697.56        61.78688
697.98        61.71148
698.41        61.62734
698.83         61.5322
699.25        61.65931
699.68        61.90774
700.10        62.05476
700.52        62.03257
700.94        61.90882
701.37         61.7511
701.79        61.69305
702.21        61.75429
702.64        61.89076
703.06        62.03188
703.48         62.0767
703.90        62.00774
704.33        61.86449
704.75        61.71712
705.17        61.66283
705.59        61.72834
706.01        61.87272
706.44        62.05666
706.86         62.2407
707.28        62.38194
707.70        62.50233
708.12        62.58894
708.55        62.59342
708.97        62.51953
709.39        62.42183
709.81        62.33305
710.23         62.2863
710.66         62.3001
711.08        62.39159
711.50        62.51886
711.92        62.62119
712.34         62.6808
712.76        62.71047
713.19        62.70319
713.61        62.70558
714.03        62.70129
714.45        62.67751
714.87        62.63678
715.29        62.58546
715.71         62.5217
716.13        62.44805
716.56        62.34322
716.98        62.23426
717.40        62.11276
717.82        61.99631
718.24        61.90266
718.66        61.85877
719.08        61.86711
719.50        61.90395
719.92        61.98246
720.34        62.12301
720.76        62.31916
721.19        62.55622
721.61        62.75531
722.03         62.7864
722.45        62.65857
722.87        62.26772
723.29        61.76264
723.71        61.80191
724.13        62.44426
724.55        62.14925
724.97        62.74223
725.39        62.79638
725.81        62.84694
726.23        62.71624
726.65        62.50544
727.07        62.42614
727.49        62.50103
727.91        62.67733
728.33        62.90065
728.75        63.08477
729.17        63.19582
729.59        63.26714
730.01        63.30924
730.43        63.33206
730.85        63.34462
731.27         63.3353
731.69         63.3177
732.10        63.33041
732.52        63.38216
732.94        63.43357
733.36        63.44382
733.78        63.44702
734.20        63.46444
734.62        63.11469
735.04        63.14665
735.46        63.04417
735.88        62.87671
736.30        62.88642
736.72        63.03944
737.13        63.15759
737.55        63.15569
737.97        63.40895
738.39        63.80431
738.81        63.45993
739.23        62.64803
739.65        62.93827
740.06        64.06987
740.48        64.37673
740.90        63.76442
741.32        63.15519
741.74        62.78598
742.16        62.62158
742.57        62.74981
742.99         63.1765
743.41        63.74276
743.83        64.10674
744.25        64.21381
744.67        64.27478
745.08        64.33356
745.50        64.28751
745.92        64.17514
746.34        64.05687
746.75        63.93466
747.17        63.79543
747.59        63.64429
748.01        63.49245
748.42        63.36436
748.84        63.29748
749.26        63.26117
749.68        63.24076
750.09        63.25314
750.51        63.15838
750.93        63.09915
751.35        63.66363
751.76        64.64366
752.18        65.01572
752.60        64.68006
753.01        64.15972
753.43         63.6728
753.85         63.4007
754.27        63.42303
754.68        63.64822
755.10        63.97155
755.52        64.22697
755.93        64.39185
756.35        64.56506
756.77        64.62717
757.18        64.64884
757.60        64.71345
758.02        64.08183
758.43        63.08189
758.85        64.44807
759.26        66.28397
759.68        66.47562
760.10        65.39135
760.51        64.89105
760.93        64.80888
761.34        64.85449
761.76        64.97222
762.18        64.53706
762.59          63.793
763.01        63.82878
763.42        64.60055
763.84        64.80508
764.26        64.40818
764.67        64.02161
765.09        63.84632
765.50        64.05093
765.92        64.52393
766.33        64.52603
766.75        64.06606
767.16        64.04315
767.58        64.46529
768.00        64.78835
768.41        64.96766
768.83        65.25073
769.24        65.52174
769.66        65.38631
770.07        64.91615
770.49        64.51025
770.90        64.27898
771.32        64.34022
771.73        64.63914
772.15        64.84628
772.56        64.94851
772.97        65.08524
773.39        65.24333
773.80        65.49593
774.22        65.73594
774.63        65.71835
775.05        65.45223
775.46        65.27561
775.88        65.20542
776.29        65.08667
776.70         64.9257
777.12        64.82176
777.53        64.80493
777.95        64.84189
778.36        64.91525
778.77        64.95537
779.19        64.95661
779.60        64.94898
780.02        64.96697
780.43        65.08604
780.84        65.32153
781.26        65.56561
781.67        65.83156
782.09        66.17794
782.50        66.52882
782.91         66.6703
783.33        66.57298
783.74        66.45933
784.15        66.31925
784.57        66.04012
784.98        65.72561
785.39        65.59962
785.81        65.70212
786.22         65.9826
786.63        66.30403
787.04        66.43647
787.46        66.34796
787.87        66.07652
788.28        65.79539
788.70        65.75387
789.11        65.97663
789.52        66.39333
789.93        66.83226
790.35        67.00057
790.76        66.85718
791.17        66.50295
791.58        66.09586
792.00        65.87479
792.41        65.93831
792.82         66.1585
793.23        66.43653
793.65        66.82405
794.06        67.27985
794.47        67.35182
794.88        66.92624
795.29        67.54203
795.71        66.63903
796.12        66.24884
796.53        65.76019
796.94        65.46878
797.35        65.47866
797.76        65.94689
798.18        66.67062
798.59        67.08263
799.00        67.04677
799.41        66.77611
799.82        66.46124
800.23        66.36201
800.64        66.55053
801.06        66.90052
801.47         67.3149
801.88        67.51743
802.29        67.42198
802.70        67.11558
803.11        66.71345
803.52        66.38968
803.93        66.21831
804.34        66.16586
804.75        66.19063
805.17        66.24767
805.58        66.34064
805.99        66.36976
806.40        66.39867
806.81         66.7338
807.22        67.25633
807.63        67.46118
808.04        67.32066
808.45        67.19975
808.86          67.116
809.27        66.82489
809.68        66.42586
810.09        66.23278
810.50        66.30181
810.91        66.54907
811.32        66.87144
811.73        67.08643
812.14        67.13494
812.55        67.07844
812.96        66.95932
813.37        66.85242
813.78        66.79483
814.19        66.75471
814.60        66.75406
815.01        66.83224
815.42        66.99181
815.83        67.23805
816.24        67.50501
816.65        67.65343
817.05        67.64321
817.46        67.47126
817.87        67.26774
818.28        67.18819
818.69        67.26904
819.10        67.46862
819.51        67.69789
819.92        67.79609
820.33        67.71039
820.74        67.48527
821.14        67.21358
821.55        67.05035
821.96        67.02848
822.37        67.13222
822.78         67.2676
823.19        67.26759
823.60        67.10067
824.00         66.8306
824.41        66.60352
824.82        66.73389
825.23        67.26774
825.64        68.08932
826.04        68.96693
826.45        69.41577
826.86        69.33538
827.27        68.86929
827.68        68.20048
828.08         67.6637
828.49        67.34761
828.90        67.18165
829.31        67.18842
829.72        67.39843
830.12        67.81104
830.53        68.38155
830.94        68.95246
831.35        69.18453
831.75        69.00422
832.16        68.43382
832.57        67.72424
832.97        67.27239
833.38        67.18939
833.79        67.37454
834.20        67.64845
834.60        67.71353
835.01        67.51896
835.42        67.17445
835.82        66.84412
836.23        66.73681
836.64        66.92819
837.04        67.35945
837.45        67.86378
837.86        68.28049
838.26          68.538
838.67        68.62539
839.08        68.59138
839.48        68.49684
839.89        68.36481
840.29        68.15837
840.70        67.88873
841.11        67.51312
841.51        67.06662
841.92        66.60285
842.33         66.1881
842.73        65.93126
843.14        65.83284
843.54        65.87182
843.95        66.09056
844.35         66.5916
844.76        67.30909
845.17        68.20738
845.57        69.05652
845.98        69.33137
846.38        68.97165
846.79        68.13383
847.19        67.12798
847.60        66.46966
848.00        66.28802
848.41        66.41675
848.81        66.78908
849.22        67.18009
849.62        67.53283
850.03        67.85512
850.43        68.07156
850.84        67.93044
851.24        67.45522
851.65        66.70152
852.05        65.89452
852.46        65.41586
852.86        65.34048
853.27        65.56953
853.67        65.96243
854.07        66.50206
854.48        67.08957
854.88        67.81593
855.29        68.37086
855.69        68.37915
856.10        67.65905
856.50        66.40528
856.90        65.05556
857.31        64.29705
857.71        64.31951
858.12        64.92325
858.52        65.85587
858.92         66.4383
859.33         66.4336
859.73        66.07684
860.13        65.58866
860.54        65.35184
860.94        65.50575
861.34        65.86694
861.75        66.28027
862.15        66.60923
862.55        66.73286
862.96        66.72189
863.36        66.56567
863.76        66.24385
864.17         65.7851
864.57         65.2539
864.97        64.70924
865.38        64.23097
865.78        63.89879
866.18        63.67168
866.58        63.64389
866.99        63.95517
867.39        64.59737
867.79        65.46752
868.19        66.28201
868.60        66.59557
869.00        66.33066
869.40        65.62299
869.80         64.7211
870.21         64.0894
870.61        63.91892
871.01        64.05054
871.41        64.37965
871.81         64.7419
872.22        65.04648
872.62         65.4017
873.02        65.74358
873.42        65.92563
873.82        65.92233
874.22         65.7626
874.63        65.59835
875.03        65.65157
875.43        65.97093
875.83        66.45908
876.23        67.01962
876.63        67.47056
877.03        67.74754
877.44        67.94858
877.84        67.97883
878.24        67.71944
878.64        67.18842
879.04        66.38743
879.44        65.65417
879.84        65.48374
880.24        65.91984
880.64        66.85168
881.04        67.73586
881.44        67.60017
881.84        66.28622
882.24        64.20578
882.65         62.1494
883.05        61.13393
883.45        61.40776
883.85        62.65742
884.25        64.40109
884.65        65.74133
885.05        66.31091
885.45        66.32751
885.85        66.04965
886.25        65.88754
886.65        65.96609
887.05        66.12701
887.45        66.21488
887.85        66.02577
888.25         65.5257
888.65        64.83556
889.04        64.16605
889.44        63.82918
889.84        63.88337
890.24        64.27207
890.64        64.76249
891.04        64.97283
891.44        64.81358
891.84         64.3764
892.24        63.97511
892.64         64.0997
893.04        64.84316
893.44        66.06467
893.83        67.36068
894.23         67.9723
894.63        67.73729
895.03        66.83502
895.43        65.78786
895.83        65.42207
896.23        65.92228
896.63        67.05761
897.02        68.24924
897.42        68.55954
897.82        67.80968
898.22        66.32941
898.62        64.79062
899.01        64.12455
899.41        64.53329
899.81        65.76167
900.21        67.20978
900.61        67.75911
901.00        67.09974
901.40        65.68856
901.80        64.26073
902.20        63.81313
902.59        64.55827
902.99        66.15471
903.39        68.07928
903.79        69.21657
904.18        69.14767
904.58        68.27048
904.98        67.13245
905.38         66.4796
905.77        66.47836
906.17        66.89136
906.57        67.47811
906.96        67.90198
907.36        67.98739
907.76         67.8745
908.15        67.66822
908.55        67.43833
908.95        67.26244
909.34        67.09901
909.74        66.91525
910.14        66.63703
910.53           66.27
910.93        65.88354
911.33        65.61291
911.72        65.67545
912.12        66.09252
912.52        66.76702
912.91        67.52593
913.31        68.07048
913.70         68.3325
914.10        68.33007
914.49        68.16196
914.89         67.9384
915.29        67.74179
915.68        67.54697
916.08        67.36419
916.47        67.15617
916.87         66.9521
917.26        66.73598
917.66        66.59537
918.05        66.63644
918.45        66.83287
918.84        67.20128
919.24         67.4864
919.64        67.36115
920.03        66.77917
920.42        65.86494
920.82        65.00063
921.21         64.5968
921.61        64.73919
922.00        65.34332
922.40        66.13239
922.79        66.70667
923.19        66.86725
923.58         66.7184
923.98        66.48807
924.37        66.49098
924.77        66.80251
925.16        67.34622
925.55        67.86753
925.95        67.92459
926.34        67.45986
926.74        66.61086
927.13        65.72832
927.52        65.31907
927.92        65.49072
928.31        66.08664
928.70         66.8107
929.10        67.14804
929.49        66.98508
929.89        66.49698
930.28        65.95325
930.67        65.74973
931.07        65.98006
931.46        66.49369
931.85        67.16967
932.24        67.84644
932.64        68.40605
933.03        68.96893
933.42        69.36592
933.82        69.34428
934.21        68.92215
934.60        68.15672
934.99        67.39378
935.39         67.1463
935.78        67.49542
936.17        68.26793
936.56        69.14211
936.96        69.56047
937.35        69.40002
937.74        68.83432
938.13        67.97676
938.53        67.01009
938.92        66.05862
939.31        65.15245
939.70        64.51763
940.09        64.51066
940.49        65.10799
940.88        66.19115
941.27          67.497
941.66        68.53028
942.05        69.05988
942.44         69.2312
942.84        68.86558
943.23        67.72086
943.62        65.98161
944.01        63.87197
944.40         62.1247
944.79        61.67455
945.18        62.61854
945.57        64.74771
945.97        67.33256
946.36        69.09761
946.75          69.367
947.14        68.46874
947.53        67.05662
947.92        66.23544
948.31        66.31201
948.70        66.89365
949.09        67.64638
949.48         68.0391
949.87        67.88094
950.26        67.43102
950.65        66.75283
951.04        65.88986
951.43        64.95988
951.82        63.98365
952.21        63.17531
952.60         62.8716
952.99        63.11247
953.38        63.78076
953.77        64.67207
954.16        65.41382
954.55        65.83218
954.94        65.97716
955.33        65.84364
955.72        65.45049
956.11        64.86964
956.50        64.15649
956.89        63.43024
957.28        62.89043
957.66         62.6343
958.05        62.61771
958.44        62.93051
958.83        63.68249
959.22        64.80993
959.61        66.20523
960.00        67.51688
960.39        68.14323
960.78        67.91609
961.16        67.01822
961.55         65.7304
961.94        64.50869
962.33        63.56186
962.72        62.81467
963.11        62.39171
963.49        62.48819
963.88        63.05285
964.27        64.05906
964.66         65.2118
965.04        66.00617
965.43        66.22601
965.82        65.98563
966.21        65.47874
966.60        65.07691
966.98        64.93009
967.37         64.9345
967.76        65.01955
968.15        65.04807
968.53        65.00332
968.92        64.91286
969.31        64.90385
969.69        65.14952
970.08        65.62556
970.47        66.23705
970.86        66.78922
971.24        66.98774
971.63        66.77139
972.02        66.30762
972.40        65.73894
972.79        65.26973
973.17        65.08649
973.56        65.06004
973.95        65.38592
974.33        66.37997
974.72        67.96344
975.11        70.08052
975.49        72.30038
975.88        73.55248
976.26        73.45878
976.65        72.23315
977.04        70.33175
977.42        68.37964
977.81        66.66257
978.19        65.05078
978.58        63.71363
978.96        62.71756
979.35         62.0909
979.74         61.8008
980.12        61.82513
980.51        61.95698
980.89        62.18797
981.28        62.55887
981.66        62.90526
982.05        62.90543
982.43        62.54758
982.82        61.85615
983.20        61.36591
983.59        61.93603
983.97        63.77677
984.35        66.66617
984.74        69.63706
985.12        71.11023
985.51        70.44192
985.89           68.26
986.28        65.62762
986.66        63.73959
987.04        63.00486
987.43        62.95354
987.81        63.49335
988.20        64.31133
988.58        65.25418
988.96         66.4763
989.35         67.4389
989.73        67.38767
990.12        66.20837
990.50         64.0474
990.88        61.83906
991.27        60.99524
991.65        61.80497
992.03        64.06056
992.42        66.59618
992.80        67.28635
993.18        65.32436
993.56        61.72529
993.95        58.23698
994.33        56.55109
994.71        57.04203
995.10        59.09416
995.48        62.10128
995.86        64.23785
996.24         64.6416
996.63        63.96452
997.01        62.85111
997.39        62.15215
997.77        62.14111
998.15        62.38833
998.54        63.04179
998.92         64.4714
999.30        66.61865
999.68         69.4724
1000.06          72.036
1000.45        72.41577
1000.83         70.4166
1001.21        66.67168
1001.59        62.65208
1001.97        60.33195
1002.35        60.10183
1002.73        61.42622
1003.12        63.65776
1003.50        65.61647
1003.88        66.72282
1004.26        67.36935
1004.64        67.64352
1005.02        67.72081
1005.40        67.64998
1005.78         67.0688
1006.16        66.29741
1006.54        65.98698
1006.92        66.23979
1007.30        67.09478
1007.69        67.54311
1008.07         65.8159
1008.45        61.95343
1008.83        57.06215
1009.21        52.94699
1009.59        51.42381
1009.97        52.59818
1010.35        56.10426
1010.73        60.85353
1011.11        64.05319
1011.49        64.30021
1011.86        61.99731
1012.24        59.05926
1012.62        58.53553
1013.00        61.35277
1013.38        67.11064
1013.76        73.78217
1014.14        75.97815
1014.52        72.22057
1014.90        65.54427
1015.28        59.45869
1015.66        56.92878
1016.04         58.0542
1016.41        62.10368
1016.79        68.13672
1017.17         73.8765
1017.55        77.34449
1017.93        78.99365
1018.31          77.991
1018.69        73.76847
1019.06        67.53218
1019.44        60.69817
1019.82        55.41303
1020.20        53.38073
1020.58        54.28361
1020.95        57.84632
1021.33         62.7844
1021.71        65.51907
1022.09        64.40834
1022.46        60.19068
1022.84        55.67814
1023.22        54.44185
1023.60         57.4204
1023.97         64.6738
1024.35        73.92056
1024.73        76.91066
