SpectraSmart Spectrum 2.9.0.0
--------- Device Information -----------
Spectrum Name :  反射率_0
Saving Time :  2024/05/03 19:57:42
Spectro-Module Model Name : SE2030-DUVN
Spectro-Module Serial Number : OS361AC55029948
Wavelength Start : 200
Wavelength End : 1025
Wavelength Unit : Wavelength(nm)
Spectrum Unit : Reflectance(%)
-----------Spectrum Setting ------------
Integration Time : 20ms
Average : 10
Boxcar : 0
Background removal :  enabled
linearity correction :  enabled
SC :  disabled
Intensity correction :  disabled
DWT denoise :  enabled
savitzky-golay :  disabled
FFT :  disabled
Running average :  disabled
Kalman :  disabled
High pass :  disabled
---------------BEGIN--------------------
Wavelength(nm)             Reflectance(%)
200.29               0
200.75       -79.53152
201.21       -121.6089
201.67        2957.366
202.13        105.8603
202.58        80.87065
203.04        85.53448
203.50        96.29546
203.96        107.2336
204.42        121.7572
204.88        171.0653
205.34       -1620.635
205.80       -93.73828
206.26       -139.0545
206.72       -54541.18
207.18        278.7841
207.64        216.6951
208.10        233.0857
208.55         357.901
209.01        1519.656
209.47        1582.368
209.93         212.043
210.39        92.18176
210.85          63.386
211.31        55.81982
211.77        56.64908
212.23        67.69073
212.69        103.5469
213.14        141.1935
213.60        102.7305
214.06        72.40507
214.52        60.42734
214.98        59.18798
215.44        67.71329
215.90        108.5783
216.36       -489.9047
216.81        -76.7704
217.27       -82.35452
217.73       -167.0405
218.19       -700.8215
218.65        -15626.4
219.11       -1236.397
219.57       -361.3014
220.02        -226.034
220.48       -381.7906
220.94        410.8667
221.40         118.359
221.86         74.3402
222.32        61.04902
222.77        56.84015
223.23        57.49109
223.69        61.19168
224.15        61.11955
224.61        54.91652
225.06        48.04092
225.52        44.50904
225.98        45.27642
226.44        49.73188
226.90        57.27547
227.36         66.6198
227.81        72.01086
228.27        69.88874
228.73        63.72288
229.19        56.27618
229.65        49.46582
230.10        43.75214
230.56        39.02146
231.02        35.92612
231.48        35.40208
231.93         36.9529
232.39        40.00183
232.85        43.12201
233.31         44.3133
233.77        43.28596
234.22        40.60803
234.68        37.66277
235.14        36.82129
235.60        38.82363
236.05        43.23281
236.51        48.65025
236.97        52.06831
237.43        52.27195
237.88        50.28231
238.34        47.86003
238.80        47.14362
239.26        48.92079
239.71        55.53345
240.17        65.33845
240.63        76.79859
241.08         81.2297
241.54         75.6982
242.00        67.47417
242.46        66.10662
242.91        74.43328
243.37        94.45486
243.83        131.8897
244.28        174.2971
244.74        182.2266
245.20        154.0447
245.66        113.6084
246.11        83.28481
246.57        65.61753
247.03        54.12897
247.48         47.2787
247.94        43.19035
248.40        40.75744
248.85        40.41247
249.31        41.90804
249.77        43.45795
250.22        44.41225
250.68        45.05743
251.14          46.527
251.59        50.89845
252.05         59.4193
252.51        73.49094
252.96        93.78294
253.42        111.7299
253.88        116.2485
254.33        108.5932
254.79        95.82238
255.25         84.0788
255.70        75.43683
256.16          69.769
256.62        66.26453
257.07        64.40632
257.53        63.82314
257.99        63.61829
258.44        63.00797
258.90        61.74385
259.35         59.5796
259.81        57.37105
260.27         55.1396
260.72         52.9727
261.18        51.25426
261.63        49.67086
262.09        48.47145
262.55        47.55937
263.00        46.76608
263.46        46.10704
263.91        45.36641
264.37        44.52405
264.83         43.5411
265.28        42.45904
265.74        41.37093
266.19        40.17905
266.65        38.98431
267.11        37.74313
267.56        36.56075
268.02        35.65597
268.47        34.99609
268.93        34.54591
269.38         34.0987
269.84        33.31916
270.30        32.20354
270.75        30.89279
271.21        29.71991
271.66        29.06772
272.12        28.97748
272.57        29.24361
273.03        29.59294
273.48        29.61699
273.94        29.20408
274.39        28.50379
274.85        27.61717
275.31        26.60648
275.76        25.55672
276.22        24.52555
276.67        23.65979
277.13        23.24311
277.58         23.2212
278.04         23.5069
278.49        23.83577
278.95        23.82902
279.40         23.3834
279.86        22.71153
280.31        21.94234
280.77        21.33451
281.22        20.88618
281.68        20.54274
282.13        20.27647
282.59        20.11112
283.04        20.01816
283.50        20.01771
283.95        20.02239
284.41        19.91011
284.86        19.66365
285.32        19.35056
285.77        19.06046
286.22        18.98358
286.68        19.15223
287.13        19.46523
287.59        19.84494
288.04        20.14744
288.50        20.34572
288.95        20.45686
289.41        20.50579
289.86        20.48783
290.32         20.4439
290.77        20.37797
291.22         20.3383
291.68        20.38685
292.13        20.54731
292.59        20.84849
293.04        21.30631
293.50        21.94065
293.95        22.73499
294.40        23.67955
294.86        24.75709
295.31        25.95562
295.77        27.27884
296.22        28.71614
296.68        30.24333
297.13        31.79984
297.58        33.33193
298.04        34.85628
298.49         36.3395
298.95        37.80772
299.40        39.27561
299.85        40.75721
300.31         42.3652
300.76        44.22896
301.21        46.37118
301.67        48.76085
302.12        51.19421
302.58        53.37713
303.03        55.21155
303.48        56.78711
303.94        58.35744
304.39        60.23133
304.84        62.51453
305.30        65.09538
305.75        67.72475
306.20        70.05334
306.66        71.99864
307.11        73.62191
307.57        75.11337
308.02         76.6297
308.47        78.26929
308.93         79.9688
309.38        81.64449
309.83          83.273
310.29        84.82956
310.74        86.30769
311.19         87.6792
311.65        88.87118
312.10        89.84254
312.55        90.61004
313.00        91.21112
313.46        91.72632
313.91        92.17559
314.36        92.60557
314.82        93.05144
315.27        93.52862
315.72        94.06084
316.18         94.6416
316.63        95.30066
317.08        96.09747
317.53        97.01932
317.99        98.02274
318.44        98.98219
318.89        99.63383
319.35        99.91837
319.80        99.90669
320.25        99.78514
320.70        99.88246
321.16        100.2635
321.61        100.8548
322.06        101.4868
322.51        101.8747
322.97        101.9375
323.42        101.8141
323.87        101.6058
324.32        101.4869
324.78        101.5121
325.23        101.6528
325.68        101.9106
326.13        102.3106
326.59        102.8037
327.04        103.4385
327.49        104.0845
327.94        104.5544
328.39        104.7953
328.85        104.8011
329.30         104.746
329.75        104.7971
330.20        105.0175
330.66        105.3359
331.11        105.7253
331.56        106.0109
332.01        106.1655
332.46          106.26
332.92        106.3462
333.37        106.6282
333.82        107.1125
334.27        107.7426
334.72        108.4685
335.17        109.2123
335.63        109.8892
336.08        110.5545
336.53        111.1291
336.98        111.5454
337.43        111.7998
337.88        111.9217
338.34        111.9627
338.79        112.0413
339.24        112.2031
339.69        112.4543
340.14        112.8244
340.59        113.3432
341.05        113.9972
341.50        114.7757
341.95        115.6171
342.40        116.4351
342.85        117.1858
343.30        117.8645
343.75        118.4417
344.20        118.8889
344.66        119.2273
345.11        119.4482
345.56        119.6149
346.01        119.8226
346.46        120.1005
346.91         120.427
347.36        120.7888
347.81        121.1524
348.26        121.5051
348.72        121.8772
349.17        122.2133
349.62        122.4511
350.07        122.5851
350.52        122.6196
350.97        122.6489
351.42        122.8362
351.87        123.1862
352.32        123.6155
352.77        123.9763
353.22        124.0347
353.67        123.7488
354.13        123.2549
354.58        122.5971
355.03        121.9224
355.48        121.3065
355.93        120.7204
356.38        120.2676
356.83        120.1073
357.28        120.2275
357.73        120.5558
358.18        120.8699
358.63        120.8007
359.08        120.2622
359.53        119.3706
359.98         118.287
360.43        117.2867
360.88        116.4568
361.33         115.701
361.78        115.0235
362.23        114.4198
362.68        113.8623
363.13        113.3864
363.58        112.8379
364.03        111.9633
364.48        110.7446
364.93        109.2592
365.38        107.8031
365.83        106.8314
366.28        106.4307
366.73         106.476
367.18        106.6302
367.63        106.3434
368.08        105.4805
368.53        104.1964
368.98        102.8372
369.43        101.9278
369.88        101.5754
370.33        101.6186
370.78        101.7052
371.23        101.2589
371.68        100.1544
372.13        98.60448
372.58        97.01333
373.03        95.97453
373.48        95.61454
373.93        95.73553
374.38        95.99863
374.83        95.85387
375.28        95.14343
375.72        94.01556
376.17        92.79761
376.62        91.81947
377.07        91.16171
377.52        90.70834
377.97        90.29745
378.42        89.69754
378.87         88.8783
379.32        87.95305
379.77        87.09869
380.22         86.5349
380.67        86.28285
381.11        86.27271
381.56        86.29122
382.01         86.0638
382.46        85.52693
382.91        84.78159
383.36        84.00285
383.81        83.43903
384.26        83.13844
384.71        83.01806
385.15        82.94431
385.60        82.73927
386.05        82.34491
386.50        81.82207
386.95        81.27087
387.40        80.83514
387.85        80.54812
388.29        80.32805
388.74        80.15208
389.19        79.80962
389.64        79.27048
390.09         78.5956
390.54        77.93529
390.98        77.45154
391.43        77.21482
391.88        77.28806
392.33        77.49564
392.78        77.16316
393.23        76.44149
393.67        76.31906
394.12        76.71043
394.57        76.38023
395.02        75.45374
395.47        75.09899
395.91        75.31012
396.36        75.20036
396.81        74.78285
397.26        74.55637
397.71         74.4561
398.15        74.26652
398.60        74.08358
399.05        73.57957
399.50        72.96613
399.95         73.2981
400.39        74.28882
400.84        73.98994
401.29        72.57415
401.74        72.02036
402.18        72.37253
402.63        72.30305
403.08        71.88492
403.53        71.40741
403.97        71.88002
404.42        72.10247
404.87         72.2682
405.32        72.24691
405.76        72.00302
406.21        71.74435
406.66        71.44334
407.11        70.89539
407.55         70.3131
408.00        70.01386
408.45        70.05943
408.90        70.69384
409.34        71.47933
409.79        70.98693
410.24        69.55469
410.68        68.99581
411.13        69.41722
411.58        69.79197
412.03        69.89236
412.47        69.84645
412.92        69.57066
413.37        69.05506
413.81        68.51157
414.26        68.32169
414.71        68.50922
415.15        69.02774
415.60        69.58283
416.05        69.73235
416.49        69.36886
416.94        68.66734
417.39        67.95364
417.83        67.69232
418.28        67.98372
418.73        68.65511
419.17        69.46961
419.62        69.97202
420.07        70.01912
420.51        69.73232
420.96        69.27723
421.41        68.79837
421.85        68.34949
422.30        68.03787
422.74        67.80899
423.19        67.56514
423.64         67.3468
424.08         67.5132
424.53        67.99602
424.98        68.39548
425.42         68.6438
425.87         69.0149
426.31        69.46344
426.76        69.45868
427.21        69.16022
427.65        69.42258
428.10        70.04981
428.54        70.15623
428.99        69.77383
429.44        69.12462
429.88        68.46973
430.33        68.70407
430.77        69.47015
431.22        69.46818
431.66         68.7505
432.11        68.46398
432.56        68.65495
433.00        69.02386
433.45         69.4769
433.89        70.03268
434.34        67.43336
434.78        70.37787
435.23         70.1731
435.67         67.8339
436.12        68.32336
436.57        68.29272
437.01        69.54774
437.46         70.1626
437.90        70.18769
438.35        69.35246
438.79        69.93681
439.24        69.74008
439.68        69.43433
440.13        69.40087
440.57        69.64902
441.02        69.44242
441.46        68.88558
441.91        69.47853
442.35        70.68621
442.80        70.32677
443.24        68.75352
443.69        68.68864
444.13         69.9912
444.58        70.38632
445.02        69.79496
445.47         69.4877
445.91        69.58653
446.36        69.71241
446.80        69.84614
447.24        70.21605
447.69         70.7316
448.13        70.57767
448.58        70.76321
449.02        70.53889
449.47        70.31937
449.91        70.16331
450.36        70.13194
450.80        70.20265
451.25        70.32068
451.69        70.30971
452.13        70.18488
452.58        70.14502
453.02        70.17097
453.47        70.12982
453.91        70.00495
454.36        69.86718
454.80        69.74475
455.24        69.66477
455.69        69.63036
456.13        69.69546
456.58        69.78067
457.02        69.72402
457.46        68.87048
457.91        69.17926
458.35        68.98898
458.79        69.17201
459.24        69.23693
459.68        68.79455
460.13        67.99471
460.57        68.26735
461.01        67.99223
461.46        68.25377
461.90        68.35127
462.34        68.37904
462.79        67.69669
463.23        67.30298
463.68        67.13052
464.12        67.23492
464.56        67.48856
465.01        67.49788
465.45        67.25513
465.89        67.26154
466.34        67.50217
466.78        67.62508
467.22         67.6398
467.67        67.48626
468.11         67.4432
468.55         67.3961
468.99        67.40556
469.44        67.33234
469.88        67.18694
470.32        67.06754
470.77        66.97655
471.21        66.88946
471.65        66.78879
472.10        66.68101
472.54        66.57939
472.98        66.49063
473.42        66.41543
473.87        66.47282
474.31        66.51536
474.75         66.1811
475.20        65.63554
475.64        65.20815
476.08        65.45283
476.52        65.47279
476.97         65.4103
477.41        65.54892
477.85        65.79646
478.29        66.11535
478.74        65.75464
479.18        65.90156
479.62        66.07128
480.06        66.05384
480.50        65.67933
480.95        65.70422
481.39        66.24873
481.83        64.96983
482.27        65.38041
482.72        65.94866
483.16        65.43352
483.60        65.58769
484.04        65.85629
484.48        65.58462
484.93        64.76336
485.37        66.15677
485.81        66.65751
486.25        66.08067
486.69         67.0953
487.14        67.32265
487.58        65.32597
488.02        65.26064
488.46        66.52409
488.90        64.38004
489.34        65.39228
489.79        65.42824
490.23        65.27561
490.67        65.43829
491.11        65.55862
491.55        65.61333
491.99        65.52645
492.43          65.451
492.88        65.38461
493.32        65.28653
493.76        65.19031
494.20        65.10315
494.64        65.01536
495.08        65.14584
495.52         65.4098
495.96        65.09126
496.41        64.40395
496.85          64.701
497.29        65.75872
497.73        65.90061
498.17        65.15016
498.61        64.92834
499.05        65.27317
499.49        65.15588
499.93        64.63577
500.37        64.58581
500.82        64.92484
501.26         64.7267
501.70        64.25989
502.14        64.23081
502.58         64.6408
503.02        64.79863
503.46        64.66885
503.90        64.60765
504.34        64.62529
504.78        64.58627
505.22        64.49239
505.66        64.38205
506.10        64.25562
506.54        64.17109
506.98        64.14687
507.42        64.15334
507.86        63.86397
508.30        64.33627
508.74        63.98943
509.18        64.02917
509.62        64.02967
510.06        64.07037
510.50        64.14423
510.94        64.24793
511.38        64.33516
511.82        64.29037
512.26        64.10656
512.70        63.82923
513.14        63.54244
513.58        63.38387
514.02        63.38194
514.46         63.4715
514.90        63.60256
515.34        63.74905
515.78        63.78492
516.22        63.82583
516.66        63.80859
517.10        63.67908
517.54        63.44839
517.98        63.13215
518.42        62.86303
518.86        62.85336
519.30        63.13384
519.74         63.6352
520.18        64.17728
520.62         64.4613
521.06        64.40826
521.50        64.10353
521.93        63.69129
522.37        63.42162
522.81        63.35959
523.25        63.43344
523.69          63.558
524.13        63.59879
524.57        63.52377
525.01        63.39454
525.45         63.2683
525.89        63.22481
526.32        63.27988
526.76        63.40164
527.20        63.55722
527.64        63.70865
528.08        63.83617
528.52        63.94947
528.96        64.02942
529.40        64.04825
529.83        63.99244
530.27        63.87568
530.71        63.73474
531.15        63.63644
531.59        63.59684
532.03         63.6196
532.46        63.64366
532.90        63.55525
533.34        63.35968
533.78        63.13862
534.22         62.9792
534.66        62.98176
535.09         63.1472
535.53        63.43599
535.97        63.76725
536.41        63.95743
536.85        63.94902
537.28        63.96553
537.72        63.97005
538.16        63.51336
538.60        62.82435
539.04        62.78316
539.47        63.29215
539.91        63.48271
540.35        63.30663
540.79        63.29025
541.22        63.40543
541.66        63.40918
542.10        63.30128
542.54        63.05644
542.97         62.7831
543.41        62.89676
543.85        63.30854
544.29        63.48399
544.72        63.37019
545.16        63.34097
545.60        63.36947
546.04        63.21734
546.47        62.93356
546.91         62.7474
547.35        62.69295
547.79        62.71241
548.22         62.7794
548.66        62.88387
549.10         63.0058
549.53        63.22152
549.97        63.46726
550.41        63.57694
550.84        63.52018
551.28        63.37919
551.72        63.18872
552.15        62.97568
552.59        62.79865
553.03        62.65781
553.46        62.52175
553.90        62.51987
554.34         62.6088
554.77        62.70401
555.21        62.79167
555.65        62.90109
556.08        63.00675
556.52        63.08472
556.96        63.11558
557.39        63.11009
557.83        63.10238
558.27        63.04713
558.70        62.95292
559.14        62.97895
559.57        63.06462
560.01        62.89847
560.45        62.57235
560.88        62.58462
561.32        62.88369
561.75        62.95197
562.19        62.83758
562.63        62.66984
563.06        62.54662
563.50        62.98138
563.93        63.74159
564.37        63.63584
564.80         62.8194
565.24        62.74055
565.68        63.27544
566.11        63.29211
566.55         62.8265
566.98         62.4179
567.42        62.20238
567.85        62.50811
568.29        62.81418
568.72         62.9433
569.16        62.84529
569.60        62.97179
570.03         62.9967
570.47        63.20014
570.90        63.55755
571.34        62.69106
571.77        63.70879
572.21        63.21129
572.64        63.59032
573.08        63.08842
573.51        63.51084
573.95        63.22511
574.38        62.93601
574.82        62.53192
575.25        63.76021
575.69         64.0271
576.12        63.52164
576.56        62.95479
576.99        63.04555
577.42        63.84757
577.86        63.15905
578.29         63.8193
578.73        63.58225
579.16         63.7608
579.60         63.7826
580.03        63.73914
580.47        63.51748
580.90         63.5303
581.33        62.68646
581.77        63.16471
582.20        64.45036
582.64        64.20058
583.07        64.08318
583.51        63.49098
583.94        63.22187
584.37        63.23619
584.81        63.19607
585.24        63.17898
585.68        64.02479
586.11        63.48074
586.54        63.79526
586.98        62.97182
587.41        62.87565
587.85        63.63167
588.28        63.32693
588.71        63.18751
589.15        62.95188
589.58        63.20562
590.01        62.96555
590.45        62.61132
590.88        63.04362
591.31          63.266
591.75        63.48536
592.18        63.23398
592.61         62.7378
593.05        62.73104
593.48        63.77656
593.91        63.76136
594.35         63.9943
594.78        63.47647
595.21        63.23016
595.65        63.02994
596.08        62.98857
596.51        63.50929
596.94        63.15152
597.38        63.07537
597.81        62.84761
598.24        63.08516
598.68        63.03249
599.11        62.26272
599.54        63.66053
599.97        63.04562
600.41        63.41114
600.84        63.34071
601.27        63.47868
601.70        62.97206
602.14        62.99852
602.57        62.81597
603.00        62.71554
603.43         63.0388
603.87        62.90975
604.30        63.02982
604.73        63.13712
605.16        62.98703
605.60         62.4791
606.03        62.47845
606.46        62.92859
606.89        62.42998
607.32        62.59105
607.76        62.35224
608.19        62.57662
608.62        62.78806
609.05         62.9444
609.48        62.86605
609.92         62.8255
610.35        62.12858
610.78        63.26451
611.21        64.04935
611.64        63.36562
612.07        63.25622
612.50        63.29189
612.94        63.16746
613.37         62.8663
613.80        63.22004
614.23        63.02184
614.66        62.98198
615.09        62.80355
615.52        62.82499
615.96        63.00021
616.39        63.05304
616.82        62.99114
617.25        62.77175
617.68        62.97907
618.11        62.66159
618.54        62.16345
618.97        62.05095
619.40        62.35378
619.84        62.64005
620.27        62.79966
620.70         63.0735
621.13        63.41396
621.56        62.87482
621.99        62.27905
622.42        62.53419
622.85        62.94557
623.28        62.91168
623.71         62.0915
624.14        62.61061
624.57        61.70923
625.00         61.9837
625.43        61.97583
625.86        62.17326
626.29        62.25237
626.72        62.71257
627.15        62.61522
627.58        62.53471
628.01        62.45809
628.44        62.38623
628.87         62.2974
629.30        62.05955
629.73        61.76517
630.16          62.235
630.59        61.99612
631.02        62.05227
631.45        62.01104
631.88        62.02502
632.31        62.05709
632.74        62.51713
633.17        62.43065
633.60        62.52141
634.03        62.49625
634.46        62.38941
634.89         62.2245
635.32        62.06411
635.75        61.93969
636.18        61.82706
636.61        61.74519
637.04        61.72282
637.47        61.76238
637.89        61.84954
638.32        61.90657
638.75        61.90156
639.18        61.83329
639.61        61.47036
640.04        61.34713
640.47        61.20963
640.90        61.22675
641.33          61.352
641.76        61.54501
642.18        61.73753
642.61        61.87212
643.04        61.97379
643.47        62.04466
643.90        62.08935
644.33        62.10873
644.76        62.10574
645.18        62.09047
645.61        62.00143
646.04        61.84046
646.47        61.77406
646.90        61.87776
647.33        61.53218
647.75        61.90744
648.18        62.02372
648.61        62.20893
649.04        62.39265
649.47        62.54994
649.89        62.73074
650.32        62.83688
650.75        62.67102
651.18        62.32191
651.61        62.10275
652.03        62.08989
652.46        62.20061
652.89        62.28335
653.32        62.21459
653.74        62.08786
654.17        61.54452
654.60        61.60986
655.03        62.35332
655.46        61.78299
655.88         61.5473
656.31         63.8896
656.74        67.98215
657.16        65.56403
657.59        63.05072
658.02         62.6228
658.45         62.9664
658.87        63.64031
659.30        62.36971
659.73        61.93301
660.15         62.3894
660.58        61.95201
661.01        61.90601
661.44          61.502
661.86        61.25765
662.29        61.16927
662.72        61.31972
663.14        61.63963
663.57        61.55033
664.00        61.16252
664.42        61.21112
664.85        61.66282
665.27        61.81656
665.70         61.6517
666.13        61.63525
666.55        61.77611
666.98        61.81836
667.41        61.76467
667.83        61.71558
668.26        61.67276
668.69        61.63519
669.11        61.58519
669.54        61.47936
669.96        61.31868
670.39        61.14231
670.82        61.03687
671.24        61.04605
671.67        61.19576
672.09         61.6269
672.52        62.20665
672.94        62.18409
673.37        62.23199
673.80         61.8872
674.22        61.52891
674.65         61.3766
675.07        61.50612
675.50        61.82263
675.92        62.20133
676.35        62.41209
676.77        62.40206
677.20        62.24487
677.62        62.03271
678.05        61.91565
678.47         61.9309
678.90        62.02476
679.32        62.14495
679.75        62.26606
680.17         62.3728
680.60        62.40416
681.02        62.33947
681.45        62.53235
681.87        62.33616
682.30        62.26962
682.72        62.17729
683.15        62.13135
683.57        62.15037
684.00         62.2233
684.42        62.31281
684.85        62.35798
685.27        62.33929
685.70        62.21152
686.12        62.01793
686.54        62.04423
686.97        62.21478
687.39        62.13647
687.82        61.81935
688.24        61.65446
688.66        61.66391
689.09        61.61422
689.51        61.52487
689.94        61.59227
690.36        61.84211
690.78        62.07585
691.21        62.15912
691.63        62.77176
692.06         62.2999
692.48        62.44538
692.90        62.69637
693.33        62.78134
693.75        62.69645
694.17        62.52748
694.60        62.34425
695.02        62.65904
695.44        62.59049
695.87        62.92583
696.29        63.26448
696.71        63.15617
697.14        62.65614
697.56        62.29573
697.98        62.19049
698.41        62.11444
698.83         62.0699
699.25         62.2607
699.68        62.57707
700.10        62.78808
700.52        62.81746
700.94        62.74173
701.37        62.60295
701.79        62.49425
702.21        62.43564
702.64        62.39519
703.06        62.37183
703.48         62.3735
703.90        62.40212
704.33        62.46812
704.75        62.54928
705.17        62.58914
705.59        62.57552
706.01        62.51053
706.44        62.45088
706.86        62.50308
707.28        62.66137
707.70        62.94411
708.12        63.24627
708.55        63.27067
708.97        63.04221
709.39        62.91277
709.81        62.92274
710.23        62.87877
710.66        62.80007
711.08         62.8458
711.50        62.98262
711.92        63.09565
712.34        63.16595
712.76        63.21992
713.19        63.24999
713.61        63.29857
714.03        63.34253
714.45        63.36467
714.87        63.34838
715.29        63.27376
715.71        63.13925
716.13        62.95934
716.56        62.74419
716.98        62.57766
717.40        62.46603
717.82        62.40621
718.24         62.3973
718.66        62.43352
719.08        62.50299
719.50        62.59489
719.92        62.70226
720.34        62.81392
720.76        62.92443
721.19        63.02503
721.61        63.09395
722.03        63.09783
722.45        63.06442
722.87        62.86082
723.29        62.55941
723.71        62.70074
724.13        63.31379
724.55        62.87415
724.97        63.29747
725.39        63.25301
725.81        63.31269
726.23        63.25875
726.65        63.14858
727.07        63.12854
727.49        63.20056
727.91        63.33542
728.33        63.49309
728.75        63.61072
729.17        63.66884
729.59        63.68563
730.01        63.65768
730.43        63.66027
730.85        63.71971
731.27          63.664
731.69        63.46339
732.10         63.9006
732.52        63.66162
732.94        63.79237
733.36        63.87933
733.78        63.91065
734.20        63.87346
734.62        63.80866
735.04        63.74404
735.46        63.68318
735.88        63.62757
736.30         63.5669
736.72        63.53975
737.13        63.55179
737.55        63.55482
737.97        63.78561
738.39        64.12933
738.81        63.85396
739.23        63.17545
739.65        63.39217
740.06        64.31284
740.48        64.59736
740.90        64.17058
741.32        63.79369
741.74        63.60032
742.16        63.46324
742.57        63.44416
742.99        63.55662
743.41        63.77912
743.83        64.05848
744.25        64.35693
744.67        64.66109
745.08        64.93099
745.50        65.06143
745.92        65.04538
746.34        64.90162
746.75        64.66473
747.17        64.41703
747.59        64.19085
748.01        63.96358
748.42        63.77642
748.84        63.71026
749.26        63.73719
749.68         63.8072
750.09        63.90032
750.51        63.88135
750.93        63.84538
751.35         64.2457
751.76        64.94331
752.18         65.1852
752.60        64.91104
753.01        64.50667
753.43        64.14037
753.85        63.95575
754.27        64.00954
754.68         64.2327
755.10        64.52284
755.52        64.71613
755.93        64.79157
756.35        64.84253
756.77        64.82499
757.18        64.81022
757.60        64.86024
758.02        64.48785
758.43        63.96066
758.85        64.77434
759.26        66.59132
759.68        66.69921
760.10        65.56721
760.51        64.97104
760.93        65.19942
761.34        65.24455
761.76        65.08704
762.18         64.9759
762.59        64.93445
763.01         65.0038
763.42        65.17348
763.84        65.14519
764.26        64.96299
764.67        64.69732
765.09        64.50139
765.50        64.64342
765.92         65.0346
766.33        65.03883
766.75        64.66936
767.16        64.70601
767.58        65.13916
768.00        65.47587
768.41        65.64972
768.83        65.89557
769.24        66.10335
769.66        65.78831
770.07        65.09984
770.49        64.75122
770.90        64.78167
771.32        64.84405
771.73        64.91657
772.15        65.09865
772.56        65.39162
772.97        65.70119
773.39        65.94331
773.80         66.1726
774.22        66.28088
774.63        66.08572
775.05        65.67061
775.46        65.44366
775.88        65.44709
776.29        65.51875
776.70        65.60707
777.12        65.69426
777.53        65.76861
777.95        65.82523
778.36        65.85032
778.77        65.78207
779.19        65.63454
779.60        65.44313
780.02        65.27342
780.43         65.2656
780.84        65.45615
781.26        65.68402
781.67        65.96308
782.09        66.45856
782.50        67.02119
782.91        67.17811
783.33        66.93443
783.74        66.79379
784.15        66.76456
784.57        66.58123
784.98        66.29792
785.39        66.11629
785.81        66.07658
786.22        66.17224
786.63        66.33314
787.04        66.39704
787.46        66.35159
787.87        66.23449
788.28        66.13197
788.70        66.14239
789.11        66.27071
789.52        66.50089
789.93        66.75765
790.35         66.9067
790.76        66.92933
791.17        66.85575
791.58        66.76428
792.00        66.70125
792.41        66.70154
792.82        66.90932
793.23         67.2377
793.65        67.10446
794.06        66.69809
794.47        67.01216
794.88        67.78777
795.29        68.00181
795.71        67.34023
796.12        66.67227
796.53        66.15385
796.94        65.79961
797.35        65.78345
797.76        66.39121
798.18        67.32289
798.59        67.85818
799.00        67.83444
799.41        67.32723
799.82        66.97628
800.23        66.73057
800.64        66.80762
801.06        67.06693
801.47        67.42575
801.88        67.62466
802.29        67.57659
802.70        67.36929
803.11        67.09708
803.52        66.89764
803.93        66.82168
804.34        66.83129
804.75        66.88464
805.17        66.90585
805.58        66.89708
805.99        66.88235
806.40        66.90961
806.81        66.99958
807.22        67.16799
807.63         67.4884
808.04        67.86811
808.45        68.01751
808.86        67.87571
809.27         67.5684
809.68        67.21021
810.09        66.96336
810.50        66.89506
810.91        66.97453
811.32        67.12727
811.73        67.22098
812.14        67.21698
812.55        67.15584
812.96        67.10385
813.37        67.17001
813.78        67.37242
814.19         67.6533
814.60        67.92838
815.01        68.08769
815.42         68.1058
815.83        68.01389
816.24        67.86178
816.65        67.74739
817.05        67.71601
817.46        67.71259
817.87        67.73652
818.28        67.73261
818.69        67.68715
819.10        67.62169
819.51         67.5616
819.92        67.54906
820.33        67.58814
820.74        67.64549
821.14        67.69234
821.55        67.70896
821.96        67.67918
822.37        67.63555
822.78        67.55998
823.19        67.41743
823.60        67.22865
824.00        67.03094
824.41        66.90987
824.82        67.08054
825.23        67.56634
825.64        68.28181
826.04        69.08533
826.45        69.63908
826.86        69.86386
827.27        69.83976
827.68        69.60777
828.08        69.27516
828.49        68.87209
828.90        68.40168
829.31        68.00502
829.72        67.90875
830.12        68.18395
830.53        68.73869
830.94        69.38505
831.35        69.72292
831.75        69.64559
832.16        69.19543
832.57        68.60515
832.97        68.23536
833.38        68.18594
833.79        68.35135
834.20        68.56148
834.60        68.54477
835.01        68.26338
835.42        67.82804
835.82        67.41139
836.23        67.23281
836.64        67.37212
837.04        67.77191
837.45        68.26791
837.86        68.69881
838.26        68.99052
838.67        69.13286
839.08        69.15625
839.48        69.09317
839.89        68.96255
840.29        68.73324
840.70        68.44691
841.11         68.1099
841.51        67.76666
841.92         67.4572
842.33        67.21241
842.73        67.07697
843.14        67.03252
843.54        67.07662
843.95        67.28308
844.35        67.81042
844.76        68.60172
845.17        69.59062
845.57        70.52728
845.98        70.84953
846.38        70.48334
846.79        69.61108
847.19        68.51883
847.60        67.68046
848.00        67.23507
848.41        67.03323
848.81        67.10926
849.22        67.40639
849.62        67.90544
850.03         68.5701
850.43        69.19005
850.84         69.2784
851.24        68.78146
851.65        67.80014
852.05        66.67535
852.46        65.99188
852.86        65.88464
853.27        66.20135
853.67        66.69123
854.07        67.18557
854.48        67.56136
854.88        67.95568
855.29        68.18986
855.69        68.14322
856.10        67.70699
856.50        66.98387
856.90        66.21572
857.31        65.80671
857.71        65.88039
858.12        66.30862
858.52        66.96152
858.92        67.39337
859.33        67.44044
859.73        67.24598
860.13        66.95149
860.54        66.81647
860.94        66.94101
861.34        67.21291
861.75        67.46263
862.15        67.51643
862.55         67.2859
862.96        66.86435
863.36        66.38664
863.76        66.07426
864.17        65.97782
864.57         66.0499
864.97        66.16698
865.38        66.11673
865.78        65.88485
866.18        65.51716
866.58        65.12724
866.99        64.90889
867.39        64.93513
867.79        65.11703
868.19        65.34766
868.60        65.44515
869.00        65.37247
869.40        65.20192
869.80        64.98904
870.21        64.83421
870.61        64.81059
871.01         64.8539
871.41        64.97639
871.81        65.20341
872.22        65.50267
872.62        65.91068
873.02        66.35054
873.42        66.66146
873.82         66.7882
874.22        66.76705
874.63        66.70105
875.03        66.72669
875.43        66.88299
875.83        67.10133
876.23        67.33403
876.63        67.48936
877.03        67.55081
877.44        67.61032
877.84        67.58741
878.24        67.37807
878.64        66.98466
879.04         66.3854
879.44        65.88156
879.84         65.9188
880.24        66.52473
880.64        67.60114
881.04        68.57185
881.44        68.41402
881.84        66.97395
882.24        64.68539
882.65        62.43505
883.05        61.37994
883.45        61.78652
883.85        63.29787
884.25        65.33759
884.65          66.827
885.05        67.34621
885.45        67.18417
885.85        66.66224
886.25        66.28474
886.65        66.21615
887.05        66.26579
887.45        66.32529
887.85        66.26616
888.25         66.0521
888.65        65.78352
889.04        65.54391
889.44        65.45048
889.84        65.51973
890.24        65.73205
890.64        65.99504
891.04        66.16558
891.44        66.21199
891.84        66.16466
892.24         66.1675
892.64        66.44694
893.04        67.04118
893.44        67.88128
893.83         68.7698
894.23        69.28947
894.63        69.35543
895.03        69.03638
895.43        68.58746
895.83          68.422
896.23        68.63198
896.63        69.11208
897.02        69.54934
897.42        69.43804
897.82        68.70612
898.22        67.54631
898.62        66.38353
899.01        65.79076
899.41        65.89608
899.81        66.55634
900.21         67.3814
900.61        67.64373
901.00        67.14127
901.40        66.17131
901.80        65.24649
902.20        65.07576
902.59        65.81575
902.99        67.22809
903.39        68.87222
903.79        69.80204
904.18        69.67244
904.58          68.794
904.98        67.72997
905.38        67.26163
905.77        67.53342
906.17         68.3183
906.57        69.21527
906.96        69.60377
907.36        69.26437
907.76         68.4256
908.15        67.46237
908.55        66.91164
908.95         66.9659
909.34        67.43027
909.74        68.01209
910.14        68.23477
910.53        67.99031
910.93        67.46997
911.33        66.91644
911.72        66.72425
912.12        66.98438
912.52         67.5349
912.91        68.19792
913.31        68.67971
913.70         68.9053
914.10         68.9146
914.49        68.78554
914.89        68.56813
915.29        68.33997
915.68        68.10462
916.08        67.89793
916.47         67.7261
916.87        67.63211
917.26        67.57134
917.66        67.64732
918.05        68.00379
918.45        68.59811
918.84        69.41638
919.24        70.09981
919.64        70.13397
920.03         69.4216
920.42         68.1609
920.82        66.83071
921.21        65.96062
921.61        65.67538
922.00        65.86156
922.40        66.30148
922.79        66.70319
923.19        66.90342
923.58        67.00792
923.98        67.11017
924.37        67.31885
924.77        67.66474
925.16        68.08859
925.55        68.49995
925.95        68.76021
926.34        68.85744
926.74         68.8087
927.13        68.65884
927.52         68.4725
927.92        68.28294
928.31        68.07478
928.70         67.8761
929.10        67.70819
929.49        67.60609
929.89        67.59709
930.28        67.67117
930.67        67.76297
931.07        67.84483
931.46        67.91774
931.85        68.08684
932.24        68.55254
932.64         69.2963
933.03         70.3082
933.42        71.24081
933.82        71.54992
934.21        71.15313
934.60         70.2004
934.99        69.15652
935.39        68.70203
935.78        68.98026
936.17        69.78522
936.56        70.73032
936.96        71.15916
937.35        70.92121
937.74        70.20415
938.13        69.24786
938.53        68.42461
938.92        67.86721
939.31        67.53743
939.70        67.40862
940.09        67.45447
940.49        67.58775
940.88         67.8008
941.27        68.15125
941.66         68.7346
942.05        69.49425
942.44        70.39368
942.84         70.9304
943.23        70.30078
943.62        68.52323
944.01        66.02808
944.40        63.72377
944.79        62.75185
945.18        63.26622
945.57        64.96964
945.97        67.17305
946.36        68.71983
946.75        68.98553
947.14         68.3231
947.53        67.27209
947.92        66.72776
948.31        66.94311
948.70        67.54588
949.09        68.33285
949.48         69.0053
949.87        69.40904
950.26        69.71935
950.65        69.76399
951.04        69.22169
951.43        68.13187
951.82         66.6186
952.21        65.18723
952.60        64.61506
952.99        65.03908
953.38        66.23816
953.77        67.70731
954.16        68.54955
954.55        68.47443
954.94        67.71216
955.33        66.63659
955.72         65.8807
956.11        65.65347
956.50        65.77978
956.89        66.03989
957.28        66.08296
957.66         65.8326
958.05        65.43145
958.44        65.10823
958.83        65.18702
959.22        65.72704
959.61        66.57206
960.00        67.48246
960.39        68.06289
960.78        68.16663
961.16        67.90329
961.55        67.38904
961.94        66.79887
962.33        66.23768
962.72        65.68799
963.11        65.24034
963.49        65.06015
963.88        65.13963
964.27        65.47757
964.66        65.98925
965.04        66.52032
965.43        66.94943
965.82         67.3235
966.21        67.61998
966.60        67.83382
966.98        67.97442
967.37        67.97488
967.76        67.90907
968.15        67.89743
968.53        67.98379
968.92          68.133
969.31        68.23595
969.69        68.08114
970.08        67.62142
970.47         66.9604
970.86        66.34872
971.24        66.17493
971.63        66.53172
972.02        67.36063
972.40        68.42506
972.79        69.24153
973.17        69.71329
973.56         69.8552
973.95        69.99415
974.33        70.67816
974.72        71.92198
975.11         73.5896
975.49        75.28474
975.88        76.04884
976.26         75.6065
976.65        74.23981
977.04        72.41305
977.42        70.70975
977.81        69.35207
978.19        68.12958
978.58        67.16338
978.96        66.45058
979.35        65.98064
979.74        65.76402
980.12        65.63165
980.51        65.13874
980.89        64.30128
981.28        63.26022
981.66        62.31758
982.05        61.94618
982.43        62.30168
982.82        63.14124
983.20        64.44487
983.59        66.22285
983.97         68.4565
984.35          71.147
984.74        73.50391
985.12        74.38947
985.51        73.38074
985.89         70.9378
986.28        68.20664
986.66        66.50977
987.04        66.24246
987.43        66.97414
987.81         68.3175
988.20        69.31374
988.58        69.64975
988.96        69.65182
989.35        69.28198
989.73        68.60336
990.12        67.68039
990.50        66.39577
990.88        65.26168
991.27        65.07017
991.65        65.97038
992.03        67.97038
992.42        70.09931
992.80          70.661
993.18        69.00587
993.56        65.91383
993.95        63.06174
994.33        62.14402
994.71        63.51862
995.10        66.57118
995.48        70.47294
995.86        72.79536
996.24         72.4744
996.63        70.43033
997.01        67.64847
997.39        65.38952
997.77        64.06079
998.15        63.17747
998.54        63.05384
998.92        64.33693
999.30        67.04638
999.68        71.14435
1000.06        75.34801
1000.45        77.14917
1000.83        76.05394
1001.21         72.7105
1001.59        68.76846
1001.97        66.54982
1002.35        66.55739
1002.73        68.18877
1003.12        70.64718
1003.50        72.52003
1003.88         73.1667
1004.26        73.05931
1004.64        72.62273
1005.02        72.52116
1005.40        72.89706
1005.78        73.30206
1006.16         73.5152
1006.54        73.26994
1006.92        72.45009
1007.30        71.29839
1007.69        69.61487
1008.07        67.22826
1008.45        64.49161
1008.83        61.76183
1009.21        59.83358
1009.59        59.46769
1009.97         60.6823
1010.35        63.47509
1010.73         67.0679
1011.11        69.42616
1011.49        69.53755
1011.86        67.51118
1012.24        65.15289
1012.62        65.38955
1013.00        69.08622
1013.38        76.07321
1013.76        83.86758
1014.14         85.9104
1014.52        80.61346
1014.90         71.6787
1015.28        63.71777
1015.66        60.68278
1016.04        62.72297
1016.41        69.03886
1016.79        78.22044
1017.17        86.41779
1017.55        90.52886
1017.93        90.97107
1018.31         87.8068
1018.69        82.52383
1019.06        76.84983
1019.44        71.49141
1019.82        67.31055
1020.20        64.79639
1020.58        63.62566
1020.95        63.78372
1021.33        65.08971
1021.71        66.89335
1022.09         68.6535
1022.46        69.96521
1022.84        71.26015
1023.22        73.29517
1023.60         76.3541
1023.97        80.71145
1024.35        84.38103
1024.73        82.57288
