SpectraSmart Spectrum 2.9.0.0
--------- Device Information -----------
Spectrum Name :  反射率_0
Saving Time :  2024/05/03 20:00:43
Spectro-Module Model Name : SE2030-DUVN
Spectro-Module Serial Number : OS361AC55029948
Wavelength Start : 200
Wavelength End : 1025
Wavelength Unit : Wavelength(nm)
Spectrum Unit : Reflectance(%)
-----------Spectrum Setting ------------
Integration Time : 20ms
Average : 10
Boxcar : 0
Background removal :  enabled
linearity correction :  enabled
SC :  disabled
Intensity correction :  disabled
DWT denoise :  enabled
savitzky-golay :  disabled
FFT :  disabled
Running average :  disabled
Kalman :  disabled
High pass :  disabled
---------------BEGIN--------------------
Wavelength(nm)             Reflectance(%)
200.29               0
200.75       -28.26793
201.21       -39.98127
201.67        930.1946
202.13        33.23191
202.58        25.92114
203.04        28.42525
203.50         32.7587
203.96        36.54939
204.42        40.56039
204.88        51.82699
205.34       -346.9524
205.80       -9.126695
206.26       -23.95212
206.72        -14963.2
207.18        86.98177
207.64        64.43653
208.10        57.01628
208.55        53.54853
209.01        16.42065
209.47       -82.06625
209.93        15.40075
210.39         27.7309
210.85        32.69581
211.31        37.34548
211.77        44.45362
212.23        60.90583
212.69        100.8877
213.14        123.1834
213.60        65.21089
214.06        29.60709
214.52        16.49976
214.98        13.69484
215.44        17.79375
215.90        41.53568
216.36        -315.356
216.81       -68.52125
217.27        -71.4231
217.73       -121.9369
218.19       -428.1125
218.65       -8242.188
219.11       -568.2817
219.57       -139.1684
220.02       -71.35061
220.48       -117.1557
220.94        148.9631
221.40        53.61755
221.86        40.32957
222.32        37.23315
222.77        37.65098
223.23        40.82667
223.69        46.92435
224.15        51.70531
224.61        50.85006
225.06        47.14344
225.52        44.17891
225.98        43.12838
226.44        43.56436
226.90         44.5833
227.36        45.73252
227.81         45.8214
228.27        44.24194
228.73        42.21957
229.19         39.7356
229.65        36.45629
230.10        32.77356
230.56        29.33372
231.02        26.96184
231.48        26.67679
231.93        28.15026
232.39        30.73837
232.85        33.43309
233.31        34.84344
233.77        34.75373
234.22        33.62263
234.68        32.24403
235.14        31.95615
235.60        33.18386
236.05        35.59885
236.51        38.61313
236.97         40.9473
237.43        41.97699
237.88        42.30042
238.34        42.34258
238.80        42.57351
239.26         43.3146
239.71         46.5726
240.17        50.44168
240.63        59.09484
241.08        70.03016
241.54         78.7762
242.00         83.4377
242.46        86.99706
242.91        91.99607
243.37        98.28675
243.83        105.6733
244.28        106.3375
244.74        89.90704
245.20        65.37873
245.66         46.8647
246.11        40.08752
246.57        42.33368
247.03        49.09201
247.48        56.72038
247.94        62.06295
248.40        64.82069
248.85        66.42184
249.31        65.72657
249.77        60.25114
250.22        52.25986
250.68        44.79173
251.14        40.42557
251.59        41.45029
252.05        48.47164
252.51        62.68817
252.96        85.79432
253.42        110.3518
253.88        122.9379
254.33        121.4994
254.79        109.9398
255.25         94.0024
255.70        79.30665
256.16        68.18481
256.62        60.73373
257.07         56.8102
257.53        55.51807
257.99        55.39119
258.44        55.48788
258.90        55.35389
259.35         54.5116
259.81        53.64127
260.27        52.53089
260.72        51.01488
261.18        49.52769
261.63        47.93121
262.09        46.62785
262.55        45.69959
263.00        45.00465
263.46        44.49526
263.91        43.94323
264.37        43.29578
264.83         42.5006
265.28        41.62215
265.74        40.71979
266.19        39.65099
266.65        38.52008
267.11        37.29437
267.56        36.14385
268.02        35.38471
268.47        34.99346
268.93        34.90265
269.38        34.81472
269.84        34.23392
270.30        33.11703
270.75        31.66037
271.21        30.29742
271.66        29.55285
272.12        29.50498
272.57        29.91144
273.03          30.442
273.48        30.59252
273.94        30.22231
274.39        29.50788
274.85        28.59882
275.31        27.62243
275.76         26.6647
276.22        25.74912
276.67        24.96469
277.13        24.52753
277.58        24.37535
278.04        24.45092
278.49        24.54145
278.95         24.3595
279.40        23.82735
279.86        23.12812
280.31        22.35238
280.77        21.70605
281.22        21.17845
281.68        20.74345
282.13        20.38317
282.59        20.13543
283.04        19.98063
283.50        19.92772
283.95        19.90792
284.41        19.83063
284.86        19.66957
285.32        19.46939
285.77        19.27049
286.22        19.18962
286.68        19.24782
287.13        19.37564
287.59         19.5312
288.04         19.6198
288.50        19.63442
288.95        19.58366
289.41        19.49874
289.86          19.388
290.32        19.28464
290.77        19.17786
291.22        19.09529
291.68         19.0663
292.13         19.0985
292.59        19.22219
293.04         19.4275
293.50        19.70558
293.95        20.04624
294.40        20.44969
294.86        20.95327
295.31        21.62017
295.77        22.45394
296.22        23.41817
296.68        24.41815
297.13        25.28893
297.58        25.96948
298.04          26.516
298.49        26.98256
298.95        27.49881
299.40        28.09737
299.85        28.75347
300.31        29.49853
300.76        30.34808
301.21        31.30378
301.67        32.37309
302.12        33.45751
302.58        34.41404
303.03        35.20011
303.48        35.86311
303.94        36.54981
304.39        37.43171
304.84        38.56733
305.30        39.89388
305.75        41.27139
306.20        42.50697
306.66        43.55802
307.11        44.46162
307.57         45.3171
308.02        46.19386
308.47        47.15121
308.93        48.16157
309.38        49.20327
309.83        50.30656
310.29        51.45852
310.74        52.62909
311.19        53.76374
311.65        54.75993
312.10        55.56789
312.55        56.20657
313.00        56.70079
313.46        57.10946
313.91        57.45248
314.36        57.75613
314.82         58.0607
315.27        58.40361
315.72        58.80971
316.18        59.27662
316.63        59.80544
317.08        60.40057
317.53        61.04694
317.99         61.7227
318.44        62.37764
318.89        62.89451
319.35        63.24032
319.80        63.44031
320.25        63.55797
320.70        63.71761
321.16        63.94614
321.61        64.22541
322.06        64.50792
322.51        64.71506
322.97        64.82009
323.42        64.87322
323.87        64.89645
324.32         64.9295
324.78        64.98542
325.23        65.07859
325.68         65.2077
326.13         65.3827
326.59        65.58462
327.04        65.84404
327.49        66.14478
327.94        66.48203
328.39         66.8428
328.85        67.19621
329.30        67.54462
329.75        67.80726
330.20        67.97066
330.66        68.03435
331.11        68.08064
331.56        68.17027
332.01         68.3343
332.46        68.56001
332.92        68.81369
333.37        69.11444
333.82        69.42858
334.27        69.76855
334.72        70.12329
335.17        70.47143
335.63        70.78467
336.08        71.09192
336.53        71.38746
336.98        71.70504
337.43        72.04903
337.88        72.41092
338.34        72.75471
338.79        73.03667
339.24        73.25359
339.69        73.44597
340.14        73.66037
340.59        73.96898
341.05        74.38757
341.50        74.88487
341.95         75.4587
342.40        76.11614
342.85        76.82975
343.30        77.58463
343.75        78.26587
344.20        78.69245
344.66        78.85637
345.11        78.81258
345.56        78.72556
346.01         78.8501
346.46         79.2518
346.91        79.85079
347.36        80.55902
347.81        81.22972
348.26        81.80336
348.72        82.32581
349.17        82.76695
349.62        83.09836
350.07        83.32433
350.52        83.44022
350.97        83.51221
351.42        83.66062
351.87        83.90675
352.32        84.21469
352.77        84.51319
353.22        84.68211
353.67        84.69393
354.13        84.61253
354.58        84.45277
355.03        84.29307
355.48        84.16626
355.93        84.06109
356.38         83.9903
356.83        83.97369
357.28        84.00695
357.73        84.07853
358.18        84.16124
358.63        84.20718
359.08        84.19366
359.53        84.12094
359.98        83.97334
360.43        83.73907
360.88        83.41503
361.33        82.99507
361.78        82.52189
362.23        82.05585
362.68        81.62109
363.13        81.23757
363.58        80.84087
364.03        80.32561
364.48        79.69191
364.93        78.97331
365.38          78.344
365.83        78.06409
366.28        78.16231
366.73        78.55119
367.18        78.95669
367.63        78.93824
368.08        78.39374
368.53        77.44877
368.98        76.40502
369.43        75.72481
369.88        75.52031
370.33        75.67555
370.78        75.92055
371.23        75.79958
371.68        75.20314
372.13        74.28074
372.58        73.34978
373.03         72.8853
373.48        72.97251
373.93         73.4396
374.38        73.94804
374.83        73.94777
375.28        73.30595
375.72        72.20349
376.17        71.00554
376.62        70.12682
377.07        69.67538
377.52        69.51719
377.97        69.50021
378.42        69.38913
378.87        69.11149
379.32        68.74995
379.77        68.39452
380.22        68.15424
380.67        68.04418
381.11        68.03042
381.56        67.97987
382.01        67.74688
382.46        67.31028
382.91        66.73026
383.36        66.16567
383.81        65.83837
384.26        65.78178
384.71        65.93064
385.15        66.10497
385.60        66.04089
386.05        65.67474
386.50        65.09663
386.95        64.49187
387.40        64.13995
387.85         64.0922
388.29        64.21601
388.74          64.404
389.19        64.36259
389.64        64.04121
390.09        63.53798
390.54        63.01019
390.98        62.64458
391.43         62.5251
391.88         62.6782
392.33        62.97145
392.78        62.91192
393.23        62.61796
393.67        62.77174
394.12        63.27971
394.57        63.34122
395.02        62.91557
395.47        62.38222
395.91        61.91312
396.36        61.61925
396.81        61.59685
397.26        61.82316
397.71         62.0882
398.15        62.14056
398.60        62.01544
399.05        61.47071
399.50        60.79326
399.95        61.01971
400.39        61.92977
400.84        61.85391
401.29        60.87838
401.74        60.48814
402.18        60.76089
402.63        60.89685
403.08         60.9076
403.53        60.68031
403.97        61.05019
404.42        61.18377
404.87        61.31079
405.32        61.32464
405.76        61.20351
406.21        61.17347
406.66        61.14016
407.11        60.65822
407.55        59.93889
408.00        59.68116
408.45        59.94051
408.90        60.39738
409.34        60.79931
409.79        60.67127
410.24          60.151
410.68        60.00218
411.13         60.2698
411.58        60.46153
412.03        60.48109
412.47        60.44508
412.92        60.31916
413.37        60.08029
413.81        59.83001
414.26        59.79144
414.71        59.96814
415.15         60.3513
415.60        60.75143
416.05        60.90352
416.49        60.74108
416.94        60.36581
417.39        59.98793
417.83        59.91122
418.28        60.20479
418.73        60.75867
419.17        61.40817
419.62        61.82638
420.07        61.91336
420.51        61.74436
420.96         61.4626
421.41        61.19534
421.85        60.97533
422.30        60.89176
422.74        60.85407
423.19        60.72557
423.64        60.53199
424.08        60.58611
424.53        60.88623
424.98        61.21287
425.42        61.54662
425.87        62.07395
426.31        62.69219
426.76        62.90484
427.21        62.79328
427.65        62.97269
428.10        63.38463
428.54        63.53201
428.99        63.45506
429.44        63.31542
429.88        63.18131
430.33        63.35487
430.77        63.64604
431.22        63.62426
431.66         63.3022
432.11        63.10017
432.56        63.10653
433.00        63.41774
433.45        63.93082
433.89        64.80985
434.34        62.98825
434.78        65.03737
435.23        64.96895
435.67        63.11399
436.12        63.40004
436.57        63.72326
437.01        65.32716
437.46        65.99168
437.90        65.62182
438.35        65.32053
438.79         65.2153
439.24        65.02195
439.68        64.77417
440.13        64.94505
440.57        65.43674
441.02        65.19707
441.46         64.4203
441.91         65.0434
442.35        66.52169
442.80        66.30666
443.24        64.77136
443.69        64.88842
444.13        66.47705
444.58        67.04952
445.02        66.50761
445.47        66.19611
445.91        66.24751
446.36        66.34538
446.80        66.50048
447.24        66.81358
447.69        67.17738
448.13        67.37712
448.58        67.40425
449.02        67.37566
449.47        67.35577
449.91        67.32162
450.36        67.31576
450.80         67.3502
451.25        67.41024
451.69        67.41582
452.13         67.3638
452.58         67.2835
453.02        67.20476
453.47        67.20056
453.91        67.27386
454.36        67.40162
454.80        67.50292
455.24        67.54746
455.69        67.54633
456.13        67.33677
456.58        66.98634
457.02        67.25166
457.46        67.13483
457.91        67.14732
458.35        66.93452
458.79        66.97883
459.24        67.19773
459.68        66.80799
460.13        65.94766
460.57        66.14429
461.01        66.09097
461.46        66.22204
461.90        66.13319
462.34        66.81024
462.79        65.97778
463.23        65.78568
463.68        65.65938
464.12        65.64256
464.56        65.71451
465.01        65.91833
465.45        66.15198
465.89        66.24596
466.34        66.16892
466.78        66.12542
467.22           66.27
467.67        65.54488
468.11        66.02242
468.55        66.02158
468.99        66.10011
469.44        66.12689
469.88        66.10481
470.32         66.0483
470.77        65.95341
471.21        65.88207
471.65        65.82172
472.10        65.75184
472.54        65.67989
472.98        65.59328
473.42        65.48147
473.87        65.52938
474.31        65.60635
474.75         65.2113
475.20        64.53622
475.64        64.41085
476.08        64.83472
476.52        64.96545
476.97        64.72002
477.41        64.86298
477.85        65.48091
478.29        64.91228
478.74        65.24142
479.18        65.71223
479.62        65.25165
480.06        65.21732
480.50        65.06536
480.95        65.08844
481.39          65.305
481.83        64.64612
482.27        64.68829
482.72        65.30863
483.16        64.91493
483.60        65.09743
484.04        65.32005
484.48        65.22517
484.93        64.76099
485.37         65.5591
485.81        66.16002
486.25        65.43837
486.69        66.50762
487.14        67.24178
487.58        64.95518
488.02        64.64317
488.46        65.96227
488.90        64.31611
489.34        65.09892
489.79        65.16763
490.23        65.43662
490.67        65.78618
491.11        65.95697
491.55        65.84886
491.99        65.48664
492.43        65.26957
492.88        65.23856
493.32        65.23669
493.76        65.23669
494.20        65.21294
494.64        65.12801
495.08        65.18145
495.52        65.36615
495.96        65.09475
496.41        64.57694
496.85        65.15784
497.29        66.48141
497.73        66.52386
498.17        65.40823
498.61        65.03609
499.05        65.50143
499.49        65.64043
499.93        65.38388
500.37        65.24672
500.82        65.20664
501.26        64.96665
501.70        64.63022
502.14        64.63491
502.58        64.92875
503.02        65.05861
503.46          64.996
503.90        65.00657
504.34          65.085
504.78        65.09866
505.22        65.03159
505.66         64.9191
506.10        64.80762
506.54        64.76026
506.98        64.73636
507.42        65.01808
507.86         64.5769
508.30         64.8021
508.74        64.53909
509.18        64.43358
509.62        64.28619
510.06        64.28116
510.50        64.43774
510.94        64.69751
511.38        64.97488
511.82         65.1046
512.26        65.05038
512.70        64.86909
513.14        64.62417
513.58        64.44131
514.02        64.35891
514.46        64.28587
514.90        64.21423
515.34        64.37563
515.78        64.37125
516.22        64.53148
516.66        64.66283
517.10        64.64494
517.54        64.46397
517.98        64.15855
518.42        63.87928
518.86        63.86104
519.30        64.14337
519.74        64.64362
520.18         65.1832
520.62        65.46829
521.06        65.42257
521.50        65.14031
521.93        64.75246
522.37        64.48624
522.81        64.40271
523.25        64.42843
523.69        64.51389
524.13        64.58227
524.57        64.60506
525.01        64.62483
525.45        64.62726
525.89        64.57813
526.32        64.47826
526.76        64.34099
527.20        64.22595
527.64        64.24051
528.08        64.39922
528.52         64.6635
528.96        64.94936
529.40        65.12296
529.83        65.13541
530.27        65.03394
530.71        64.87169
531.15        64.74306
531.59        64.67739
532.03        64.65771
532.46        64.63956
532.90         64.5554
533.34        64.40713
533.78        64.24055
534.22        64.12101
534.66        64.13773
535.09        64.28574
535.53        64.52126
535.97        64.78762
536.41         64.9495
536.85        64.95917
537.28        65.02548
537.72        65.09146
538.16        64.66798
538.60         63.9784
539.04        63.93267
539.47        64.43563
539.91        64.60895
540.35        64.40768
540.79        64.36157
541.22        64.45531
541.66        64.46423
542.10        64.39011
542.54        64.20344
542.97        63.98425
543.41        64.10693
543.85        64.47378
544.29        64.55988
544.72        64.35747
545.16        64.30464
545.60          64.396
546.04        64.39632
546.47        64.29655
546.91        64.22501
547.35        64.19354
547.79        64.14387
548.22        64.11555
548.66        64.27044
549.10        64.57304
549.53        64.90476
549.97        65.16094
550.41        65.28428
550.84        65.23969
551.28        64.96712
551.72        64.58472
552.15        64.43058
552.59        64.50202
553.03        64.46263
553.46        64.31131
553.90        64.24469
554.34        64.19942
554.77        64.53863
555.21        64.19166
555.65        64.39069
556.08        64.73879
556.52        64.90993
556.96        64.87049
557.39        64.87939
557.83         64.9713
558.27        64.92036
558.70        64.74833
559.14        64.73664
559.57         64.8261
560.01        64.65472
560.45        64.33067
560.88        64.34705
561.32        64.66712
561.75        64.88742
562.19        64.96484
562.63        64.73439
563.06        64.33138
563.50        64.53217
563.93        65.18224
564.37        65.12417
564.80        64.47837
565.24        64.51144
565.68        65.09401
566.11        65.26314
566.55        65.01035
566.98        64.68385
567.42        64.41454
567.85        64.62846
568.29        64.82015
568.72        64.85411
569.16        64.70197
569.60        64.74857
570.03        64.94672
570.47        65.21049
570.90        65.51342
571.34        65.12835
571.77        65.87938
572.21        65.46049
572.64        65.44768
573.08        65.09233
573.51        65.51688
573.95        65.33925
574.38        65.11906
574.82        64.77667
575.25        66.17927
575.69        66.45673
576.12        66.00891
576.56         64.7337
576.99        65.32359
577.42        65.88189
577.86        65.56692
578.29        65.65202
578.73        65.82727
579.16        65.92109
579.60        65.87289
580.03        65.79092
580.47         65.5433
580.90        65.87198
581.33        65.06215
581.77        65.52494
582.20        66.42223
582.64        66.45428
583.07        66.23904
583.51        65.73952
583.94        65.48648
584.37        65.26588
584.81        65.28246
585.24        65.29975
585.68        66.33315
586.11        65.74371
586.54        65.85055
586.98        65.26759
587.41        64.85799
587.85        65.67649
588.28        65.58506
588.71         65.7319
589.15        65.13581
589.58         65.6097
590.01        65.04132
590.45        64.90973
590.88        65.38796
591.31        65.66283
591.75        65.84088
592.18        65.50162
592.61        64.90648
593.05        65.24477
593.48        66.38614
593.91        66.34729
594.35        66.24011
594.78        65.62764
595.21        65.46921
595.65        65.38915
596.08        65.48838
596.51        65.70737
596.94        65.77541
597.38        65.69867
597.81        65.33835
598.24        65.88203
598.68        65.52213
599.11         64.8237
599.54        66.31032
599.97        65.65352
600.41        65.54007
600.84         65.3448
601.27        65.62755
601.70        65.51472
602.14        65.52719
602.57        65.64021
603.00         65.9425
603.43        65.81948
603.87        65.37141
604.30        65.78415
604.73        65.91981
605.16        65.98112
605.60        65.02674
606.03        65.07558
606.46        65.85691
606.89        65.33521
607.32        65.66652
607.76        64.96947
608.19        65.44229
608.62        65.49517
609.05        65.50759
609.48         65.4219
609.92        65.49638
610.35        65.03348
610.78        66.50888
611.21        66.96796
611.64        66.48996
612.07        66.26613
612.50        66.23579
612.94        66.05205
613.37        65.73683
613.80        65.87858
614.23        65.85095
614.66        65.71423
615.09        65.93448
615.52        66.01715
615.96        66.03712
616.39        66.39751
616.82        66.02607
617.25        65.74325
617.68        66.09898
618.11        65.66228
618.54        64.88346
618.97        64.83762
619.40        65.59437
619.84        65.32655
620.27        65.92317
620.70        65.98824
621.13        66.08983
621.56        65.80003
621.99        65.37296
622.42        65.38099
622.85        65.85555
623.28        65.75781
623.71        65.11994
624.14        65.83405
624.57        65.35158
625.00        64.87366
625.43        65.43627
625.86        65.45048
626.29        65.36972
626.72        65.75896
627.15         65.5608
627.58        65.66035
628.01        65.68867
628.44        65.47488
628.87         65.0987
629.30        64.98509
629.73        65.13907
630.16        65.18769
630.59        65.11919
631.02        65.14837
631.45        65.28358
631.88        65.42566
632.31        65.55862
632.74        65.70207
633.17        65.80157
633.60        65.77367
634.03        65.60907
634.46        65.33147
634.89        65.02828
635.32        64.84381
635.75        64.81427
636.18        64.90249
636.61        65.03406
637.04        65.08942
637.47        65.04032
637.89        64.91016
638.32        64.72939
638.75        64.65317
639.18        64.72133
639.61        64.62731
640.04        64.81057
640.47        64.81277
640.90        64.76443
641.33        64.67942
641.76        64.60921
642.18        64.63591
642.61        64.74825
643.04        64.92438
643.47        65.11259
643.90        65.23199
644.33        65.25352
644.76        65.20968
645.18        65.13586
645.61        65.00173
646.04        64.82171
646.47        64.75658
646.90        64.86799
647.33          64.489
647.75        64.84313
648.18        64.89861
648.61        65.03084
649.04        65.24546
649.47        65.51803
649.89        65.81202
650.32        65.98621
650.75        65.89769
651.18        65.60818
651.61        65.23627
652.03        64.96014
652.46        65.13773
652.89        65.56156
653.32        65.60341
653.74        65.49974
654.17        64.86169
654.60        64.83641
655.03        65.92585
655.46        65.10936
655.88         64.2062
656.31        66.72694
656.74        70.75285
657.16        68.84624
657.59        65.76705
658.02        65.81797
658.45        66.67889
658.87        66.45261
659.30        65.43338
659.73        65.13783
660.15        65.73919
660.58        65.57435
661.01        65.34588
661.44        64.57188
661.86        64.28476
662.29        64.48138
662.72        64.81236
663.14        65.13518
663.57        64.95305
664.00        64.43108
664.42        64.44564
664.85        64.97467
665.27        65.19012
665.70        65.04048
666.13        65.02751
666.55        65.15244
666.98        65.13652
667.41        65.01125
667.83        64.93263
668.26        64.91461
668.69        64.94656
669.11        64.97274
669.54        64.89211
669.96        64.69618
670.39        64.42673
670.82        64.22876
671.24         64.2744
671.67        64.58427
672.09        65.18228
672.52        65.88866
672.94         65.9267
673.37        65.99906
673.80        65.57713
674.22        65.09469
674.65        64.85894
675.07        64.96661
675.50        65.29572
675.92        65.69954
676.35        65.90965
676.77        65.86507
677.20        65.66284
677.62        65.40884
678.05        65.26769
678.47        65.28454
678.90        65.40144
679.32        65.56966
679.75        65.76734
680.17        65.96751
680.60        66.11098
681.02         66.1596
681.45        66.39182
681.87        66.12579
682.30        66.11044
682.72        66.13658
683.15        65.91502
683.57        65.55847
684.00        65.59978
684.42        65.96229
684.85        66.08058
685.27        65.91634
685.70        65.70163
686.12        65.49831
686.54        65.56331
686.97        65.82953
687.39         65.7904
687.82        65.41226
688.24        65.57126
688.66        65.43863
689.09        65.44595
689.51        65.35949
689.94        65.40752
690.36        65.61571
690.78        65.78828
691.21        65.81394
691.63        66.42262
692.06        65.92278
692.48        66.14486
692.90        66.51009
693.33        66.63439
693.75        66.49818
694.17        66.23248
694.60        65.94669
695.02        66.22871
695.44        66.16031
695.87        66.56181
696.29        66.98332
696.71        66.89225
697.14        66.33959
697.56        65.93362
697.98        65.80027
698.41        65.67547
698.83        65.56812
699.25        65.71513
699.68        66.00999
700.10        66.21731
700.52        66.26108
700.94        66.21582
701.37        66.13284
701.79         66.1189
702.21        66.18769
702.64        66.29787
703.06        66.40292
703.48        66.44402
703.90        66.41187
704.33        66.33367
704.75        66.25235
705.17        66.21729
705.59        66.24632
706.01        66.32192
706.44        66.43938
706.86        66.58453
707.28        66.71964
707.70        66.90601
708.12        67.13753
708.55        67.06192
708.97        67.19652
709.39        67.14156
709.81        67.06667
710.23        66.98766
710.66         66.9268
711.08        66.89065
711.50        66.87605
711.92        66.91014
712.34         66.9906
712.76        67.10601
713.19        67.21426
713.61        67.30177
714.03        67.32734
714.45        67.29667
714.87        67.22285
715.29        67.12734
715.71        67.01883
716.13        66.89723
716.56        66.75102
716.98        66.63184
717.40        66.53459
717.82        66.46906
718.24        66.44707
718.66         66.4839
719.08        66.57124
719.50        66.68297
719.92        66.81065
720.34        66.94212
720.76        67.06886
721.19        67.18846
721.61        67.25457
722.03        67.19242
722.45        67.03094
722.87        66.64324
723.29        66.16496
723.71        66.25938
724.13        66.97578
724.55        66.67567
724.97        67.31833
725.39        67.37623
725.81        67.42535
726.23        67.26592
726.65        67.02064
727.07        66.94136
727.49        67.05659
727.91        67.30963
728.33         67.6096
728.75         67.8073
729.17        67.85625
729.59         67.8065
730.01        67.72842
730.43        67.72781
730.85        67.82967
731.27        67.99011
731.69        68.14999
732.10        68.22844
732.52          68.201
732.94        68.09924
733.36        67.95953
733.78         67.8388
734.20        67.76765
734.62        67.74387
735.04        67.75316
735.46        67.76955
735.88        67.77637
736.30        67.77589
736.72        67.80244
737.13        67.86562
737.55        67.91289
737.97        68.13244
738.39        68.42236
738.81         68.1676
739.23        67.55003
739.65        67.66822
740.06        68.35921
740.48        68.50005
740.90        68.03062
741.32        67.59642
741.74        67.34959
742.16        67.24632
742.57        67.34865
742.99         67.6403
743.41        68.04495
743.83        68.42087
744.25        68.71026
744.67        68.92816
745.08        69.08164
745.50        69.14234
745.92        69.13137
746.34        69.04626
746.75        68.90309
747.17        68.74581
747.59        68.58347
748.01        68.42574
748.42        68.30801
748.84        68.20274
749.26        68.10624
749.68        68.21951
750.09        68.47112
750.51        68.30007
750.93        67.90608
751.35        68.32911
751.76        69.39989
752.18        69.82405
752.60        69.49217
753.01        69.12691
753.43        68.89661
753.85        68.70231
754.27        68.57584
754.68        68.91375
755.10        68.92599
755.52        69.10194
755.93        69.22297
756.35        69.38171
756.77        69.48488
757.18        69.54542
757.60        69.62222
758.02        69.18407
758.43         68.5299
758.85        69.32224
759.26        71.26723
759.68        71.06341
760.10        70.36871
760.51        69.48023
760.93        69.19571
761.34        69.26727
761.76        69.59557
762.18        69.55496
762.59        69.18764
763.01        69.22653
763.42        69.66621
763.84        69.82404
764.26        69.66448
764.67        69.19844
765.09        68.69164
765.50        68.79886
765.92        69.40479
766.33        69.47554
766.75        69.01762
767.16        69.07207
767.58        69.61952
768.00        70.10614
768.41        70.42834
768.83        70.56089
769.24        70.48053
769.66        70.30099
770.07        70.03342
770.49        69.57541
770.90        69.04031
771.32        68.89361
771.73         69.1557
772.15        69.38619
772.56        69.57806
772.97         69.9761
773.39        70.46023
773.80        70.77185
774.22         70.8151
774.63        70.69431
775.05        70.45947
775.46        70.26492
775.88        70.14587
776.29        70.07787
776.70        70.06683
777.12        70.13398
777.53        70.28734
777.95        70.50371
778.36        70.71967
778.77        70.78693
779.19        70.69183
779.60        70.49097
780.02        70.26306
780.43        70.18333
780.84         70.3067
781.26        70.42782
781.67        70.58487
782.09        71.07127
782.50        71.70734
782.91        71.81949
783.33        71.43527
783.74        71.27641
784.15        71.35899
784.57        71.28378
784.98        71.07276
785.39        70.94672
785.81        70.92957
786.22        70.98147
786.63        71.06343
787.04        71.09972
787.46        71.09453
787.87         71.0396
788.28        71.01851
788.70        71.14279
789.11         71.3979
789.52        71.74696
789.93        72.08655
790.35        72.23758
790.76        72.19598
791.17        72.02872
791.58        71.80518
792.00        71.66769
792.41        71.69534
792.82        71.67272
793.23        71.66924
793.65        72.17008
794.06        72.99574
794.47        73.20667
794.88        72.79909
795.29        72.55503
795.71        72.45153
796.12         72.0405
796.53        71.44829
796.94        71.22415
797.35        71.43871
797.76        71.86918
798.18        72.30764
798.59        72.55432
799.00        72.49983
799.41        72.18534
799.82        71.80641
800.23        71.70251
800.64        71.94783
801.06        72.39648
801.47        72.94144
801.88        73.27353
802.29        73.28719
802.70        73.06569
803.11        72.72446
803.52        72.44215
803.93        72.29047
804.34         72.2352
804.75        72.21968
805.17        72.15854
805.58        72.06036
805.99        71.89651
806.40        71.77236
806.81        71.93839
807.22        72.34888
807.63        72.74215
808.04        72.99923
808.45         73.0639
808.86        72.88521
809.27        72.42973
809.68        71.86304
810.09        71.53419
810.50        71.53686
810.91        71.77214
811.32         72.1229
811.73        72.38533
812.14         72.4861
812.55         72.4952
812.96        72.43617
813.37        72.34582
813.78        72.25599
814.19        72.14718
814.60        72.06521
815.01        72.09004
815.42        72.23446
815.83        72.48723
816.24        72.79005
816.65          73.013
817.05        73.10716
817.46        73.06467
817.87        72.96488
818.28        72.88284
818.69        72.84517
819.10        72.82978
819.51        72.82592
819.92        72.82049
820.33        72.80058
820.74        72.76197
821.14        72.71172
821.55        72.67396
821.96        72.64155
822.37        72.63364
822.78        72.59427
823.19        72.42559
823.60        72.13246
824.00        71.77203
824.41        71.47867
824.82        71.55203
825.23        72.03899
825.64        72.83697
826.04        73.75533
826.45        74.36208
826.86         74.5575
827.27        74.45018
827.68        74.13877
828.08        73.82808
828.49        73.56457
828.90        73.30752
829.31        73.14275
829.72        73.21089
830.12        73.55563
830.53        74.10985
830.94        74.69096
831.35        74.90832
831.75        74.67578
832.16         74.0318
832.57        73.27141
832.97        72.85059
833.38        72.88477
833.79        73.24619
834.20        73.68026
834.60         73.7767
835.01        73.46822
835.42        72.90234
835.82        72.32905
836.23        72.09542
836.64        72.31445
837.04        72.88858
837.45        73.58202
837.86        74.11905
838.26        74.38863
838.67         74.4165
839.08        74.28164
839.48        74.09062
839.89        73.88898
840.29        73.62133
840.70        73.31911
841.11        72.97044
841.51        72.61378
841.92          72.301
842.33        72.05594
842.73        71.90907
843.14        71.83423
843.54        71.82364
843.95        71.97474
844.35        72.48778
844.76         73.3126
845.17        74.38579
845.57        75.40469
845.98        75.70613
846.38        75.20354
846.79        74.10555
847.19        72.81248
847.60        71.97211
848.00        71.74938
848.41        71.94402
848.81        72.44348
849.22        72.93835
849.62          73.346
850.03        73.68981
850.43        73.92656
850.84        73.84666
851.24        73.48366
851.65        72.86122
852.05         72.1588
852.46        71.68861
852.86        71.51374
853.27        71.57633
853.67        71.78009
854.07        72.17752
854.48        72.67699
854.88        73.35844
855.29        73.89032
855.69        73.87782
856.10        73.13152
856.50        71.87977
856.90        70.56348
857.31        69.87511
857.71        70.00764
858.12        70.73265
858.52        71.83472
858.92        72.68781
859.33        73.03246
859.73         73.0672
860.13         72.8775
860.54        72.64197
860.94        72.47219
861.34        72.26081
861.75         72.0092
862.15        71.85196
862.55        71.76943
862.96        71.78226
863.36        71.82291
863.76        71.75854
864.17        71.56202
864.57        71.31347
864.97        71.05586
865.38        70.84824
865.78        70.74722
866.18        70.67451
866.58        70.68975
866.99        70.89496
867.39        71.29549
867.79        71.83884
868.19        72.27719
868.60        72.20659
869.00        71.58205
869.40        70.53315
869.80        69.41538
870.21        68.86028
870.61        69.06342
871.01        69.79819
871.41        70.72868
871.81        71.35321
872.22        71.51627
872.62        71.41133
873.02        71.18749
873.42        71.12261
873.82        71.31231
874.22        71.62643
874.63        72.01363
875.03         72.3899
875.43        72.72584
875.83        73.04506
876.23        73.29223
876.63        73.34886
877.03        73.21858
877.44        72.98298
877.84        72.68352
878.24        72.42516
878.64        72.23516
879.04        72.02404
879.44        71.92332
879.84        72.12444
880.24        72.61288
880.64        73.37674
881.04        73.96742
881.44        73.60296
881.84        72.20442
882.24        70.10626
882.65        68.13238
883.05        67.34763
883.45        67.98886
883.85        69.75192
884.25        71.98545
884.65        73.46882
885.05        73.77125
885.45        73.21511
885.85        72.32302
886.25        71.91538
886.65        72.19919
887.05        72.87838
887.45         73.6042
887.85        73.83743
888.25        73.43862
888.65        72.65483
889.04        71.76009
889.44        71.16587
889.84        70.98141
890.24        71.09579
890.64        71.37861
891.04        71.63004
891.44        71.77026
891.84        71.84325
892.24        71.94301
892.64        72.19974
893.04        72.64459
893.44        73.25536
893.83        73.86288
894.23         74.1096
894.63        73.95629
895.03        73.44713
895.43        72.95152
895.83        73.05913
896.23        73.84766
896.63        75.13197
897.02        76.32533
897.42        76.47536
897.82        75.43595
898.22        73.57796
898.62        71.60301
899.01        70.47974
899.41        70.44015
899.81        71.22059
900.21        72.37189
900.61         73.0331
901.00        72.90117
901.40        72.30384
901.80          71.663
902.20        71.57262
902.59        72.18023
902.99        73.23222
903.39        74.40376
903.79        75.01281
904.18        74.81731
904.58        74.09177
904.98        73.23268
905.38        72.76709
905.77        72.80315
906.17        73.19392
906.57        73.73425
906.96        74.13167
907.36        74.22959
907.76         74.1353
908.15        73.96384
908.55         73.8175
908.95        73.76516
909.34        73.73907
909.74        73.67521
910.14          73.442
910.53         73.0395
910.93        72.58134
911.33        72.18908
911.72        72.06117
912.12        72.23934
912.52        72.62778
912.91        73.18773
913.31        73.83241
913.70         74.5175
914.10        75.19526
914.49        75.72607
914.89        75.79881
915.29        75.39814
915.68        74.62997
916.08        73.76512
916.47        73.18737
916.87         73.0397
917.26        73.16937
917.66        73.50217
918.05        73.89897
918.45        74.25347
918.84        74.66008
919.24        74.90204
919.64        74.73318
920.03        74.13246
920.42        73.17402
920.82        72.22412
921.21        71.66371
921.61        71.57631
922.00         71.9093
922.40        72.40958
922.79        72.73608
923.19        72.72886
923.58        72.49693
923.98        72.27118
924.37        72.36093
924.77        72.82872
925.16        73.58292
925.55        74.35427
925.95        74.66525
926.34        74.42841
926.74        73.77312
927.13         72.9874
927.52        72.50061
927.92        72.42227
928.31        72.62003
928.70        72.92909
929.10        73.05209
929.49        72.92967
929.89        72.68749
930.28        72.44832
930.67        72.35466
931.07         72.4464
931.46        72.66306
931.85        73.02802
932.24        73.61966
932.64        74.37798
933.03        75.32944
933.42        76.20673
933.82        76.59163
934.21        76.42709
934.60        75.81723
934.99        75.08677
935.39        74.71432
935.78        74.80503
936.17        75.20015
936.56        75.70104
936.96        75.97035
937.35         75.9415
937.74        75.72473
938.13        75.30948
938.53        74.66383
938.92        73.84679
939.31        72.95766
939.70        72.26547
940.09        72.19653
940.49        72.75341
940.88        73.78159
941.27         75.0551
941.66        76.16232
942.05         76.8662
942.44        77.27503
942.84        77.09266
943.23        75.87726
943.62        73.79714
944.01        71.20119
944.40        68.91959
944.79         67.9886
945.18        68.53054
945.57        70.28481
945.97        72.62124
946.36        74.48414
946.75         75.2317
947.14        75.14052
947.53        74.57421
947.92        74.19661
948.31        74.21221
948.70        74.30067
949.09        74.44116
949.48        74.65093
949.87        74.88927
950.26        75.28965
950.65         75.5282
951.04        75.01941
951.43        73.74821
951.82        71.92032
952.21        70.23825
952.60        69.77935
952.99        70.70892
953.38        72.66949
953.77        74.88507
954.16        76.00716
954.55        75.62163
954.94        74.11675
955.33        72.09363
955.72        70.55534
956.11        69.86728
956.50        69.78698
956.89        70.08443
957.28        70.37241
957.66        70.53206
958.05        70.70995
958.44           71.06
958.83        71.77937
959.22        72.85741
959.61         74.0981
960.00        75.23183
960.39        75.84931
960.78         75.8118
961.16         75.2635
961.55        74.32228
961.94        73.16877
962.33        71.94716
962.72        70.65917
963.11        69.57537
963.49        69.13261
963.88        69.36115
964.27        70.19286
964.66        71.23649
965.04        71.82259
965.43        71.70116
965.82        71.05438
966.21        70.22198
966.60        69.80051
966.98        69.97679
967.37        70.55145
967.76        71.26372
968.15        71.67201
968.53        71.67691
968.92        71.39354
969.31        71.08828
969.69        71.17321
970.08        71.70908
970.47        72.53608
970.86        73.41471
971.24        73.98191
971.63        74.13769
972.02        74.07138
972.40        73.90366
972.79        73.77617
973.17        73.84397
973.56        73.95546
973.95         74.3171
974.33        75.28597
974.72        76.78849
975.11        78.77676
975.49        80.81007
975.88        81.77127
976.26        81.33073
976.65        79.76436
977.04        77.61745
977.42        75.61632
977.81          74.039
978.19        72.66262
978.58         71.5918
978.96        70.78826
979.35        70.22887
979.74        69.91798
980.12         69.7479
980.51        69.36172
980.89        68.78528
981.28        68.14487
981.66        67.55773
982.05        67.17488
982.43        67.10518
982.82        67.20107
983.20        67.77383
983.59        69.34281
983.97         72.0003
984.35        75.62852
984.74        79.10081
985.12        80.57819
985.51        79.39201
985.89        76.25511
986.28        72.66325
986.66        70.40483
987.04        69.98616
987.43        70.79107
987.81        72.38895
988.20        73.72189
988.58        74.39332
988.96        74.79388
989.35        74.69598
989.73        73.83276
990.12        72.28338
990.50         70.0723
990.88        68.07328
991.27        67.62412
991.65        68.98095
992.03        71.97652
992.42        75.42902
992.80         77.0928
993.18        75.95073
993.56        72.92456
993.95        69.69685
994.33        67.90631
994.71        67.97876
995.10        69.27944
995.48        71.33607
995.86        72.66045
996.24        72.58008
996.63        71.68578
997.01        70.54002
997.39        69.81468
997.77        69.72411
998.15        69.96761
998.54        70.53291
998.92        71.51158
999.30        72.82632
999.68        74.49914
1000.06        76.09058
1000.45        76.74078
1000.83        76.38659
1001.21        75.17281
1001.59        73.68682
1001.97        72.75309
1002.35        72.56998
1002.73        72.97868
1003.12        73.68736
1003.50        74.29655
1003.88        74.57274
1004.26        74.63049
1004.64        74.68223
1005.02         75.0821
1005.40         75.8227
1005.78        76.62385
1006.16        77.14355
1006.54        76.84303
1006.92        75.58783
1007.30         73.6647
1007.69         71.1706
1008.07        68.57559
1008.45        66.34219
1008.83        64.48394
1009.21        63.50533
1009.59        63.90563
1009.97         65.6566
1010.35        68.87603
1010.73        72.60916
1011.11         74.4223
1011.49        73.25367
1011.86        69.40571
1012.24        65.18584
1012.62          64.202
1013.00        67.49958
1013.38        74.82313
1013.76        83.72829
1014.14        87.32085
1014.52        83.47813
1014.90        75.77113
1015.28        68.53282
1015.66        65.55113
1016.04        67.02803
1016.41        72.06522
1016.79        79.53166
1017.17        86.59171
1017.55        90.82811
1017.93        92.78802
1018.31        91.74541
1018.69        87.42991
1019.06         81.1412
1019.44        74.20214
1019.82        68.74023
1020.20        66.45773
1020.58        67.02914
1020.95        70.24728
1021.33        74.77809
1021.71          77.074
1022.09         75.5488
1022.46        70.89117
1022.84        66.05463
1023.22        64.75684
1023.60        67.94266
1023.97        75.82714
1024.35        85.65629
1024.73        88.02546
