SpectraSmart Spectrum 2.9.0.0
--------- Device Information -----------
Spectrum Name :  反射率_0
Saving Time :  2024/05/03 20:14:18
Spectro-Module Model Name : SE2030-DUVN
Spectro-Module Serial Number : OS361AC55029948
Wavelength Start : 200
Wavelength End : 1025
Wavelength Unit : Wavelength(nm)
Spectrum Unit : Reflectance(%)
-----------Spectrum Setting ------------
Integration Time : 20ms
Average : 10
Boxcar : 0
Background removal :  enabled
linearity correction :  enabled
SC :  disabled
Intensity correction :  disabled
DWT denoise :  enabled
savitzky-golay :  disabled
FFT :  disabled
Running average :  disabled
Kalman :  disabled
High pass :  disabled
---------------BEGIN--------------------
Wavelength(nm)             Reflectance(%)
200.29               0
200.75         -48.853
201.21       -96.71812
201.67        3231.494
202.13        130.5693
202.58        90.26556
203.04        81.89058
203.50        83.05765
203.96        91.39075
204.42        112.1786
204.88        191.9595
205.34       -2684.158
205.80       -210.7789
206.26       -230.5165
206.72       -58088.34
207.18        225.5011
207.64        155.3606
208.10          162.45
208.55        259.1738
209.01        1239.532
209.47        1557.028
209.93        245.9737
210.39        117.9004
210.85        85.66142
211.31        80.18067
211.77        88.77451
212.23         119.746
212.69         202.193
213.14        251.0918
213.60        134.7829
214.06        62.47128
214.52        36.44345
214.98        32.86168
215.44        46.82914
215.90        116.4283
216.36       -897.7995
216.81       -190.2964
217.27       -189.5014
217.73       -305.7821
218.19       -1032.052
218.65       -19974.52
219.11       -1453.945
219.57       -399.4009
220.02       -239.2894
220.48       -399.8874
220.94         440.675
221.40         133.071
221.86         88.7831
222.32        78.47295
222.77        80.36281
223.23        92.33824
223.69        113.6986
224.15        125.7484
224.61        115.1031
225.06        96.02985
225.52         83.6701
225.98         83.5861
226.44         94.4014
226.90        114.5639
227.36        140.2975
227.81        155.1951
228.27        149.4575
228.73        132.4055
229.19        113.6367
229.65        100.0984
230.10        91.82925
230.56        86.90774
231.02        84.21117
231.48        83.15919
231.93        83.21564
232.39        84.65762
232.85        86.81359
233.31        88.87884
233.77        90.61806
234.22        91.90211
234.68        93.30892
235.14        95.91551
235.60         99.9611
236.05        105.5627
236.51        110.8145
236.97        112.2628
237.43        109.1864
237.88        102.9393
238.34        97.13805
238.80        96.42011
239.26        102.6288
239.71        118.5655
240.17        148.0195
240.63        181.2023
241.08         197.235
241.54        185.7633
242.00        163.5862
242.46        154.5841
242.91        164.4053
243.37        193.7736
243.83        250.8378
244.28        313.9611
244.74        319.8987
245.20        272.2337
245.66        209.9249
246.11        166.1752
246.57        143.1769
247.03        129.1513
247.48         120.986
247.94        116.1122
248.40        112.4564
248.85        111.0467
249.31         109.658
249.77        103.8047
250.22        95.27571
250.68        87.82073
251.14        84.25895
251.59        87.69072
252.05         99.5338
252.51        122.0224
252.96        158.6879
253.42        199.5453
253.88        224.3585
254.33        227.9606
254.79        215.0044
255.25        193.6912
255.70         172.846
256.16        157.1979
256.62        146.9302
257.07        142.0166
257.53        141.4583
257.99        142.5424
258.44        143.7808
258.90        144.6892
259.35        144.1411
259.81        143.5619
260.27        142.0486
260.72        138.7496
261.18        135.0124
261.63        130.7174
262.09        127.4036
262.55        125.6604
263.00        125.0418
263.46        125.2016
263.91        125.1884
264.37        124.4063
264.83        122.6153
265.28        120.1781
265.74        117.4378
266.19        114.1875
266.65        110.8321
267.11        107.2811
267.56        104.0251
268.02        101.9774
268.47        101.0784
268.93        101.1343
269.38        101.3861
269.84        100.5615
270.30        98.45618
270.75        95.49734
271.21         92.5966
271.66        90.85107
272.12        90.44067
272.57        90.80189
273.03        91.31451
273.48        91.00168
273.94        89.66243
274.39        87.70671
274.85        85.41035
275.31        82.93265
275.76        80.43678
276.22        78.02034
276.67        76.00529
277.13        75.12331
277.58        75.19019
278.04        76.00661
278.49        76.75968
278.95        76.28414
279.40        74.35232
279.86        71.63902
280.31        68.76572
280.77        66.78139
281.22        65.67621
281.68        65.20937
282.13        64.98334
282.59        64.60339
283.04          63.897
283.50        63.09452
283.95        62.27089
284.41        61.63111
284.86        61.16081
285.32        60.83195
285.77        60.52822
286.22          60.217
286.68        59.90666
287.13        59.55342
287.59        59.25246
288.04        58.99916
288.50         58.8374
288.95        58.70413
289.41        58.56573
289.86        58.28714
290.32        57.91006
290.77        57.45388
291.22        57.06187
291.68         56.9026
292.13        56.99757
292.59        57.36746
293.04         57.9273
293.50         58.5532
293.95        59.19286
294.40        59.86689
294.86        60.72371
295.31        61.96515
295.77        63.61917
296.22        65.57861
296.68        67.57472
297.13        69.15783
297.58        70.18597
298.04        70.84225
298.49        71.32265
298.95        72.04044
299.40        73.07482
299.85        74.32854
300.31        75.79741
300.76        77.40556
301.21        79.12009
301.67        80.98901
302.12        82.80795
302.58        84.31818
303.03        85.42798
303.48         86.2195
303.94        87.01602
304.39        88.17881
304.84        89.82668
305.30        91.83037
305.75        93.85316
306.20        95.43515
306.66        96.50858
307.11        97.18861
307.57        97.77392
308.02        98.52921
308.47        99.58704
308.93        100.8341
309.38        102.1476
309.83        103.4689
310.29        104.7426
310.74        105.9668
311.19        107.0527
311.65        107.8306
312.10        108.2565
312.55        108.3867
313.00        108.3725
313.46        108.4747
313.91        108.7374
314.36        109.1449
314.82        109.6424
315.27        110.0933
315.72        110.4785
316.18        110.8463
316.63        111.2383
317.08        111.7391
317.53        112.3556
317.99         113.019
318.44        113.6804
318.89        114.1996
319.35        114.5335
319.80        114.7262
320.25        114.8208
320.70        114.9133
321.16        115.0207
321.61        115.1391
322.06        115.2587
322.51        115.3712
322.97        115.4619
323.42         115.578
323.87        115.6785
324.32        115.7067
324.78        115.6504
325.23        115.5743
325.68        115.5419
326.13        115.6807
326.59        115.9879
327.04        116.4746
327.49        117.0525
327.94        117.6178
328.39        118.1125
328.85        118.5027
329.30        118.8355
329.75         119.032
330.20        119.0942
330.66        119.0145
331.11        118.9053
331.56         118.821
332.01        118.8134
332.46        118.8891
332.92        119.0497
333.37        119.4234
333.82        119.9666
334.27        120.6489
334.72        121.3866
335.17        122.0368
335.63        122.5058
336.08        122.8736
336.53        123.1083
336.98         123.238
337.43        123.2971
337.88        123.2963
338.34        123.2947
338.79        123.4169
339.24        123.6888
339.69        124.1055
340.14        124.6297
340.59        125.1838
341.05         125.727
341.50        126.2728
341.95        126.8169
342.40        127.3748
342.85        127.9389
343.30        128.4862
343.75         128.966
344.20        129.3108
344.66        129.5333
345.11        129.6413
345.56        129.7176
346.01        129.8797
346.46         130.157
346.91        130.5119
347.36        130.8982
347.81        131.2368
348.26        131.5023
348.72        131.7328
349.17        131.9027
349.62        132.0019
350.07        132.0349
350.52        131.9903
350.97        131.9249
351.42         131.942
351.87        132.0371
352.32        132.1507
352.77        132.1789
353.22        131.9588
353.67        131.4643
354.13         130.806
354.58        130.0032
355.03        129.1609
355.48        128.3531
355.93        127.5958
356.38         126.978
356.83        126.6336
357.28        126.5573
357.73        126.6615
358.18        126.8343
358.63        126.8919
359.08        126.7465
359.53        126.4289
359.98        125.8564
360.43        124.9254
360.88        123.6591
361.33        122.1015
361.78        120.5014
362.23        119.2343
362.68        118.3857
363.13        117.8879
363.58         117.481
364.03         116.733
364.48        115.5588
364.93        114.0937
365.38        112.6456
365.83        111.6802
366.28        111.2835
366.73        111.2939
367.18        111.3737
367.63        110.9926
368.08        110.0231
368.53        108.6339
368.98        107.1539
369.43        106.0717
369.88        105.4983
370.33          105.29
370.78         105.164
371.23        104.6583
371.68        103.6686
372.13         102.365
372.58        101.0538
373.03         100.181
373.48        99.82899
373.93        99.82939
374.38        99.90543
374.83         99.6183
375.28        98.84971
375.72        97.72555
376.17        96.52218
376.62        95.48719
377.07        94.69304
377.52        94.05694
377.97        93.50352
378.42        92.93611
378.87        92.33657
379.32        91.75149
379.77        91.23943
380.22        90.85786
380.67        90.59493
381.11        90.43143
381.56         90.2221
382.01         89.8199
382.46         89.2073
382.91        88.44652
383.36        87.68693
383.81        87.13584
384.26        86.82913
384.71        86.71123
385.15        86.63934
385.60        86.41498
386.05        85.97964
386.50        85.38901
386.95        84.78313
387.40        84.37202
387.85        84.18906
388.29        84.12222
388.74        84.08121
389.19        83.75156
389.64        83.08914
390.09        82.19263
390.54        81.28944
390.98         80.6616
391.43        80.41973
391.88        80.60041
392.33        80.96656
392.78        80.75424
393.23        80.10495
393.67        80.00459
394.12        80.41082
394.57        80.25665
395.02        79.59661
395.47        79.25856
395.91        79.25806
396.36         79.0438
396.81        78.64952
397.26        78.38039
397.71        78.17669
398.15        77.91019
398.60        77.68675
399.05        77.17159
399.50        76.56454
399.95        76.88279
400.39        77.84629
400.84         77.5518
401.29        76.19328
401.74        75.73545
402.18        76.22299
402.63         76.3494
403.08         76.1347
403.53        75.72446
403.97        76.18092
404.42        76.30619
404.87         76.3486
405.32        76.26009
405.76        76.02242
406.21        75.72394
406.66        75.37897
407.11        74.99356
407.55        74.67149
408.00        74.44955
408.45        74.35112
408.90         74.5471
409.34        74.83283
409.79        74.51049
410.24        73.76907
410.68        73.49865
411.13        73.75462
411.58        74.05538
412.03        74.19987
412.47        74.08604
412.92        73.64428
413.37        72.94579
413.81        72.24663
414.26        71.98994
414.71        72.20748
415.15        72.82752
415.60        73.52405
416.05        73.80286
416.49        73.52104
416.94        72.85584
417.39        72.12603
417.83         71.7842
418.28        71.94419
418.73        72.45757
419.17        73.10313
419.62         73.4526
420.07        73.37451
420.51        72.97596
420.96        72.49048
421.41        72.08437
421.85        71.77973
422.30        71.85978
422.74        72.08321
423.19        71.61511
423.64        70.69121
424.08        70.83169
424.53        71.90572
424.98        72.41693
425.42        72.24764
425.87        72.27563
426.31        72.58368
426.76         72.6713
427.21        72.64709
427.65        73.02528
428.10        73.59029
428.54        73.74868
428.99        73.51035
429.44        72.92778
429.88        72.24859
430.33        72.32363
430.77        72.85925
431.22         72.8469
431.66        72.26081
432.11        71.80026
432.56        71.59986
433.00          71.767
433.45        72.16119
433.89        72.95629
434.34        70.85759
434.78        72.99168
435.23        73.21632
435.67         71.8389
436.12        71.37394
436.57        71.51958
437.01        73.11332
437.46        73.77709
437.90        73.46898
438.35        72.78108
438.79        73.06754
439.24        72.78942
439.68        72.34631
440.13        72.15366
440.57        72.26923
441.02        72.04931
441.46        71.57935
441.91        72.35533
442.35        73.73952
442.80        73.21947
443.24        71.26665
443.69        71.21665
444.13        72.88315
444.58        73.38861
445.02        72.62807
445.47        72.23503
445.91        72.34056
446.36        72.43109
446.80        72.49114
447.24        72.84902
447.69         73.0938
448.13        73.15721
448.58        73.12489
449.02        72.86799
449.47         72.5707
449.91        72.39959
450.36        72.42005
450.80        72.53902
451.25        72.70567
451.69         72.8084
452.13        72.82135
452.58        72.79122
453.02        72.71452
453.47        72.61432
453.91        72.49137
454.36        72.33696
454.80        72.17664
455.24        72.09756
455.69        72.12602
456.13        72.18741
456.58        72.21488
457.02        72.31534
457.46        71.94053
457.91         71.7877
458.35        71.64957
458.79         71.6184
459.24        71.62497
459.68        71.16559
460.13        70.39385
460.57        70.16457
461.01        70.65649
461.46         70.1874
461.90        70.46773
462.34         71.2411
462.79        69.77118
463.23        69.60494
463.68        69.79407
464.12        69.89677
464.56        69.80383
465.01        69.80083
465.45        69.87467
465.89        69.81006
466.34        69.60593
466.78        69.71929
467.22        70.23631
467.67        69.14352
468.11        69.39883
468.55        69.31466
468.99        69.66599
469.44           69.74
469.88        69.52968
470.32        69.36506
470.77        69.26082
471.21        69.18171
471.65        69.11277
472.10        69.05427
472.54        69.01658
472.98        68.96648
473.42        68.87857
473.87        69.00905
474.31        69.17712
474.75        68.63077
475.20          67.651
475.64        67.50082
476.08        68.09489
476.52        68.24194
476.97        67.86472
477.41        67.86934
477.85        67.85931
478.29        68.23013
478.74        67.91296
479.18        68.75159
479.62        68.42162
480.06        68.48763
480.50          68.267
480.95        68.23496
481.39          68.492
481.83        67.37252
482.27        67.62323
482.72        68.00283
483.16        67.62937
483.60        67.73946
484.04        67.94827
484.48        67.85414
484.93        67.44052
485.37        68.20635
485.81        68.86211
486.25        67.93086
486.69        70.16625
487.14        70.05263
487.58        67.30795
488.02        67.42991
488.46        68.59681
488.90        67.25954
489.34         67.4494
489.79        67.32714
490.23        67.80235
490.67        68.05267
491.11         67.9323
491.55        67.69487
491.99        67.39518
492.43        67.22882
492.88        67.22812
493.32        67.32639
493.76        67.46947
494.20        67.54992
494.64        67.51594
495.08        67.59007
495.52        67.75209
495.96        67.39809
496.41        66.74635
496.85        67.14371
497.29        68.29103
497.73        68.25281
498.17        67.13856
498.61        66.83784
499.05        67.40278
499.49        67.41161
499.93        66.86108
500.37        66.84481
500.82        67.30486
501.26        66.91093
501.70        66.42812
502.14         66.5424
502.58        66.69324
503.02        66.85168
503.46        66.77699
503.90        66.81668
504.34         66.9285
504.78        66.92465
505.22        66.80169
505.66        66.59014
506.10        66.32874
506.54        66.22752
506.98        66.33929
507.42        66.34404
507.86        66.10667
508.30        66.85201
508.74        66.21687
509.18        66.11629
509.62        65.93946
510.06        65.88502
510.50        65.96564
510.94        66.15865
511.38        66.38046
511.82        66.43181
512.26        66.28004
512.70         65.9896
513.14        65.67048
513.58        65.49434
514.02        65.49938
514.46        65.62193
514.90        65.78808
515.34        65.87601
515.78        65.85211
516.22         65.7749
516.66        65.65981
517.10         65.5267
517.54        65.39829
517.98        65.25836
518.42        65.18027
518.86        65.28599
519.30        65.58016
519.74        66.02021
520.18        66.45959
520.62        66.65571
521.06        66.55357
521.50        66.22687
521.93        65.81345
522.37        65.55521
522.81        65.51104
523.25        65.60905
523.69        65.77082
524.13        65.86923
524.57        65.86771
525.01        65.82245
525.45        65.75626
525.89        65.69827
526.32        65.66274
526.76        65.63642
527.20        65.64288
527.64        65.75047
528.08        65.95944
528.52        66.19721
528.96        66.39543
529.40         66.5601
529.83        66.60069
530.27        66.30953
530.71        65.81657
531.15        65.55741
531.59        65.58778
532.03        65.71543
532.46        65.84821
532.90        65.90561
533.34        65.85867
533.78        65.75124
534.22        65.64701
534.66         65.6359
535.09        65.71856
535.53        65.85192
535.97        65.99982
536.41        66.06213
536.85        66.00459
537.28        66.03787
537.72        66.09447
538.16        65.65611
538.60        64.94373
539.04         64.8881
539.47        65.39742
539.91        65.58707
540.35        65.41164
540.79        65.40313
541.22        65.53807
541.66        65.57781
542.10        65.52008
542.54        65.33516
542.97        65.11147
543.41        65.24181
543.85        65.62811
544.29        65.73185
544.72        65.53357
545.16        65.46188
545.60        65.50922
546.04        65.44427
546.47        65.27367
546.91        65.15179
547.35        65.10039
547.79        65.05483
548.22        65.04128
548.66        65.21143
549.10        65.51333
549.53        65.80315
549.97        66.00259
550.41        66.09675
550.84        66.05412
551.28        65.86016
551.72        65.56223
552.15          65.262
552.59        65.03462
553.03        64.84187
553.46        64.69729
553.90         64.6997
554.34        64.81128
554.77         64.9342
555.21        65.06082
555.65        65.21931
556.08        65.36984
556.52        65.52393
556.96        65.62539
557.39        65.51962
557.83          65.304
558.27        65.23307
558.70        65.30854
559.14         65.4142
559.57        65.47662
560.01        65.37269
560.45         65.1654
560.88         65.1852
561.32        65.41439
561.75        65.47096
562.19         65.4019
562.63        65.30669
563.06        65.22659
563.50        65.52123
563.93        66.01897
564.37         65.7822
564.80         64.9972
565.24        65.01181
565.68        65.68221
566.11        65.71622
566.55        65.45934
566.98        65.04082
567.42        64.73099
567.85         65.0435
568.29        65.41399
568.72        65.49083
569.16        65.24844
569.60        65.24212
570.03        65.33054
570.47        65.64547
570.90        65.83514
571.34        65.26924
571.77        66.30396
572.21        65.77155
572.64        66.22108
573.08        65.50031
573.51        66.17982
573.95        65.82114
574.38        65.44373
574.82        64.77628
575.25        66.40606
575.69         66.5786
576.12        66.25835
576.56        65.37069
576.99          65.466
577.42         66.7914
577.86        65.84715
578.29        66.28173
578.73        65.95315
579.16        66.05666
579.60        66.15464
580.03        66.16679
580.47        65.96701
580.90        66.09152
581.33        65.59692
581.77        65.93833
582.20        66.96433
582.64        66.78526
583.07        66.73416
583.51        66.09145
583.94        65.59736
584.37        65.73104
584.81        65.66412
585.24        65.77408
585.68        66.77281
586.11        66.11242
586.54        66.33858
586.98        65.58646
587.41        65.44795
587.85        65.94675
588.28        66.25239
588.71        65.91639
589.15        65.60765
589.58        65.94734
590.01         65.3023
590.45        65.16734
590.88        65.43017
591.31         65.8213
591.75        66.21497
592.18        65.93449
592.61        65.27614
593.05        65.00072
593.48        66.36855
593.91        66.39749
594.35        66.37225
594.78        66.00161
595.21        65.75741
595.65        65.74078
596.08        65.88348
596.51        66.06967
596.94        65.75359
597.38        65.63982
597.81        65.58332
598.24        65.83301
598.68        66.25925
599.11        65.11967
599.54        66.58039
599.97        65.77888
600.41         65.9306
600.84        65.78541
601.27        65.97536
601.70        65.54569
602.14        65.68776
602.57        65.67479
603.00        65.81432
603.43        65.81054
603.87        65.70855
604.30        65.80256
604.73        66.04661
605.16        65.71661
605.60        65.05247
606.03        64.99681
606.46        65.50932
606.89        65.53668
607.32        65.73151
607.76         65.1952
608.19         65.6377
608.62          65.606
609.05        65.37441
609.48        65.38351
609.92        65.30758
610.35        64.90251
610.78        66.05988
611.21        67.13647
611.64        66.36415
612.07        66.20586
612.50        66.12716
612.94        65.89888
613.37        65.52984
613.80        65.92332
614.23        65.72572
614.66        65.67648
615.09        65.45023
615.52        65.47054
615.96        65.69698
616.39        65.80946
616.82        65.81824
617.25        65.59658
617.68        66.02203
618.11        65.58503
618.54        64.80137
618.97        64.62706
619.40        65.08633
619.84        65.36816
620.27        65.46784
620.70        65.70523
621.13        66.02414
621.56         65.5812
621.99        64.72453
622.42        64.74967
622.85        65.67653
623.28        65.36588
623.71        65.20764
624.14        65.18491
624.57        64.77723
625.00        64.49902
625.43        64.88714
625.86        65.02998
626.29        65.02793
626.72        65.59527
627.15        65.41756
627.58        65.48823
628.01        65.37836
628.44        65.28037
628.87        65.31271
629.30         64.5808
629.73        65.03313
630.16        64.97968
630.59         64.8537
631.02        64.85278
631.45        64.94747
631.88        65.05198
632.31        65.12982
632.74        65.21156
633.17        65.26863
633.60        65.25806
634.03        65.17503
634.46         65.0326
634.89         64.8559
635.32        64.68955
635.75        64.55312
636.18        64.43975
636.61        64.35928
637.04        64.32747
637.47        64.34789
637.89        64.40617
638.32        64.44989
638.75        64.49471
639.18        64.54337
639.61        64.33276
640.04        64.37383
640.47        64.32617
640.90        64.34848
641.33        64.41434
641.76        64.51507
642.18        64.63748
642.61        64.74145
643.04        64.83509
643.47        64.91213
643.90        64.96272
644.33        64.98007
644.76        64.97713
645.18        64.95393
645.61        64.82497
646.04        64.59281
646.47        64.43816
646.90        64.46201
647.33        64.06329
647.75        64.46948
648.18        64.63046
648.61        64.85526
649.04        65.11023
649.47        65.38084
649.89        65.56216
650.32         65.4804
650.75        65.74538
651.18        65.02132
651.61        64.76643
652.03        64.68327
652.46        65.04446
652.89        65.56619
653.32        65.44033
653.74        64.96613
654.17        64.33821
654.60        64.38754
655.03        65.41145
655.46        64.77077
655.88        64.52666
656.31        66.90972
656.74        71.63699
657.16        68.26286
657.59        64.82034
658.02        65.58569
658.45        65.86896
658.87        66.15009
659.30        64.95331
659.73        64.32265
660.15        65.22118
660.58        64.77419
661.01        64.83022
661.44        64.39769
661.86        64.14451
662.29        64.07594
662.72        64.20704
663.14        64.46692
663.57        64.25106
664.00        63.71918
664.42        63.71241
664.85        64.20648
665.27        64.44708
665.70         64.3651
666.13        64.37494
666.55        64.47243
666.98        64.41662
667.41        64.26115
667.83        64.19357
668.26        64.22726
668.69        64.32449
669.11        64.43219
669.54        64.41516
669.96        64.24699
670.39        64.10281
670.82        64.05182
671.24        63.86188
671.67        63.69189
672.09        64.23107
672.52        65.26581
672.94        65.45943
673.37        65.44165
673.80        64.88664
674.22        64.28042
674.65        63.99989
675.07        64.15836
675.50        64.55328
675.92        65.01236
676.35        65.27991
676.77        65.27945
677.20        65.09486
677.62        64.85447
678.05        64.70364
678.47        64.68077
678.90        64.84412
679.32        65.15081
679.75         64.9957
680.17        65.30672
680.60        65.25886
681.02        65.15185
681.45         65.3633
681.87        65.22328
682.30        65.33511
682.72        65.44579
683.15        65.30824
683.57         65.0146
684.00        65.04946
684.42        65.36141
684.85        65.45752
685.27        65.30963
685.70        65.12927
686.12        64.95921
686.54         64.9933
686.97        65.15571
687.39        65.03159
687.82        64.62781
688.24        64.56477
688.66        64.50582
689.09        64.49274
689.51        64.43159
689.94        64.49772
690.36        64.70374
690.78        64.91668
691.21         65.0215
691.63        65.46676
692.06        64.98421
692.48        65.15511
692.90        65.51991
693.33        65.62119
693.75        65.44305
694.17        65.15259
694.60        64.87494
695.02        65.20157
695.44        65.22861
695.87        65.76905
696.29        66.33427
696.71        66.30169
697.14        65.71564
697.56        65.24524
697.98         65.0554
698.41        64.90406
698.83        64.81232
699.25        65.02273
699.68        65.39521
700.10        65.62417
700.52        65.61736
700.94        65.47263
701.37        65.27534
701.79        65.18513
702.21        65.23191
702.64        65.35932
703.06        65.49639
703.48        65.54567
703.90        65.48807
704.33         65.3642
704.75        65.23697
705.17        65.18758
705.59        65.23985
706.01        65.35883
706.44        65.51337
706.86        65.67419
707.28        65.80077
707.70        65.92731
708.12        66.04014
708.55        66.04588
708.97        65.96575
709.39        65.95465
709.81        66.00681
710.23        65.99664
710.66        65.92536
711.08        65.88798
711.50        65.89316
711.92        65.93935
712.34        66.03607
712.76        66.14758
713.19        66.21509
713.61        66.30492
714.03        66.39969
714.45        66.08798
714.87        66.12415
715.29        65.97406
715.71        65.86369
716.13        65.76656
716.56        65.65963
716.98        65.55811
717.40        65.44139
717.82        65.33794
718.24         65.2693
718.66        65.26653
719.08        65.33054
719.50        65.43342
719.92        65.56879
720.34        65.72867
720.76        65.90096
721.19         66.0755
721.61        66.20332
722.03        66.20428
722.45        66.10098
722.87        65.77115
723.29        65.32482
723.71        65.37987
724.13         65.9776
724.55        65.52567
724.97        66.01482
725.39        66.00112
725.81        66.06121
726.23        66.15247
726.65         66.0151
727.07        66.01181
727.49        66.05536
727.91        66.12999
728.33         66.2327
728.75        66.37256
729.17        66.54131
729.59        66.73093
730.01        66.90816
730.43        67.01434
730.85        67.03712
731.27        66.99328
731.69        66.90601
732.10        66.82282
732.52        66.75504
732.94        66.68672
733.36         66.6284
733.78        66.59243
734.20        66.59241
734.62        66.65434
735.04        66.72782
735.46        66.74925
735.88         66.6993
736.30        66.50973
736.72        66.31576
737.13        66.44344
737.55        66.78684
737.97        67.19828
738.39         67.5069
738.81        67.10728
739.23        66.28918
739.65        66.48033
740.06        67.46564
740.48        67.76037
740.90        67.30514
741.32        66.65844
741.74        66.60588
742.16        66.44693
742.57        66.43209
742.99        66.58523
743.41        66.85912
743.83        67.13934
744.25        67.37416
744.67        67.57048
745.08        67.73696
745.50        67.84988
745.92        67.92339
746.34        67.95256
746.75        67.91218
747.17        67.79182
747.59        67.59302
748.01        67.31181
748.42        67.04698
748.84        66.93819
749.26        66.96916
749.68        67.17646
750.09        67.45863
750.51        67.28992
750.93        66.88008
751.35        67.30942
751.76        68.39518
752.18        68.76962
752.60        68.33557
753.01        67.84552
753.43        67.47632
753.85        67.22093
754.27        67.14264
754.68        67.21487
755.10        67.38408
755.52        67.56113
755.93        67.73675
756.35        67.97865
756.77        68.16311
757.18        68.24294
757.60        68.25032
758.02        67.72513
758.43        67.01156
758.85         67.8063
759.26         69.4884
759.68        69.85057
760.10        68.80383
760.51        68.15574
760.93        68.10622
761.34         68.2748
761.76        68.53087
762.18        68.12793
762.59        67.30611
763.01        67.49629
763.42        68.61098
763.84        68.96929
764.26        68.47271
764.67         67.9228
765.09        67.59798
765.50        67.59585
765.92        67.88072
766.33         68.0592
766.75         68.0385
767.16        68.01882
767.58        68.06421
768.00        68.49796
768.41        69.22049
768.83         69.6611
769.24        69.66951
769.66         69.3013
770.07        68.70179
770.49        68.22119
770.90        67.97044
771.32        68.01043
771.73        68.28825
772.15        68.52947
772.56        68.71268
772.97        68.96635
773.39          69.235
773.80        69.45832
774.22        69.55916
774.63        69.52223
775.05        69.35034
775.46        69.17888
775.88        69.02191
776.29        68.85376
776.70        68.69586
777.12        68.60864
777.53        68.62106
777.95        68.70254
778.36        68.82282
778.77        68.88876
779.19        68.88974
779.60        68.86356
780.02        68.83702
780.43        68.89224
780.84        69.05885
781.26        69.17873
781.67        69.30918
782.09        69.72648
782.50        70.29205
782.91        70.43861
783.33          70.179
783.74        70.07767
784.15        70.13052
784.57        70.08475
784.98         69.9454
785.39        69.72354
785.81        69.50792
786.22        69.59488
786.63        69.89848
787.04        69.98399
787.46        69.83836
787.87        69.66002
788.28        69.55473
788.70        69.58324
789.11         69.7427
789.52        70.00866
789.93         70.2971
790.35        70.45986
790.76        70.49468
791.17        70.45826
791.58        70.37424
792.00        70.31288
792.41         70.3324
792.82        70.23203
793.23        70.12576
793.65        70.57659
794.06        71.44122
794.47        71.76982
794.88        71.46348
795.29        71.32976
795.71        71.01723
796.12        70.37018
796.53        69.51295
796.94        69.22134
797.35         69.5821
797.76        70.16086
798.18        70.71256
798.59        71.12502
799.00        71.25941
799.41        71.06727
799.82        70.72322
800.23        70.58761
800.64        70.73847
801.06        71.02351
801.47        71.36631
801.88        71.52454
802.29        71.41977
802.70        71.12708
803.11        70.76279
803.52        70.49625
803.93        70.39337
804.34        70.42675
804.75        70.50426
805.17        70.50583
805.58        70.43695
805.99        70.19713
806.40        69.94827
806.81        70.25092
807.22        70.97519
807.63        71.35825
808.04        71.34819
808.45        71.43205
808.86        71.59329
809.27         71.4911
809.68        71.17206
810.09        70.91733
810.50        70.77972
810.91          70.682
811.32        70.62945
811.73        70.62625
812.14        70.66191
812.55        70.75813
812.96        70.86327
813.37        70.86918
813.78        70.76027
814.19        70.57256
814.60        70.38585
815.01        70.32409
815.42        70.41563
815.83        70.62199
816.24        70.89818
816.65         71.1469
817.05        71.32256
817.46        71.41702
817.87        71.45702
818.28        71.43784
818.69        71.37015
819.10        71.24091
819.51        71.11037
819.92        71.09803
820.33        71.22466
820.74         71.4437
821.14         71.6497
821.55        71.72083
821.96        71.60494
822.37         71.3027
822.78        70.91181
823.19        70.66512
823.60        70.63687
824.00        70.76119
824.41        70.97037
824.82        71.24784
825.23        71.55462
825.64         71.8867
826.04        72.22557
826.45        72.44061
826.86        72.53524
827.27        72.52963
827.68        72.43581
828.08        72.31091
828.49        72.14149
828.90        71.93902
829.31        71.78835
829.72        71.81925
830.12        72.08233
830.53        72.49944
830.94        72.92715
831.35        73.06035
831.75        72.83699
832.16        72.28068
832.57        71.64532
832.97        71.31352
833.38         71.3754
833.79        71.72002
834.20        72.11299
834.60        72.17506
835.01        71.85152
835.42        71.28643
835.82        70.71185
836.23        70.45058
836.64         70.6114
837.04        71.09784
837.45        71.72692
837.86        72.30662
838.26         72.7393
838.67        73.03016
839.08        73.15152
839.48        73.03986
839.89        72.71407
840.29        72.17614
840.70         71.5936
841.11        71.16896
841.51        70.98253
841.92        71.01126
842.33        71.16257
842.73        71.26302
843.14        71.21941
843.54        71.09232
843.95        71.03494
844.35        71.33447
844.76        71.98152
845.17        72.88242
845.57        73.77158
845.98        74.05798
846.38        73.66142
846.79        72.77734
847.19        71.72271
847.60        71.00895
848.00        70.77341
848.41        70.85121
848.81        71.19735
849.22        71.62422
849.62         72.0851
850.03        72.56615
850.43        72.97919
850.84        73.04076
851.24        72.75273
851.65         72.1599
852.05        71.45007
852.46        70.94939
852.86        70.73143
853.27         70.7337
853.67        70.86712
854.07        71.19036
854.48        71.61429
854.88        72.22054
855.29        72.68299
855.69        72.61512
856.10        71.83191
856.50        70.55217
856.90        69.21746
857.31        68.51633
857.71         68.6394
858.12        69.37186
858.52         70.4631
858.92        71.23195
859.33         71.4135
859.73        71.21212
860.13        70.81658
860.54        70.56791
860.94        70.60393
861.34        70.77988
861.75        70.92476
862.15        70.88235
862.55        70.56324
862.96        70.05954
863.36        69.52302
863.76        69.18361
864.17        69.09454
864.57        69.22734
864.97        69.38817
865.38        69.25234
865.78        68.79565
866.18        68.08089
866.58        67.39474
866.99        67.22861
867.39        67.70475
867.79        68.63134
868.19        69.61841
868.60        70.04804
869.00        69.79154
869.40         69.0496
869.80         68.1376
870.21        67.61358
870.61        67.68224
871.01        68.12643
871.41        68.75639
871.81        69.30387
872.22        69.65575
872.62        69.95243
873.02        70.19752
873.42        70.36976
873.82        70.47637
874.22        70.49908
874.63        70.51729
875.03        70.64329
875.43        70.90202
875.83        71.23405
876.23        71.58406
876.63        71.83797
877.03        71.96345
877.44        72.04406
877.84         71.9798
878.24        71.64483
878.64        71.04974
879.04        70.19689
879.44        69.42656
879.84        69.22991
880.24        69.64946
880.64        70.58526
881.04        71.46541
881.44        71.27136
881.84        69.85129
882.24        67.63829
882.65         65.5117
883.05         64.6146
883.45        65.21149
883.85        66.94462
884.25        69.21901
884.65        70.92331
885.05        71.61284
885.45        71.55841
885.85        71.10303
886.25        70.79785
886.65        70.80816
887.05        70.92732
887.45         70.9874
887.85        70.75916
888.25        70.21224
888.65        69.52332
889.04        68.86832
889.44        68.49718
889.84        68.46352
890.24        68.69585
890.64        69.10722
891.04         69.5584
891.44        69.97193
891.84        70.35112
892.24        70.69671
892.64        71.01701
893.04        71.31876
893.44        71.60275
893.83        71.83421
894.23        71.88486
894.63        71.77134
895.03        71.49136
895.43        71.22993
895.83          71.272
896.23         71.6552
896.63        72.31876
897.02        72.91627
897.42        72.88033
897.82        72.13708
898.22         70.8849
898.62        69.62402
899.01        69.05431
899.41        69.32583
899.81        70.25899
900.21        71.39957
900.61        71.87915
901.00        71.44997
901.40        70.47321
901.80        69.49419
902.20        69.27353
902.59        69.98379
902.99        71.33296
903.39        72.95243
903.79        74.02497
904.18        74.20802
904.58         73.7858
904.98        73.08456
905.38        72.55296
905.77        72.31442
906.17        72.24076
906.57        72.27068
906.96        72.36922
907.36        72.45168
907.76        72.56816
908.15        72.69563
908.55        72.68294
908.95        72.53014
909.34        72.25958
909.74        71.90938
910.14        71.50394
910.53        71.08374
910.93        70.69214
911.33        70.42227
911.72        70.43408
912.12        70.74355
912.52        71.27911
912.91        71.95259
913.31        72.59103
913.70        73.14605
914.10        73.59305
914.49        73.90107
914.89        73.95077
915.29        73.76757
915.68         73.3918
916.08        72.96451
916.47        72.66663
916.87        72.57389
917.26        72.57379
917.66        72.67226
918.05        72.85201
918.45        73.04365
918.84        73.32467
919.24          73.409
919.64        72.93456
920.03        71.90143
920.42        70.47739
920.82        69.19006
921.21        68.63161
921.61        68.90275
922.00        69.86146
922.40        71.11388
922.79        72.02956
923.19        72.31924
923.58        72.16563
923.98        71.83649
924.37        71.70879
924.77        71.89856
925.16        72.29366
925.55        72.74505
925.95        73.00561
926.34        73.03143
926.74        72.87832
927.13        72.66497
927.52        72.55015
927.92        72.57481
928.31        72.69014
928.70        72.78065
929.10        72.64204
929.49        72.27111
929.89        71.76048
930.28        71.31229
930.67        71.20586
931.07        71.48463
931.46        72.04086
931.85        72.74848
932.24        73.42776
932.64        73.95156
933.03        74.42632
933.42        74.68544
933.82        74.50138
934.21        73.91721
934.60        73.01093
934.99        72.13612
935.39        71.80351
935.78        72.10284
936.17        72.86512
936.56        73.81231
936.96        74.45482
937.35        74.66205
937.74        74.55595
938.13         74.1432
938.53        73.44617
938.92        72.54716
939.31        71.52578
939.70        70.67866
940.09        70.47268
940.49        70.92576
940.88        71.90431
941.27        73.15122
941.66        74.18153
942.05        74.75832
942.44        75.02176
942.84        74.77409
943.23        73.73164
943.62        72.05235
944.01        69.96585
944.40        68.17843
944.79        67.58864
945.18        68.29529
945.57        70.09716
945.97        72.33285
946.36        73.90009
946.75        74.18675
947.14        73.49147
947.53        72.37455
947.92          71.791
948.31        71.98963
948.70        72.58299
949.09        73.29661
949.48        73.70238
949.87        73.63714
950.26        73.35529
950.65        72.78111
951.04        71.73985
951.43        70.34534
951.82        68.70637
952.21        67.33987
952.60        67.03631
952.99        67.90042
953.38        69.66608
953.77        71.75674
954.16        73.15005
954.55        73.48084
954.94        72.98119
955.33        71.96064
955.72        70.97496
956.11        70.26057
956.50        69.69827
956.89        69.25169
957.28        68.86875
957.66        68.55296
958.05        68.36767
958.44        68.42133
958.83        68.82029
959.22        69.53803
959.61        70.47767
960.00        71.37425
960.39        71.79425
960.78        71.61886
961.16        70.97627
961.55        70.10631
961.94        69.39387
962.33        68.97938
962.72        68.76604
963.11        68.75607
963.49        68.95982
963.88        69.29355
964.27        69.79462
964.66        70.30821
965.04        70.57254
965.43        70.47981
965.82        70.12787
966.21        69.69189
966.60        69.49345
966.98        69.63305
967.37         69.9705
967.76        70.42718
968.15        70.84982
968.53        71.17969
968.92        71.43088
969.31        71.54421
969.69        71.40357
970.08        70.98534
970.47        70.34286
970.86        69.67833
971.24        69.32285
971.63        69.36317
972.02        69.78029
972.40        70.42223
972.79        70.93566
973.17        71.27612
973.56        71.44447
973.95        71.68742
974.33        72.41965
974.72        73.62041
975.11        75.18006
975.49        76.80119
975.88        77.70859
976.26        77.65884
976.65        76.83682
977.04        75.53256
977.42        74.10754
977.81        72.76215
978.19        71.36994
978.58        70.18105
978.96         69.3838
979.35        69.02734
979.74        69.06833
980.12        69.27927
980.51        69.11662
980.89        68.54365
981.28        67.69855
981.66         66.8986
982.05        66.62656
982.43        67.04683
982.82        67.93035
983.20        69.17139
983.59        70.65481
983.97        72.34361
984.35        74.22572
984.74        75.77658
985.12        76.40759
985.51        75.82782
985.89         74.3342
986.28        72.52561
986.66        70.95639
987.04        69.89333
987.43        69.07618
987.81        68.66684
988.20        68.79426
988.58        69.53428
988.96        70.93021
989.35        72.29328
989.73        72.63598
990.12        71.76032
990.50        69.85423
990.88        67.98886
991.27        67.79347
991.65        69.60227
992.03        73.16618
992.42        76.98236
992.80        78.22606
993.18        75.84037
993.56        71.13393
993.95        66.44607
994.33        64.11768
994.71        64.66272
995.10        67.33126
995.48        71.30637
995.86        74.17127
996.24        74.76328
996.63        73.85706
997.01        72.40508
997.39        71.72814
997.77        72.16042
998.15        73.08863
998.54        74.24715
998.92        75.31036
999.30        76.04307
999.68        76.74121
1000.06        76.94168
1000.45        75.74773
1000.83        73.37579
1001.21        70.16381
1001.59        67.35049
1001.97        66.61176
1002.35        68.15433
1002.73        71.48244
1003.12        75.54725
1003.50        78.39775
1003.88        79.18513
1004.26        78.46997
1004.64        76.81358
1005.02        75.20228
1005.40        74.00233
1005.78          72.783
1006.16        71.78353
1006.54        71.43918
1006.92        71.77351
1007.30        72.89153
1007.69        73.94418
1008.07        73.32245
1008.45        70.87715
1008.83        67.44937
1009.21        64.38873
1009.59         63.1038
1009.97         63.7154
1010.35        65.89921
1010.73        68.99713
1011.11        71.31264
1011.49        71.91377
1011.86         70.9854
1012.24        69.61274
1012.62        69.51125
1013.00        71.21566
1013.38        74.54298
1013.76        78.17757
1014.14        78.80186
1014.52        75.77006
1014.90         71.1255
1015.28        67.31814
1015.66        66.49277
1016.04        68.78306
1016.41         73.8935
1016.79        80.96129
1017.17        87.78032
1017.55        92.22931
1017.93        94.34013
1018.31        93.28048
1018.69        88.78568
1019.06        82.15969
1019.44        75.05459
1019.82         69.1507
1020.20        65.47487
1020.58        63.65362
1020.95        63.39906
1021.33         64.2746
1021.71        65.28488
1022.09        65.88375
1022.46        65.95485
1022.84        66.29087
1023.22        67.95911
1023.60        71.37137
1023.97        76.96465
1024.35        82.81126
1024.73        83.30727
