SpectraSmart Spectrum 2.9.0.0
--------- Device Information -----------
Spectrum Name :  反射率_0
Saving Time :  2024/05/03 20:23:35
Spectro-Module Model Name : SE2030-DUVN
Spectro-Module Serial Number : OS361AC55029948
Wavelength Start : 200
Wavelength End : 1025
Wavelength Unit : Wavelength(nm)
Spectrum Unit : Reflectance(%)
-----------Spectrum Setting ------------
Integration Time : 20ms
Average : 10
Boxcar : 0
Background removal :  enabled
linearity correction :  enabled
SC :  disabled
Intensity correction :  disabled
DWT denoise :  enabled
savitzky-golay :  disabled
FFT :  disabled
Running average :  disabled
Kalman :  disabled
High pass :  disabled
---------------BEGIN--------------------
Wavelength(nm)             Reflectance(%)
200.29               0
200.75        -1.70378
201.21        27.28656
201.67       -1425.198
202.13       -33.56248
202.58        10.44787
203.04        41.17831
203.50        65.61764
203.96        83.98367
204.42        102.5294
204.88         151.454
205.34       -1473.967
205.80       -76.11733
206.26       -91.58417
206.72       -34012.66
207.18        171.8186
207.64        127.5113
208.10        124.2865
208.55        158.7576
209.01        502.5964
209.47        515.2535
209.93        110.7849
210.39        75.40912
210.85        67.35824
211.31        66.42982
211.77        69.33067
212.23         79.3988
212.69        105.8235
213.14        121.4144
213.60        82.07209
214.06        58.17341
214.52        50.23318
214.98        50.91111
215.44        60.27843
215.90        102.3641
216.36       -495.0097
216.81       -75.05613
217.27       -68.38474
217.73       -117.4939
218.19       -441.0985
218.65       -9150.654
219.11       -686.3886
219.57        -193.408
220.02        -119.589
220.48       -211.3605
220.94         246.396
221.40        76.62466
221.86         51.8735
222.32        46.66798
222.77        48.87464
223.23        57.77247
223.69         72.3252
224.15        77.83179
224.61        66.14002
225.06        49.50024
225.52        38.99463
225.98        38.22791
226.44        45.75761
226.90        60.52484
227.36         79.6487
227.81         90.6213
228.27        86.19198
228.73         73.3699
229.19        59.42543
229.65        49.64811
230.10        44.10068
230.56        41.09416
231.02        39.78963
231.48        39.73591
231.93        40.50528
232.39        42.12291
232.85        44.21489
233.31        46.25762
233.77        48.07093
234.22        49.62109
234.68        50.93429
235.14        52.10693
235.60          53.173
236.05        54.21635
236.51        54.89952
236.97        54.84508
237.43        54.06509
237.88        52.92223
238.34        52.22287
238.80        52.92372
239.26        55.58049
239.71        62.87235
240.17        73.93881
240.63        87.64716
241.08        95.31821
241.54        92.02909
242.00        84.19038
242.46        81.89105
242.91        87.95441
243.37         103.357
243.83        131.3676
244.28        157.8802
244.74        150.5884
245.20        114.7314
245.66        76.32958
246.11        54.60428
246.57         48.3933
247.03        49.94982
247.48         53.9416
247.94        55.44038
248.40        53.66536
248.85        50.11252
249.31        45.98963
249.77        43.43028
250.22        43.45085
250.68        45.07037
251.14        47.41145
251.59        50.56531
252.05        55.25653
252.51        62.49109
252.96        74.09096
253.42        88.79739
253.88        100.4056
254.33        105.3882
254.79        102.7343
255.25        93.70771
255.70         83.2136
256.16        74.71819
256.62         69.1464
257.07        66.97776
257.53        67.43633
257.99        68.81131
258.44        69.82516
258.90        69.70923
259.35        68.11548
259.81        66.27356
260.27        64.19248
260.72        61.91813
261.18        59.99775
261.63        58.11657
262.09        56.78942
262.55        56.15517
263.00        55.97861
263.46         56.1541
263.91        56.19371
264.37        55.73497
264.83         54.6888
265.28        53.25889
265.74         51.7412
266.19        50.24068
266.65        48.93878
267.11        47.71226
267.56        46.62547
268.02        45.87233
268.47        45.38614
268.93        45.13681
269.38        44.90273
269.84        44.31356
270.30        43.33172
270.75        42.07843
271.21        40.85438
271.66         39.9837
272.12        39.52567
272.57        39.31432
273.03        39.16066
273.48        38.79245
273.94        38.15947
274.39         37.3729
274.85        36.52949
275.31        35.65609
275.76        34.78552
276.22        33.96687
276.67        33.26856
277.13        32.91095
277.58        32.81902
278.04        32.94176
278.49        33.03379
278.95        32.78238
279.40        32.10833
279.86        31.22043
280.31          30.269
280.77         29.5678
281.22        29.08836
281.68        28.78248
282.13        28.52172
282.59        28.19804
283.04        27.76989
283.50        27.31944
283.95        26.88942
284.41        26.56674
284.86        26.35043
285.32        26.23277
285.77        26.16205
286.22        26.12654
286.68        26.11939
287.13        26.10924
287.59        26.11581
288.04        26.11444
288.50        26.11993
288.95        26.10917
289.41        26.08154
289.86        25.99004
290.32        25.86608
290.77        25.72311
291.22        25.62702
291.68        25.65809
292.13        25.82932
292.59        26.14998
293.04        26.59325
293.50        27.12116
293.95        27.70486
294.40        28.35519
294.86        29.09624
295.31        29.96788
295.77        30.98585
296.22        32.12409
296.68        33.33868
297.13        34.54335
297.58        35.68391
298.04        36.79395
298.49        37.85772
298.95        38.92051
299.40        39.99331
299.85        41.07921
300.31        42.26414
300.76        43.64215
301.21        45.22581
301.67        46.98518
302.12        48.75248
302.58        50.29323
303.03        51.53037
303.48        52.55183
303.94         53.5564
304.39        54.76686
304.84        56.27896
305.30        58.01778
305.75        59.83521
306.20        61.53696
306.66        63.07214
307.11        64.45704
307.57        65.78002
308.02         67.0594
308.47        68.35425
308.93        69.64538
309.38        70.91354
309.83        72.22192
310.29        73.56884
310.74        74.91681
311.19        76.20318
311.65        77.30798
312.10        78.17637
312.55        78.83804
313.00        79.34785
313.46        79.80908
313.91        80.24529
314.36        80.68378
314.82        81.12955
315.27        81.55724
315.72        81.98321
316.18        82.41915
316.63        82.92259
317.08        83.59489
317.53        84.43384
317.99         85.3792
318.44        86.29955
318.89        86.92783
319.35        87.19896
319.80        87.19353
320.25        87.06245
320.70        87.07343
321.16        87.29012
321.61        87.65275
322.06        88.07307
322.51        88.40367
322.97        88.58781
323.42        88.71088
323.87        88.77573
324.32         88.7923
324.78        88.77393
325.23        88.74402
325.68        88.76319
326.13        88.95502
326.59        89.31668
327.04        89.85948
327.49        90.47544
327.94         91.0093
328.39        91.40401
328.85        91.65845
329.30        91.86133
329.75        92.04765
330.20        92.24264
330.66         92.3991
331.11        92.57165
331.56        92.74735
332.01        92.93904
332.46        93.17263
332.92        93.41322
333.37        93.70119
333.82         94.0053
334.27        94.32243
334.72        94.68917
335.17        95.17017
335.63        95.73431
336.08        96.39128
336.53        97.01049
336.98        97.43398
337.43        97.62174
337.88        97.62101
338.34        97.52076
338.79        97.49023
339.24        97.59329
339.69        97.83047
340.14        98.16744
340.59        98.53746
341.05        98.91776
341.50        99.32151
341.95        99.82872
342.40        100.5744
342.85        101.5491
343.30          102.68
343.75        103.7252
344.20         104.312
344.66        104.3886
345.11        104.0597
345.56        103.6203
346.01        103.5271
346.46        103.8943
346.91        104.5867
347.36        105.4041
347.81        106.0184
348.26        106.3391
348.72        106.4893
349.17        106.5537
349.62        106.6847
350.07        106.9274
350.52        107.2031
350.97        107.4897
351.42        107.7766
351.87        108.0309
352.32        108.2434
352.77         108.359
353.22         108.283
353.67        108.0157
354.13         107.641
354.58        107.1715
355.03        106.6965
355.48        106.2681
355.93        105.8799
356.38        105.6183
356.83        105.6123
357.28        105.8492
357.73        106.2564
358.18        106.6541
358.63        106.7506
359.08         106.467
359.53        105.8864
359.98        105.1095
360.43        104.3156
360.88        103.5721
361.33        102.8224
361.78        102.1108
362.23        101.4931
362.68        100.9711
363.13        100.5714
363.58        100.1562
364.03        99.49368
364.48        98.56238
364.93        97.42959
365.38        96.35055
365.83        95.72146
366.28        95.60094
366.73        95.85208
367.18         96.1564
367.63        96.00048
368.08        95.25792
368.53        94.09049
368.98        92.78933
369.43        91.79104
369.88        91.21346
370.33        90.94307
370.78        90.78375
371.23        90.41368
371.68        89.75504
372.13        88.92313
372.58        88.13384
373.03        87.69667
373.48        87.65495
373.93        87.87862
374.38        88.10658
374.83        87.92993
375.28        87.24686
375.72         86.1682
376.17        85.00326
376.62        84.06997
377.07        83.45021
377.52        83.05329
377.97        82.73379
378.42        82.27032
378.87        81.62347
379.32        80.88433
379.77         80.2066
380.22        79.78489
380.67        79.63705
381.11        79.70644
381.56        79.77789
382.01        79.56709
382.46        79.02107
382.91        78.25078
383.36        77.47841
383.81         77.0237
384.26        76.94041
384.71        77.11266
385.15        77.34803
385.60        77.37064
386.05        77.08839
386.50        76.58824
386.95        75.98846
387.40        75.46439
387.85        75.07413
388.29        74.74364
388.74        74.47339
389.19         74.0935
389.64         73.5873
390.09        73.01843
390.54        72.51963
390.98        72.22093
391.43        72.16644
391.88        72.40199
392.33        72.77075
392.78         72.6187
393.23        72.07554
393.67        72.15672
394.12        72.73864
394.57        72.32956
395.02        71.32203
395.47        70.94186
395.91        71.26535
396.36        71.24696
396.81        70.88293
397.26        70.75297
397.71        70.79549
398.15        70.68121
398.60         70.4854
399.05        70.12675
399.50        69.70444
399.95        69.68479
400.39        69.98203
400.84        69.67985
401.29        68.91644
401.74        68.78664
402.18        69.20294
402.63        69.07936
403.08        68.53361
403.53        67.99659
403.97        68.45695
404.42        68.60723
404.87        68.67271
405.32        68.68877
405.76        68.61506
406.21        68.62334
406.66        68.61857
407.11        68.14755
407.55        67.42541
408.00        67.19923
408.45        67.47334
408.90        67.78484
409.34        67.88774
409.79         67.4157
410.24         66.6106
410.68        66.32695
411.13        66.62962
411.58        67.01569
412.03        67.27342
412.47        67.29657
412.92        66.99729
413.37         66.4341
413.81        65.82999
414.26        65.58306
414.71        65.72747
415.15        66.19598
415.60        66.73026
416.05        66.95351
416.49        66.75414
416.94        66.27448
417.39        65.75132
417.83        65.51598
418.28        65.65527
418.73        66.05574
419.17        66.55832
419.62        66.84985
420.07        66.83074
420.51        66.56506
420.96        66.22477
421.41        65.92407
421.85        65.67519
422.30        65.69838
422.74        65.79641
423.19        65.38232
423.64        64.60988
424.08        64.52251
424.53        65.09306
424.98        65.42541
425.42        65.46257
425.87        65.79238
426.31        66.34451
426.76         66.5161
427.21        66.42247
427.65        66.63019
428.10        66.93604
428.54        67.39641
428.99        66.82133
429.44        66.27778
429.88        65.66047
430.33        65.94973
430.77        66.77171
431.22        66.81106
431.66        66.11668
432.11         65.7918
432.56        65.89969
433.00        66.12132
433.45        66.35951
433.89        66.73066
434.34        64.36823
434.78        66.67629
435.23        67.47565
435.67        65.19071
436.12        65.05101
436.57        65.03062
437.01        66.73359
437.46        67.46928
437.90        67.21829
438.35        66.24004
438.79        66.70921
439.24        66.45467
439.68         66.1289
440.13        66.07195
440.57        66.28267
441.02        66.19775
441.46        65.83244
441.91        66.26996
442.35        67.13068
442.80         66.7954
443.24        65.60966
443.69        65.91103
444.13        67.43634
444.58        67.93291
445.02        67.28716
445.47        66.72818
445.91        66.47948
446.36        66.41177
446.80        66.56286
447.24        66.98258
447.69        67.48026
448.13        67.70527
448.58        67.61573
449.02        67.37232
449.47        67.11242
449.91        66.93135
450.36        66.89719
450.80        66.97176
451.25        67.09762
451.69        67.13322
452.13        67.05361
452.58        66.91335
453.02        66.74333
453.47        66.61594
453.91        66.54351
454.36        66.50005
454.80        66.44084
455.24        66.39872
455.69        66.39281
456.13        66.23354
456.58        65.93789
457.02        66.19789
457.46        65.99957
457.91        65.82245
458.35        65.40196
458.79        65.29218
459.24        65.42008
459.68        65.12803
460.13        64.55306
460.57        64.36128
461.01        64.64133
461.46        64.61523
461.90        64.61367
462.34        65.08721
462.79        64.30737
463.23        64.17181
463.68        64.15981
464.12         64.1026
464.56        63.98868
465.01        64.01083
465.45         64.1132
465.89        64.21119
466.34        64.28186
466.78        64.35446
467.22        64.43777
467.67        64.18385
468.11        63.96529
468.55        63.89471
468.99        64.02472
469.44        63.97551
469.88        63.74711
470.32        63.57136
470.77         63.4658
471.21        63.37172
471.65        63.27462
472.10        63.18511
472.54        63.12479
472.98        63.09259
473.42        63.07316
473.87        63.25007
474.31        63.45051
474.75         63.0805
475.20        62.34071
475.64        62.14192
476.08        62.47724
476.52        62.57018
476.97        62.39114
477.41        62.45145
477.85        62.71545
478.29        62.83298
478.74        62.64968
479.18        62.81511
479.62        62.93668
480.06        62.93003
480.50        62.65716
480.95        62.53635
481.39        62.63025
481.83        61.99248
482.27        62.04773
482.72        62.29699
483.16        62.21068
483.60         62.1747
484.04        62.48585
484.48        62.36937
484.93        61.96974
485.37        62.70305
485.81         63.3255
486.25        62.72535
486.69        64.69054
487.14        64.98358
487.58        61.62902
488.02        61.88739
488.46        62.60401
488.90        61.81377
489.34        62.46742
489.79        62.23984
490.23        62.41562
490.67        62.47824
491.11        62.52865
491.55        62.59555
491.99        62.62278
492.43        62.57832
492.88         62.4561
493.32        62.35813
493.76         62.2898
494.20         62.1973
494.64         62.0775
495.08        62.02916
495.52        62.07416
495.96        61.99313
496.41        61.86281
496.85        62.25429
497.29        62.95945
497.73         62.9631
498.17        62.34504
498.61         62.1425
499.05        62.39687
499.49        62.40819
499.93        62.15562
500.37        62.03912
500.82        62.05283
501.26         61.9286
501.70        61.66582
502.14         61.7924
502.58        61.66108
503.02        61.70146
503.46        61.71415
503.90        61.76916
504.34         61.8293
504.78        61.82049
505.22        61.74089
505.66        61.59608
506.10        61.40501
506.54        61.31979
506.98        61.38256
507.42        61.33898
507.86        61.10485
508.30        61.73603
508.74        61.27802
509.18        61.30616
509.62        61.28223
510.06        61.32386
510.50        61.42436
510.94        61.57265
511.38        61.71504
511.82        61.71215
512.26        61.54974
512.70         61.2836
513.14        60.98983
513.58        60.78682
514.02         60.7063
514.46        60.70283
514.90        60.76552
515.34        60.87128
515.78        61.00097
516.22        61.17643
516.66        61.32047
517.10        61.30849
517.54        61.12984
517.98        60.81172
518.42        60.51377
518.86        60.49086
519.30        60.78374
519.74        61.32829
520.18        61.91395
520.62        62.14913
521.06        61.97218
521.50        61.59306
521.93        61.17426
522.37        60.90411
522.81        60.85101
523.25        60.98005
523.69        61.19777
524.13        61.33116
524.57        61.33595
525.01        61.28311
525.45        61.20229
525.89        61.13143
526.32         61.0848
526.76        61.04213
527.20         61.0252
527.64        61.08398
528.08        61.21701
528.52        61.41077
528.96        61.59192
529.40         61.6413
529.83        61.52781
530.27        61.30046
530.71        61.04251
531.15        60.89361
531.59        60.88727
532.03        60.98925
532.46         61.1195
532.90        61.14957
533.34         61.0575
533.78        60.89958
534.22        60.75182
534.66        60.72189
535.09        60.81765
535.53        60.99746
535.97         61.2085
536.41        61.32598
536.85         61.3084
537.28        61.35217
537.72        61.42433
538.16        61.09137
538.60         60.5582
539.04         60.6712
539.47        61.28974
539.91        61.49818
540.35        61.23964
540.79        61.04476
541.22         60.9609
541.66        60.87178
542.10        60.80245
542.54        60.71245
542.97         60.6267
543.41        60.77153
543.85        61.05876
544.29        61.13122
544.72        60.97472
545.16        60.89884
545.60         60.9008
546.04        60.81154
546.47        60.66132
546.91         60.6035
547.35        60.65386
547.79         60.7558
548.22        60.87753
548.66        61.04336
549.10        61.20836
549.53        61.33858
549.97        61.40019
550.41        61.38361
550.84        61.27748
551.28        61.10278
551.72        60.89862
552.15        60.67567
552.59        60.47512
553.03        60.49536
553.46        60.34427
553.90        60.37237
554.34        60.42756
554.77        60.50418
555.21        60.61838
555.65        60.59066
556.08         60.8161
556.52        60.92731
556.96        61.02039
557.39        61.07691
557.83        61.10347
558.27        61.20055
558.70        61.15633
559.14         61.0715
559.57        60.90858
560.01        60.77638
560.45        60.72418
560.88        60.77345
561.32        60.89754
561.75         61.0358
562.19        61.17503
562.63        60.96501
563.06        60.55666
563.50        60.91126
563.93        61.79229
564.37        61.71532
564.80        60.83005
565.24        60.69718
565.68        61.22178
566.11        61.31962
566.55        60.99985
566.98        60.68405
567.42        60.48803
567.85        60.78633
568.29        61.06491
568.72        61.12047
569.16        60.93336
569.60        60.95414
570.03        61.14804
570.47        61.43986
570.90         61.6052
571.34          61.359
571.77        62.09008
572.21        61.64396
572.64        61.79654
573.08        61.39152
573.51        61.79208
573.95        61.66923
574.38        61.58029
574.82        60.92933
575.25        62.28923
575.69         62.3362
576.12        62.01204
576.56        61.22513
576.99        61.47142
577.42        62.20584
577.86        61.83585
578.29        62.19942
578.73        62.15823
579.16        62.22355
579.60        62.13415
580.03        62.07201
580.47        61.97296
580.90        62.05542
581.33        61.46199
581.77        61.81979
582.20        63.29018
582.64        62.61245
583.07        62.71808
583.51        62.01868
583.94        61.67056
584.37        61.43317
584.81        61.52243
585.24        61.64467
585.68        62.65845
586.11         62.2071
586.54        62.28811
586.98        61.54277
587.41         61.2483
587.85         62.0514
588.28        62.14134
588.71         62.0371
589.15        61.34587
589.58        62.27214
590.01        61.40788
590.45        61.22557
590.88         61.6289
591.31        61.85843
591.75        62.02477
592.18        61.73744
592.61        61.29438
593.05        61.30492
593.48        62.61783
593.91          62.706
594.35        62.37305
594.78        61.95287
595.21        61.73257
595.65        61.66385
596.08        61.62888
596.51        62.08402
596.94        61.89875
597.38         61.8027
597.81         61.3712
598.24        62.22937
598.68        61.78493
599.11        61.15658
599.54        62.32721
599.97        62.01733
600.41        61.91518
600.84        61.79253
601.27        61.95187
601.70         61.7128
602.14        61.55739
602.57        61.65177
603.00          62.035
603.43        62.05598
603.87        61.74309
604.30        61.81499
604.73        61.70407
605.16        61.65081
605.60        61.31759
606.03        61.37585
606.46        61.63968
606.89        61.72089
607.32        61.62673
607.76        61.27157
608.19        61.59376
608.62        61.60547
609.05        61.51132
609.48        61.50033
609.92        61.79668
610.35        61.16401
610.78        62.33409
611.21          62.752
611.64        62.41787
612.07        62.27411
612.50        62.19808
612.94          62.008
613.37        61.71204
613.80        61.98427
614.23        61.75947
614.66        61.77875
615.09        61.72869
615.52        61.73563
615.96        61.80158
616.39         61.8217
616.82        61.79093
617.25        61.90597
617.68        62.16564
618.11        61.80198
618.54        61.04004
618.97        60.95777
619.40        61.60772
619.84        61.51366
620.27        61.90992
620.70        62.04104
621.13        62.25164
621.56        61.94555
621.99        61.36656
622.42        61.38972
622.85        61.93839
623.28        61.70863
623.71        61.41586
624.14        61.56223
624.57        61.09796
625.00        61.35008
625.43        61.28477
625.86        61.39673
626.29        61.43378
626.72        61.67933
627.15        61.60759
627.58         61.6981
628.01        61.73817
628.44        61.53584
628.87        61.23197
629.30        60.84967
629.73        61.25257
630.16        61.37269
630.59        61.40057
631.02        61.37967
631.45        61.34275
631.88        61.37954
632.31        61.48153
632.74        61.55049
633.17        61.55243
633.60        61.50201
634.03        61.39832
634.46        61.24168
634.89        61.06105
635.32        60.90922
635.75        60.80472
636.18        60.72706
636.61        60.69957
637.04        60.71843
637.47        60.77954
637.89        60.88784
638.32        60.98435
638.75        60.99931
639.18        60.91768
639.61        60.78506
640.04        60.61922
640.47        60.52919
640.90        60.53096
641.33        60.60392
641.76        60.72405
642.18        60.85979
642.61          60.971
643.04        61.06826
643.47        61.15004
643.90        61.21389
644.33        61.25333
644.76        61.27093
645.18        61.26889
645.61        61.17294
646.04        60.98441
646.47        60.87476
646.90        60.92138
647.33        60.52537
647.75        60.84406
648.18        60.90224
648.61        61.04692
649.04        61.25811
649.47        61.50824
649.89        61.81999
650.32        62.05473
650.75        61.95987
651.18        61.64862
651.61        61.44331
652.03        61.42974
652.46        61.76095
652.89         62.1867
653.32        61.90541
653.74        61.22875
654.17        60.83461
654.60        60.56372
655.03         61.6741
655.46         60.9675
655.88        60.49189
656.31        63.84936
656.74        68.72799
657.16        65.17827
657.59        61.17523
658.02        61.53586
658.45        62.41908
658.87         62.5428
659.30        61.47577
659.73        61.39896
660.15        61.66055
660.58        61.24691
661.01        61.27912
661.44        61.18826
661.86        60.95884
662.29        60.62643
662.72        60.71184
663.14        61.13967
663.57        61.02565
664.00        60.49287
664.42        60.47728
664.85        60.95379
665.27        61.14586
665.70        61.01256
666.13        61.00948
666.55        61.13627
666.98        61.14262
667.41        61.04907
667.83        60.98088
668.26        60.94804
668.69        60.94808
669.11        60.94107
669.54        60.84679
669.96        60.66104
670.39        60.43373
670.82        60.29076
671.24        60.33747
671.67        60.60695
672.09        61.21583
672.52        61.97496
672.94        62.04025
673.37        62.06568
673.80        61.61457
674.22        61.11628
674.65        60.86968
675.07        60.97443
675.50        61.31266
675.92        61.73554
676.35        61.97195
676.77         61.9564
677.20        61.78191
677.62        61.54779
678.05        61.41211
678.47        61.41612
678.90        61.49712
679.32        61.61263
679.75        61.75542
680.17           61.91
680.60        62.01158
681.02        62.01155
681.45        62.21579
681.87        61.97326
682.30         61.8145
682.72        61.62248
683.15        61.52984
683.57        61.57014
684.00        61.71627
684.42        61.89798
684.85        61.99365
685.27         61.9671
685.70        61.81019
686.12        61.59181
686.54        61.58668
686.97        61.75283
687.39        61.79588
687.82        61.66801
688.24         61.5762
688.66        61.52049
689.09        61.32937
689.51         61.0818
689.94        61.09928
690.36        61.39661
690.78         61.6221
691.21        61.63691
691.63        62.20018
692.06        61.73149
692.48        61.93659
692.90        62.28238
693.33         62.4042
693.75        62.29229
694.17        62.09419
694.60        61.88871
695.02        62.19719
695.44        62.15726
695.87        62.47472
696.29        62.77732
696.71        62.83396
697.14        62.61359
697.56        62.23283
697.98        61.85907
698.41        61.67567
698.83        61.70298
699.25        61.92463
699.68        62.20754
700.10        62.39058
700.52        62.39422
700.94        62.27114
701.37        62.09616
701.79        62.01308
702.21        62.04609
702.64        62.15304
703.06        62.26348
703.48        62.27306
703.90        62.16739
704.33         61.9934
704.75        61.82617
705.17        61.76762
705.59        61.84109
706.01        61.99892
706.44        62.20264
706.86        62.39467
707.28        62.52502
707.70        62.67866
708.12         62.8162
708.55        62.71453
708.97        62.43971
709.39        62.36269
709.81        62.49563
710.23        62.54942
710.66        62.51889
711.08        62.60984
711.50        62.78864
711.92        62.92032
712.34        62.98866
712.76        63.02451
713.19        63.02644
713.61        63.05266
714.03        63.08646
714.45        63.10445
714.87        63.10024
715.29        63.06874
715.71        63.00579
716.13        62.92119
716.56        62.79014
716.98        62.63632
717.40        62.45463
717.82         62.2621
718.24        62.10555
718.66        62.05648
719.08         62.1241
719.50        62.27645
719.92        62.47501
720.34        62.65495
720.76        62.79339
721.19        62.89782
721.61        62.95757
722.03        62.95788
722.45        62.93083
722.87        62.72933
723.29        62.42424
723.71        62.55657
724.13        63.15375
724.55        62.70078
724.97        63.09468
725.39        62.98424
725.81        62.94136
726.23        62.76144
726.65        62.53901
727.07        62.47449
727.49        62.58161
727.91        62.81857
728.33        63.10756
728.75        63.31733
729.17        63.40471
729.59        63.40901
730.01        63.37965
730.43        63.39454
730.85        63.47438
731.27        63.58455
731.69        63.69482
732.10        63.76938
732.52        63.79197
732.94        63.77882
733.36        63.73466
733.78        63.66151
734.20        63.57553
734.62        63.49475
735.04        63.42832
735.46        63.38537
735.88        63.36085
736.30        63.34661
736.72        63.37733
737.13        63.45418
737.55        63.52019
737.97        63.79077
738.39        64.15261
738.81        63.90007
739.23        63.24538
739.65        63.45563
740.06        64.32932
740.48        64.54509
740.90        64.02855
741.32        63.51846
741.74        63.21019
742.16        63.07811
742.57        63.19482
742.99        63.57347
743.41        64.07016
743.83        64.36215
744.25         64.4099
744.67        64.42821
745.08        64.48329
745.50        64.49947
745.92          64.517
746.34        64.58894
746.75        64.67051
747.17        64.67419
747.59        64.57864
748.01        64.40184
748.42        64.20817
748.84        64.07976
749.26         63.9983
749.68        64.01646
750.09        64.09091
750.51        63.80614
750.93        63.39001
751.35         63.8604
751.76        65.00807
752.18        65.45555
752.60        65.08546
753.01          64.638
753.43        64.30607
753.85        64.11579
754.27        64.13535
754.68        64.32671
755.10        64.60118
755.52        64.81756
755.93        64.94969
756.35        65.07838
756.77        65.14543
757.18         65.1446
757.60        65.11624
758.02        64.75314
758.43         64.2942
758.85        64.84071
759.26        66.18963
759.68        66.57306
760.10        66.03116
760.51        65.81904
760.93        65.51015
761.34        65.43697
761.76        65.53056
762.18        65.18114
762.59        64.61173
763.01        64.82702
763.42        65.73659
763.84        66.01683
764.26         65.6065
764.67        65.14513
765.09        64.85062
765.50        64.83655
765.92        65.06064
766.33        64.99107
766.75        64.63168
767.16         64.6954
767.58         65.1645
768.00        65.54477
768.41        65.78674
768.83         66.1981
769.24        66.61217
769.66        66.39061
770.07        65.65823
770.49         65.1575
770.90        64.97707
771.32        64.91372
771.73         64.9654
772.15        65.09122
772.56        65.29447
772.97        65.63335
773.39        66.01721
773.80        66.31081
774.22        66.43196
774.63        66.44781
775.05          66.367
775.46        66.26972
775.88        66.16898
776.29        66.06292
776.70        65.97369
777.12        65.94611
777.53        66.00553
777.95        66.13357
778.36        66.27716
778.77        66.30356
779.19        66.19916
779.60        66.02138
780.02        65.85231
780.43        65.83181
780.84        66.00932
781.26         66.2775
781.67        66.60957
782.09        67.01896
782.50        67.37422
782.91        67.35555
783.33         67.0035
783.74        66.79139
784.15        66.74509
784.57        66.62743
784.98        66.46545
785.39        66.40495
785.81        66.46001
786.22        66.60653
786.63        66.78443
787.04        66.88486
787.46        66.89795
787.87        66.81641
788.28        66.73763
788.70        66.78791
789.11        66.96127
789.52        67.25946
789.93        67.56675
790.35        67.59164
790.76        67.37244
791.17        67.19478
791.58        67.11418
792.00        67.05563
792.41        67.08188
792.82        67.11825
793.23        67.21919
793.65        67.75054
794.06        68.53291
794.47         68.7207
794.88        68.33221
795.29        68.07825
795.71         67.9347
796.12        67.60828
796.53        67.17111
796.94        66.75926
797.35        66.54774
797.76        67.02652
798.18        67.94305
798.59        68.36725
799.00        68.13725
799.41        67.70684
799.82        67.30195
800.23        67.11498
800.64        67.22974
801.06        67.54965
801.47        67.96972
801.88        68.19187
802.29        68.12638
802.70         67.8604
803.11        67.52428
803.52        67.32159
803.93        67.31553
804.34        67.44414
804.75        67.62803
805.17        67.72934
805.58        67.72904
805.99        67.66749
806.40        67.60928
806.81        67.60893
807.22        67.69794
807.63        67.93295
808.04        68.23076
808.45        68.33998
808.86        68.21115
809.27        67.95618
809.68        67.69087
810.09        67.58295
810.50        67.68245
810.91        67.93192
811.32        68.22785
811.73        68.39771
812.14        68.38668
812.55        68.25098
812.96        68.03797
813.37        67.83277
813.78        67.68509
814.19        67.57751
814.60        67.52786
815.01         67.5653
815.42        67.68729
815.83        67.88609
816.24        68.13383
816.65        68.35926
817.05        68.52637
817.46        68.61162
817.87        68.62718
818.28        68.55352
818.69        68.40174
819.10        68.17381
819.51          67.951
819.92        67.88722
820.33        68.01465
820.74        68.27354
821.14        68.55219
821.55        68.71262
821.96        68.69642
822.37        68.52199
822.78        68.24747
823.19        68.02299
823.60        67.90858
824.00        67.86299
824.41        67.89029
824.82        68.08722
825.23        68.44558
825.64        68.93438
826.04        69.46609
826.45        69.79034
826.86        69.87183
827.27         69.7658
827.68        69.54036
828.08         69.3442
828.49        69.19645
828.90        69.08247
829.31        69.04478
829.72        69.15065
830.12        69.42358
830.53        69.78932
830.94         70.1506
831.35         70.2801
831.75        70.13364
832.16        69.73028
832.57        69.21029
832.97        68.77669
833.38        68.50724
833.79        68.35809
834.20        68.30897
834.60        68.31156
835.01        68.35999
835.42        68.48047
835.82        68.66085
836.23        68.82661
836.64         68.9766
837.04         69.1268
837.45        69.26321
837.86        69.50274
838.26        69.85934
838.67        70.23656
839.08        70.53841
839.48        70.59538
839.89          70.372
840.29        69.91348
840.70        69.34793
841.11         68.8034
841.51        68.35747
841.92        68.00325
842.33        67.72826
842.73        67.51122
843.14        67.31782
843.54        67.18594
843.95        67.21296
844.35        67.58311
844.76         68.2535
845.17        69.14648
845.57        70.03809
845.98        70.41242
846.38        70.19496
846.79        69.54834
847.19        68.69363
847.60        68.00905
848.00        67.61345
848.41        67.38069
848.81         67.4015
849.22          67.714
849.62        68.33403
850.03        69.21011
850.43        70.08064
850.84        70.37299
851.24        69.99617
851.65        69.04187
852.05        67.91914
852.46        67.32489
852.86        67.39801
853.27        67.95262
853.67        68.57929
854.07        68.89192
854.48        68.74435
854.88        68.32973
855.29        67.70239
855.69        67.22865
856.10         66.9703
856.50        66.89551
856.90        66.93233
857.31        67.00259
857.71        67.10555
858.12        67.23668
858.52        67.45649
858.92        67.67395
859.33        67.84582
859.73        67.98816
860.13        68.09455
860.54        68.20496
860.94        68.34978
861.34        68.49236
861.75        68.54111
862.15        68.44219
862.55        68.14788
862.96        67.70943
863.36        67.21632
863.76        66.82049
864.17        66.56776
864.57        66.46554
864.97        66.43683
865.38        66.33104
865.78         66.1545
866.18        65.92002
866.58         65.7508
866.99        65.85606
867.39        66.27515
867.79        66.88474
868.19        67.47015
868.60        67.69366
869.00        67.49329
869.40        66.98941
869.80        66.33642
870.21        65.82246
870.61         65.5898
871.01        65.52667
871.41        65.62126
871.81        65.84478
872.22        66.14818
872.62        66.62133
873.02        67.13442
873.42        67.42062
873.82        67.41371
874.22         67.1569
874.63        66.92648
875.03        67.13287
875.43        67.83938
875.83        68.88272
876.23        69.93453
876.63        70.42808
877.03        70.22805
877.44        69.57729
877.84        68.68769
878.24        67.92909
878.64          67.448
879.04        67.09624
879.44         66.9817
879.84        67.27032
880.24        67.91598
880.64        68.89392
881.04        69.76044
881.44        69.71216
881.84        68.62241
882.24        66.81171
882.65        64.95753
883.05        63.93097
883.45        63.96422
883.85         64.8144
884.25        66.11187
884.65        67.15141
885.05        67.64759
885.45        67.77572
885.85        67.72852
886.25        67.81703
886.65        68.11481
887.05        68.45813
887.45        68.70606
887.85        68.67384
888.25        68.32354
888.65        67.78226
889.04        67.15701
889.44        66.61031
889.84        66.20873
890.24        65.95526
890.64        65.88158
891.04        66.03463
891.44        66.39625
891.84        66.90808
892.24          67.539
892.64         68.2401
893.04        68.96883
893.44        69.73168
893.83        70.37099
894.23        70.55788
894.63        70.26976
895.03        69.55006
895.43        68.76956
895.83        68.52065
896.23        68.91749
896.63        69.82338
897.02        70.73956
897.42        70.83788
897.82        69.98261
898.22        68.46963
898.62        66.92332
899.01        66.21286
899.41        66.52812
899.81        67.63069
900.21        68.98692
900.61        69.59423
901.00        69.14572
901.40        68.02579
901.80        66.85502
902.20        66.48708
902.59        67.10835
902.99          68.421
903.39        69.95345
903.79        70.71199
904.18           70.37
904.58        69.32883
904.98        68.15455
905.38        67.60692
905.77         67.8372
906.17        68.59138
906.57         69.5992
906.96        70.46391
907.36         70.9623
907.76        71.22501
908.15        71.28771
908.55        71.11948
908.95        70.79061
909.34        70.29613
909.74        69.72562
910.14         69.1907
910.53        68.74947
910.93          68.437
911.33        68.31844
911.72        68.48576
912.12        68.91839
912.52        69.54842
912.91        70.24817
913.31        70.79028
913.70        71.11957
914.10        71.22425
914.49        71.13767
914.89        70.86201
915.29        70.47174
915.68        69.99972
916.08        69.55334
916.47         69.2451
916.87        69.13239
917.26        69.12614
917.66         69.2629
918.05        69.57453
918.45        69.99773
918.84        70.58106
919.24        70.98351
919.64        70.73788
920.03        69.79798
920.42        68.34917
920.82        66.97689
921.21         66.3605
921.61        66.63109
922.00        67.64674
922.40        68.96236
922.79         69.8521
923.19        70.00741
923.58        69.62286
923.98        69.10323
924.37        69.02712
924.77        69.52922
925.16        70.44994
925.55        71.38676
925.95        71.63292
926.34        71.05333
926.74          69.879
927.13        68.61253
927.52        67.98244
927.92         68.1497
928.31        68.88322
928.70        69.79166
929.10         70.2061
929.49        69.96859
929.89        69.31461
930.28        68.57007
930.67        68.21142
931.07        68.36717
931.46        68.86588
931.85        69.57579
932.24        70.32462
932.64        70.98027
933.03        71.65637
933.42        72.18769
933.82        72.32323
934.21        72.06647
934.60        71.46604
934.99        70.80389
935.39        70.49817
935.78        70.63316
936.17        71.08092
936.56        71.63573
936.96        71.94365
937.35         71.9257
937.74        71.66676
938.13        71.19425
938.53        70.54391
938.92        69.78437
939.31        69.01211
939.70        68.38709
940.09        68.16553
940.49        68.32618
940.88        68.74586
941.27        69.40681
941.66        70.26839
942.05        71.20095
942.44        72.23459
942.84         72.7681
943.23        71.83858
943.62        69.50713
944.01        66.29874
944.40        63.39523
944.79        62.29437
945.18        63.20243
945.57        65.75105
945.97        69.02716
946.36        71.37348
946.75        71.93462
947.14        71.14352
947.53        69.77752
947.92        69.14248
948.31        69.59665
948.70        70.64321
949.09        71.83915
949.48        72.49854
949.87        72.39046
950.26        71.85252
950.65        71.02488
951.04        70.06602
951.43        69.12952
951.82        68.17894
952.21        67.43987
952.60        67.26614
952.99        67.68503
953.38        68.59954
953.77        69.67036
954.16        70.29214
954.55        70.25502
954.94        69.66238
955.33        68.78233
955.72        68.08551
956.11        67.73685
956.50        67.66741
956.89        67.65791
957.28        67.33933
957.66        66.67811
958.05        65.81739
958.44        65.17438
958.83        65.38724
959.22        66.54523
959.61        68.37756
960.00        70.32867
960.39        71.44014
960.78        71.39985
961.16        70.49308
961.55        69.07845
961.94        67.72746
962.33        66.70245
962.72        65.89275
963.11        65.40355
963.49        65.41861
963.88        65.89123
964.27        66.81129
964.66        67.96326
965.04        68.95509
965.43        69.57533
965.82        69.89549
966.21        69.94112
966.60        69.81425
966.98        69.60178
967.37        69.26318
967.76        68.90945
968.15        68.71622
968.53        68.74682
968.92        68.93004
969.31        69.24392
969.69        69.60277
970.08        69.91479
970.47        70.20584
970.86        70.37595
971.24        70.26705
971.63          69.885
972.02        69.35543
972.40         68.8786
972.79        68.75486
973.17        69.14388
973.56        69.84394
973.95        70.89326
974.33        72.38716
974.72        74.17684
975.11        76.24554
975.49        78.18745
975.88        79.00552
976.26        78.42825
976.65        76.70904
977.04        74.40212
977.42        72.24132
977.81        70.51361
978.19        69.03239
978.58        67.92387
978.96         67.1707
979.35        66.74781
979.74         66.6371
980.12        66.70583
980.51        66.56312
980.89        66.20387
981.28        65.74716
981.66         65.2759
982.05        64.89571
982.43        64.71783
982.82        64.63245
983.20        64.99806
983.59        66.40052
983.97         68.9594
984.35         72.5394
984.74        76.06026
985.12         77.7485
985.51        76.89568
985.89        74.12434
986.28        70.79768
986.66         68.5371
987.04        67.81474
987.43        68.08902
987.81        68.93967
988.20         69.3787
988.58        69.15485
988.96        68.74355
989.35        68.15945
989.73        67.48853
990.12        66.79304
990.50        65.86637
990.88        65.30785
991.27        66.10159
991.65        68.38788
992.03        72.12284
992.42        75.84289
992.80        76.80733
993.18        74.05163
993.56        68.81269
993.95        63.58022
994.33        60.89676
994.71        61.25343
995.10        63.88379
995.48        67.77826
995.86         70.1311
996.24        69.74904
996.63        67.65295
997.01        65.10352
997.39        63.76697
997.77        64.05601
998.15        65.27917
998.54        67.16358
998.92        69.31189
999.30        71.40512
999.68        73.70238
1000.06        75.51481
1000.45        75.54209
1000.83        73.77316
1001.21        70.49976
1001.59        67.17654
1001.97        65.81378
1002.35        66.76608
1002.73        69.64754
1003.12        73.22263
1003.50        75.19523
1003.88        74.77069
1004.26        72.62505
1004.64        70.16859
1005.02        69.70132
1005.40        71.69897
1005.78        75.22984
1006.16        79.01005
1006.54        80.96881
1006.92        80.40855
1007.30        78.04166
1007.69         74.2476
1008.07        70.13332
1008.45        66.65086
1008.83        63.76783
1009.21        62.05287
1009.59        62.04105
1009.97        63.63626
1010.35        66.93375
1010.73          71.089
1011.11        73.76657
1011.49        73.81033
1011.86        71.40954
1012.24        68.30579
1012.62        67.34309
1013.00        69.35925
1013.38        74.04735
1013.76        79.65881
1014.14        81.45609
1014.52        78.18307
1014.90        72.52417
1015.28        67.52541
1015.66        65.80634
1016.04         67.5135
1016.41        72.08822
1016.79        78.68692
1017.17        85.28284
1017.55        89.85909
1017.93        92.54762
1018.31        92.21657
1018.69        87.92706
1019.06         80.8782
1019.44        73.00024
1019.82        66.42395
1020.20        62.56777
1020.58        61.08581
1020.95        61.65382
1021.33        63.63689
1021.71        65.43891
1022.09        66.20152
1022.46        65.87086
1022.84        65.86003
1023.22        68.19053
1023.60        73.58727
1023.97        82.66969
1024.35        92.62768
1024.73        94.37557
