SpectraSmart Spectrum 2.9.0.0
--------- Device Information -----------
Spectrum Name :  反射率_0
Saving Time :  2024/05/03 20:09:50
Spectro-Module Model Name : SE2030-DUVN
Spectro-Module Serial Number : OS361AC55029948
Wavelength Start : 200
Wavelength End : 1025
Wavelength Unit : Wavelength(nm)
Spectrum Unit : Reflectance(%)
-----------Spectrum Setting ------------
Integration Time : 20ms
Average : 10
Boxcar : 0
Background removal :  enabled
linearity correction :  enabled
SC :  disabled
Intensity correction :  disabled
DWT denoise :  enabled
savitzky-golay :  disabled
FFT :  disabled
Running average :  disabled
Kalman :  disabled
High pass :  disabled
---------------BEGIN--------------------
Wavelength(nm)             Reflectance(%)
200.29               0
200.75       -20.40413
201.21        -56.1516
201.67         2304.46
202.13        94.45136
202.58        58.58928
203.04        45.13845
203.50        40.04619
203.96        43.94011
204.42        61.39657
204.88         131.728
205.34       -2410.016
205.80       -220.6615
206.26       -229.1281
206.72       -47082.82
207.18        140.2056
207.64        75.88219
208.10        64.22115
208.55        82.08108
209.01        333.2997
209.47         506.304
209.93        114.1933
210.39        72.38611
210.85        62.83376
211.31        65.30161
211.77        77.43429
212.23        109.8796
212.69        192.8177
213.14        246.8596
213.60        135.3182
214.06        63.04582
214.52        36.02169
214.98         30.8924
215.44        41.39185
215.90        97.42213
216.36       -719.9922
216.81       -146.7714
217.27       -140.3286
217.73       -218.0128
218.19       -701.4481
218.65       -12500.25
219.11       -794.3948
219.57        -173.443
220.02       -74.22051
220.48       -107.6639
220.94        145.5051
221.40        57.68785
221.86         46.4303
222.32        44.56556
222.77        46.23472
223.23        51.66873
223.69        60.18427
224.15        63.01754
224.61        55.57869
225.06        45.01621
225.52        38.38168
225.98        37.92411
226.44        42.67813
226.90        52.01667
227.36        63.87743
227.81        69.84648
228.27        65.53437
228.73        55.96524
229.19        46.16673
229.65        39.71826
230.10        36.39835
230.56        34.86346
231.02        34.43716
231.48         34.7373
231.93        35.43447
232.39        36.61634
232.85        37.85206
233.31        38.50644
233.77          38.508
234.22        38.00545
234.68        37.43179
235.14        37.54262
235.60          38.614
236.05        40.59134
236.51         43.1244
236.97        45.43806
237.43        47.04334
237.88        48.12928
238.34        49.16605
238.80        50.97015
239.26        54.21621
239.71        61.52006
240.17        71.81049
240.63        84.33021
241.08        91.06287
241.54        87.58215
242.00         80.0683
242.46        77.81409
242.91        83.42915
243.37        98.13334
243.83        125.3169
244.28        151.8424
244.74        146.9944
245.20        115.0548
245.66        80.44218
246.11         62.1022
246.57        58.78493
247.03        61.99356
247.48        67.05582
247.94        69.89204
248.40        69.93008
248.85        69.45187
249.31        67.54897
249.77        62.23495
250.22        55.46473
250.68        49.06121
251.14        46.12915
251.59        50.02391
252.05        62.03035
252.51        84.91371
252.96        119.0169
253.42        147.3812
253.88        151.3027
254.33         135.039
254.79        113.9812
255.25        100.4286
255.70        94.10596
256.16        91.57865
256.62        90.36621
257.07         89.1007
257.53        87.97195
257.99        86.66045
258.44        84.86614
258.90        82.98895
259.35        80.67129
259.81        78.60715
260.27        76.46073
260.72        73.98669
261.18        71.76762
261.63        69.58134
262.09        67.96442
262.55         66.9435
263.00        66.28983
263.46        65.94455
263.91         65.5284
264.37        64.91136
264.83        63.98849
265.28         62.8335
265.74        61.59498
266.19        60.14158
266.65        58.63651
267.11        57.02035
267.56         55.4365
268.02        54.20035
268.47        53.26898
268.93        52.59435
269.38        51.92741
269.84        50.86967
270.30        49.41502
270.75         47.7338
271.21          46.202
271.66        45.22088
272.12        44.83964
272.57        44.82421
273.03        44.90271
273.48        44.67012
273.94        44.02681
274.39        43.11893
274.85        42.03642
275.31        40.79216
275.76        39.46093
276.22        38.13865
276.67        36.99865
277.13        36.40807
277.58        36.29428
278.04         36.5605
278.49         36.8665
278.95        36.74252
279.40        36.06128
279.86        35.08762
280.31        34.01924
280.77         33.2494
281.22        32.75493
281.68        32.45985
282.13        32.21345
282.59        31.89084
283.04        31.44038
283.50        30.96252
283.95        30.50253
284.41        30.15138
284.86         29.9167
285.32        29.80889
285.77        29.77477
286.22        29.80822
286.68        29.89976
287.13        29.98986
287.59        30.13294
288.04        30.34999
288.50        30.64894
288.95        30.98652
289.41        31.24932
289.86        31.20784
290.32        30.88724
290.77        30.37967
291.22        29.93203
291.68        29.88078
292.13        30.28931
292.59        31.09785
293.04        32.14949
293.50         33.1798
293.95        34.09142
294.40        34.96461
294.86        35.91875
295.31        37.13836
295.77        38.67651
296.22        40.44189
296.68        42.32288
297.13        44.12287
297.58        45.73584
298.04         47.2338
298.49        48.61258
298.95        49.95335
299.40        51.28645
299.85        52.61567
300.31        54.06498
300.76         55.7779
301.21        57.78091
301.67        60.04171
302.12        62.33993
302.58        64.36601
303.03        66.00706
303.48        67.35936
303.94        68.67818
304.39        70.25381
304.84        72.19933
305.30        74.41231
305.75        76.65356
306.20        78.60378
306.66        80.19855
307.11        81.49075
307.57         82.6851
308.02        83.93846
308.47        85.34982
308.93         86.8605
309.38         88.3577
309.83        89.77892
310.29        91.09675
310.74        92.31653
311.19        93.45627
311.65        94.51723
312.10        95.47206
312.55        96.31183
313.00         97.0211
313.46        97.60213
313.91        98.04615
314.36        98.41176
314.82        98.77007
315.27        99.19315
315.72         99.7201
316.18        100.3346
316.63        101.0122
317.08        101.7304
317.53        102.4666
317.99        103.2014
318.44        103.9136
318.89        104.5045
319.35        104.9455
319.80        105.2554
320.25        105.4775
320.70        105.7143
321.16        105.9792
321.61        106.2669
322.06        106.5412
322.51        106.7454
322.97         106.858
323.42        106.9403
323.87        106.9899
324.32        107.0131
324.78        107.0161
325.23         107.041
325.68         107.132
326.13        107.3798
326.59        107.7697
327.04        108.3255
327.49        108.9535
327.94        109.5366
328.39        110.0207
328.85         110.374
329.30        110.6758
329.75         110.918
330.20        111.1126
330.66        111.2282
331.11         111.318
331.56        111.3448
332.01        111.3351
332.46         111.329
332.92        111.3622
333.37        111.6128
333.82        112.0708
334.27         112.697
334.72        113.4345
335.17        114.1825
335.63        114.8481
336.08        115.4885
336.53        116.0198
336.98        116.3779
337.43        116.5631
337.88        116.6009
338.34         116.567
338.79        116.6191
339.24        116.8086
339.69        117.1354
340.14        117.5838
340.59        118.1084
341.05        118.6812
341.50        119.3118
341.95        119.9975
342.40        120.7509
342.85        121.5447
343.30        122.3344
343.75        123.0259
344.20         123.487
344.66        123.7158
345.11        123.7499
345.56        123.6916
346.01        123.6918
346.46        123.8101
346.91        124.0144
347.36        124.3157
347.81        124.7208
348.26        125.2084
348.72        125.7809
349.17          126.33
349.62        126.7081
350.07        126.8794
350.52        126.8692
350.97        126.7706
351.42        126.7524
351.87        126.8392
352.32        126.9528
352.77        127.0068
353.22        126.8681
353.67        126.5077
354.13        126.0261
354.58        125.4035
355.03        124.6778
355.48         123.905
355.93        123.1165
356.38        122.4269
356.83        122.0125
357.28        121.8874
357.73        121.9642
358.18        122.1266
358.63        122.1798
359.08        122.0403
359.53        121.7496
359.98        121.2523
360.43        120.4847
360.88        119.4641
361.33        118.2016
361.78        116.8966
362.23        115.8533
362.68        115.1366
363.13        114.7024
363.58        114.3015
364.03        113.5211
364.48        112.2978
364.93        110.7712
365.38        109.2899
365.83        108.3837
366.28        108.1451
366.73        108.3883
367.18        108.7302
367.63        108.5578
368.08        107.7143
368.53         106.392
368.98         104.921
369.43        103.7965
369.88         103.144
370.33        102.8154
370.78        102.5813
371.23        102.0739
371.68         101.203
372.13        100.1102
372.58        99.02131
373.03         98.2508
373.48        97.85593
373.93        97.71598
374.38        97.61172
374.83        97.20724
375.28        96.41795
375.72        95.32598
376.17        94.20518
376.62        93.30474
377.07        92.68201
377.52        92.26195
377.97        91.88956
378.42        91.33369
378.87        90.56404
379.32        89.67551
379.77        88.86361
380.22        88.38416
380.67        88.26236
381.11        88.42587
381.56        88.60564
382.01        88.43276
382.46        87.82253
382.91        86.89694
383.36        85.92651
383.81        85.30132
384.26        85.09268
384.71        85.18181
385.15        85.31246
385.60         85.1085
386.05        84.48096
386.50        83.56605
386.95        82.62566
387.40        82.04437
387.85        81.89606
388.29        82.00798
388.74        82.20796
389.19         82.0715
389.64        81.52315
390.09        80.69136
390.54        79.82914
390.98        79.25973
391.43         79.0898
391.88        79.32139
392.33        79.69672
392.78         79.4095
393.23        78.60197
393.67        78.35476
394.12        78.62479
394.57        78.20033
395.02        77.23044
395.47        76.88824
395.91        77.16756
396.36        77.16071
396.81        76.86182
397.26        76.77482
397.71        76.79641
398.15        76.62206
398.60        76.33884
399.05        75.72191
399.50        75.01891
399.95        75.14182
400.39         75.8912
400.84        75.78148
401.29        74.87067
401.74        74.41421
402.18        74.47069
402.63         74.3634
403.08        74.18274
403.53         73.7619
403.97        74.14757
404.42        74.35275
404.87        74.57325
405.32        74.58434
405.76         74.3397
406.21        74.01252
406.66        73.63042
407.11        73.13195
407.55        72.66987
408.00        72.46692
408.45        72.51387
408.90        72.73014
409.34        72.89701
409.79        72.49023
410.24        71.70375
410.68        71.35226
411.13        71.49683
411.58        71.67908
412.03        71.74523
412.47        71.66979
412.92        71.38927
413.37        70.93533
413.81        70.47708
414.26        70.33793
414.71        70.53085
415.15        71.01893
415.60        71.53648
416.05        71.70312
416.49        71.41899
416.94        70.82506
417.39        70.20789
417.83        69.97709
418.28         70.2241
418.73        70.80516
419.17        71.49277
419.62        71.84786
420.07        71.74154
420.51        71.28902
420.96        70.71138
421.41        70.19385
421.85        69.78144
422.30        69.66991
422.74        69.68729
423.19        69.32164
423.64        68.70322
424.08        68.79208
424.53        69.51819
424.98        69.95425
425.42        70.01679
425.87        70.33025
426.31        70.85204
426.76        70.85931
427.21        70.50749
427.65        70.74532
428.10        71.40446
428.54        71.53921
428.99        71.16861
429.44        70.66616
429.88        70.18417
430.33        70.15701
430.77        70.39289
431.22        70.26743
431.66        69.78893
432.11        69.59237
432.56        69.67454
433.00        69.89832
433.45        70.19717
433.89        70.89775
434.34        68.57965
434.78        71.61832
435.23        70.24449
435.67        68.75006
436.12        68.69951
436.57        68.94759
437.01        70.32999
437.46        70.86558
437.90        70.52593
438.35        69.98232
438.79        70.00375
439.24        69.83049
439.68        69.65435
440.13        69.86672
440.57        70.35359
441.02        70.07598
441.46        69.19595
441.91        69.65811
442.35         70.9446
442.80        70.45557
443.24        68.64855
443.69        68.81905
444.13        70.68565
444.58         71.2888
445.02        70.49168
445.47        69.89039
445.91        69.70773
446.36        69.66838
446.80        69.80499
447.24         70.1878
447.69        70.64014
448.13        70.85863
448.58        70.79968
449.02        70.57201
449.47        70.30006
449.91        70.09504
450.36        70.02383
450.80        70.03498
451.25        70.10474
451.69        70.13802
452.13        70.12506
452.58        70.13431
453.02        70.13113
453.47        70.06054
453.91        69.90581
454.36        69.68369
454.80        69.43807
455.24        69.28362
455.69         69.2588
456.13        69.30247
456.58        69.30697
457.02        69.43157
457.46        68.77438
457.91        68.73321
458.35        68.89474
458.79        69.03382
459.24        69.07366
459.68        68.55706
460.13        67.64913
460.57        67.86711
461.01        67.80807
461.46        67.46241
461.90        68.01201
462.34        67.72614
462.79        67.18111
463.23        66.81534
463.68         66.7292
464.12        66.72758
464.56        66.73655
465.01        66.73694
465.45        66.67836
465.89        66.71172
466.34        66.82179
466.78         66.9407
467.22        67.04166
467.67        66.81091
468.11        66.40311
468.55        66.39164
468.99        66.72239
469.44        66.76196
469.88        66.49145
470.32        66.27949
470.77        66.17777
471.21        66.11163
471.65        66.07217
472.10        66.07336
472.54        66.07836
472.98        66.01102
473.42        65.85011
473.87        65.77155
474.31        65.69228
474.75        65.24457
475.20        64.61486
475.64        64.48247
476.08        64.80805
476.52        64.92478
476.97         64.7826
477.41        64.80316
477.85        65.00644
478.29        65.09633
478.74        65.07241
479.18        65.40282
479.62        65.29089
480.06        65.25151
480.50        65.00433
480.95         64.8783
481.39        64.94321
481.83        64.17735
482.27        64.28032
482.72         64.5905
483.16         64.3655
483.60        64.47372
484.04        64.62089
484.48        64.36623
484.93         63.7684
485.37        64.78301
485.81        65.26452
486.25        65.12064
486.69        66.94369
487.14         67.0648
487.58        64.42658
488.02        63.84291
488.46         65.1955
488.90        63.67008
489.34        64.30852
489.79        64.66946
490.23        64.36098
490.67        64.60791
491.11        64.79939
491.55        64.72923
491.99        64.38544
492.43        64.16355
492.88         64.1152
493.32        64.11288
493.76        64.11578
494.20        64.07839
494.64        63.97314
495.08        63.90302
495.52        63.91481
495.96        63.79312
496.41        63.63102
496.85        64.08119
497.29        64.88265
497.73        64.80245
498.17        63.94938
498.61        63.62336
499.05        63.88955
499.49        63.88666
499.93        63.60443
500.37        63.50643
500.82        63.57478
501.26         63.5166
501.70          63.493
502.14        63.37459
502.58        63.25967
503.02        63.23453
503.46        63.31082
503.90         63.4445
504.34        63.56543
504.78        63.57469
505.22        63.44494
505.66        63.21926
506.10        62.96466
506.54        62.82676
506.98        62.84204
507.42         63.0577
507.86        62.81418
508.30        63.46117
508.74        62.97097
509.18        62.87846
509.62        62.71162
510.06        62.65162
510.50        62.71815
510.94         62.8757
511.38        63.05432
511.82        63.09129
512.26        62.95824
512.70        62.71367
513.14        62.43539
513.58        62.24263
514.02        62.16715
514.46        62.16409
514.90         62.2066
515.34           62.25
515.78        62.27607
516.22        62.31392
516.66        62.33228
517.10        62.27639
517.54        62.14702
517.98        61.95449
518.42        61.79218
518.86        61.80488
519.30        62.01094
519.74        62.38597
520.18        62.79729
520.62        62.95929
521.06        62.84974
521.50        62.68537
521.93        62.53212
522.37        62.38516
522.81        62.27589
523.25        62.24231
523.69        62.27129
524.13        62.30207
524.57        62.32246
525.01        62.36895
525.45        62.40697
525.89        62.37394
526.32        62.26263
526.76        62.09142
527.20        61.94453
527.64        61.96614
528.08        62.17524
528.52        62.52198
528.96        62.87757
529.40        63.03861
529.83        62.94721
530.27        62.67529
530.71        62.34102
531.15        62.13794
531.59        62.11513
532.03        62.22422
532.46        62.35863
532.90        62.34849
533.34        62.16994
533.78        61.90339
534.22        61.66354
534.66        61.61258
535.09        61.76389
535.53        62.04823
535.97        62.38108
536.41        62.58494
536.85        62.60009
537.28        62.64746
537.72        62.68734
538.16        62.27031
538.60        61.61856
539.04        61.59587
539.47        62.10814
539.91        62.31343
540.35        62.17155
540.79        62.16318
541.22        62.25303
541.66        62.28167
542.10        62.26754
542.54        61.82246
542.97         61.6745
543.41        61.69209
543.85        61.97477
544.29        61.99779
544.72        61.76836
545.16        61.69852
545.60        61.77215
546.04        61.81861
546.47        61.79811
546.91        61.66948
547.35        61.49751
547.79        61.48663
548.22        61.63023
548.66        61.83985
549.10        62.04132
549.53        62.16816
549.97        62.19398
550.41        62.18649
550.84        62.12353
551.28         61.9863
551.72        61.81166
552.15        61.54988
552.59        61.22571
553.03         61.4221
553.46        61.08187
553.90        61.13185
554.34        61.22095
554.77        61.32915
555.21         61.4547
555.65        61.47049
556.08        61.66945
556.52        61.77803
556.96        61.84975
557.39        61.84816
557.83        61.80748
558.27        61.70988
558.70        61.59235
559.14        61.62819
559.57        61.75716
560.01        61.72031
560.45        61.55741
560.88        61.54314
561.32        61.67532
561.75        61.77961
562.19         61.8539
562.63        61.64812
563.06        61.27838
563.50        61.54913
563.93        62.25083
564.37        62.08419
564.80        61.20978
565.24        61.08723
565.68        61.63114
566.11        61.77688
566.55        61.52711
566.98        61.38762
567.42        61.40567
567.85        61.65779
568.29        61.69076
568.72        61.73188
569.16        61.74243
569.60        61.77566
570.03        61.79388
570.47        62.02935
570.90        62.28301
571.34        61.80358
571.77        62.71804
572.21        62.22183
572.64        62.23786
573.08        62.08599
573.51        62.65497
573.95        62.46022
574.38        61.99156
574.82        61.35328
575.25        62.85738
575.69        63.02886
576.12        62.71817
576.56        61.99416
576.99         62.2121
577.42        63.11111
577.86        62.43468
578.29        62.78589
578.73        62.64886
579.16        62.78662
579.60        62.82224
580.03        62.84233
580.47         62.7556
580.90        62.58308
581.33        61.94911
581.77        62.50115
582.20        63.49609
582.64        63.30136
583.07        63.54016
583.51        62.89534
583.94        62.14896
584.37        62.31068
584.81        62.22312
585.24        62.32685
585.68        63.15808
586.11         62.6328
586.54        62.91964
586.98        62.15823
587.41        61.85939
587.85        62.49046
588.28        62.77534
588.71        62.65458
589.15        61.97333
589.58         62.5494
590.01         61.5777
590.45        61.55671
590.88         61.6616
591.31        62.08795
591.75        62.58405
592.18        62.48879
592.61        62.00325
593.05        61.74715
593.48        62.89571
593.91        62.76075
594.35        62.75484
594.78        62.45037
595.21        62.25936
595.65        62.07165
596.08        61.83798
596.51        62.44791
596.94        62.17808
597.38        62.15868
597.81        61.84893
598.24        62.22209
598.68        62.03284
599.11        61.33465
599.54        62.72007
599.97        61.97373
600.41        62.12502
600.84        61.94559
601.27        62.07969
601.70        62.01525
602.14        61.98527
602.57         61.9959
603.00         62.0376
603.43        62.18487
603.87        61.92951
604.30        62.16292
604.73        62.08007
605.16        62.37851
605.60        61.37029
606.03        61.41353
606.46        61.94715
606.89        61.75379
607.32        62.01016
607.76        61.27993
608.19        61.78974
608.62        61.87769
609.05         61.7631
609.48        61.67923
609.92        61.85012
610.35        61.13836
610.78        62.36337
611.21        63.18048
611.64        62.53269
612.07        62.38647
612.50        62.28629
612.94        62.10297
613.37        61.86706
613.80        61.72393
614.23        61.70926
614.66        61.55746
615.09         61.6842
615.52        61.75663
615.96        61.82194
616.39        61.99093
616.82        62.26115
617.25        61.58982
617.68        62.23042
618.11        61.70542
618.54        60.95043
618.97        60.87331
619.40        61.49813
619.84         61.7612
620.27        61.86528
620.70        62.06306
621.13        62.45346
621.56        61.70804
621.99        61.12561
622.42        61.18272
622.85        61.63902
623.28        61.17477
623.71        60.99569
624.14        61.38274
624.57        61.09446
625.00        60.95121
625.43        61.29635
625.86        61.29576
626.29        61.08976
626.72         61.6152
627.15        61.39596
627.58         61.4626
628.01        61.28902
628.44        61.58566
628.87        61.23435
629.30        61.04543
629.73        60.95674
630.16        61.11898
630.59        60.90022
631.02        60.92776
631.45        60.99284
631.88        61.05017
632.31        61.07998
632.74        61.10087
633.17        61.10565
633.60        61.06499
634.03        60.98038
634.46        60.86229
634.89        60.72881
635.32        60.61168
635.75        60.52426
636.18         60.4603
636.61        60.42694
637.04        60.43684
637.47        60.49091
637.89        60.57236
638.32        60.62967
638.75        60.67555
639.18        60.71327
639.61        60.49845
640.04        60.51225
640.47        60.43582
640.90        60.41932
641.33        60.43583
641.76        60.48773
642.18        60.57833
642.61        60.67363
643.04        60.78304
643.47        60.87594
643.90        60.90152
644.33         60.8488
644.76        60.74264
645.18        60.63122
645.61        60.51076
646.04        60.39654
646.47         60.4333
646.90         60.6545
647.33        60.38616
647.75        60.75245
648.18        60.80999
648.61        60.92434
649.04        61.06364
649.47        61.22676
649.89        61.53778
650.32        61.82302
650.75        61.63106
651.18        61.09663
651.61        60.77082
652.03        60.75539
652.46        61.03306
652.89        61.38454
653.32        61.17272
653.74        60.65419
654.17        60.32595
654.60         60.2017
655.03        61.06996
655.46        60.76426
655.88        60.53043
656.31        63.14124
656.74        68.37809
657.16        65.35931
657.59         62.1571
658.02        62.34655
658.45        62.11207
658.87        62.23916
659.30        61.13636
659.73        60.72845
660.15        61.00404
660.58        60.79038
661.01        60.70061
661.44        60.28168
661.86        60.19227
662.29        60.36963
662.72        60.53843
663.14        60.63182
663.57        60.40595
664.00        60.01185
664.42         60.0174
664.85        60.40195
665.27        60.57827
665.70        60.49461
666.13        60.50742
666.55         60.6101
666.98        60.57643
667.41        60.44862
667.83        60.38962
668.26         60.4155
668.69        60.50277
669.11        60.58117
669.54        60.53321
669.96        60.34281
670.39        60.05318
670.82         59.8134
671.24         59.8068
671.67        60.05979
672.09        60.59168
672.52        61.22322
672.94        61.21206
673.37        61.21043
673.80        60.73936
674.22         60.2252
674.65         59.9884
675.07        60.12525
675.50        60.50855
675.92        60.97831
676.35         61.2468
676.77         61.2422
677.20        61.06048
677.62        60.80743
678.05        60.65201
678.47        60.64129
678.90        60.71333
679.32        60.82446
679.75        60.96453
680.17        61.11726
680.60        61.21789
681.02        61.22608
681.45        61.45549
681.87        61.26331
682.30        61.16652
682.72        61.01611
683.15        60.93304
683.57        60.95567
684.00        60.98882
684.42        60.97134
684.85        61.24488
685.27        61.07333
685.70        60.99423
686.12        60.83538
686.54        60.88686
686.97        61.06807
687.39        60.99829
687.82          60.698
688.24        60.54989
688.66        60.57639
689.09        60.54769
689.51        60.47095
689.94        60.51477
690.36        60.70093
690.78        60.86114
691.21         60.8849
691.63        61.42313
692.06        60.92701
692.48          61.159
692.90        61.56664
693.33        61.70439
693.75        61.54328
694.17        61.25007
694.60        60.94862
695.02        61.18057
695.44        61.10367
695.87        61.53041
696.29         62.0023
696.71        61.86859
697.14        61.23784
697.56        60.89361
697.98        60.90478
698.41        61.12422
698.83         60.8863
699.25        61.09658
699.68        61.44937
700.10        61.64762
700.52        61.61153
700.94        61.44814
701.37        61.23753
701.79        61.11315
702.21        61.10485
702.64        61.16417
703.06        61.24568
703.48        61.28934
703.90        61.28073
704.33        61.24855
704.75        61.21348
705.17        61.19162
705.59        61.19276
706.01        61.19749
706.44         61.2247
706.86        61.33733
707.28        61.51649
707.70        61.74059
708.12         61.9431
708.55        62.01552
708.97         61.9332
709.39        61.73315
709.81        61.49075
710.23        61.35833
710.66        61.38086
711.08        61.51752
711.50        61.71187
711.92        61.89612
712.34        62.04028
712.76        62.16388
713.19        62.23068
713.61        62.23589
714.03        62.15749
714.45         61.9966
714.87        61.81437
715.29        61.70751
715.71        61.69273
716.13        61.75111
716.56        61.80216
716.98        61.76761
717.40        61.61034
717.82        61.37826
718.24        61.15143
718.66        61.05591
719.08        61.11966
719.50        61.28921
719.92        61.51976
720.34        61.74031
720.76        61.92069
721.19        62.07254
721.61        62.17277
722.03        62.18226
722.45        62.12928
722.87        61.87689
723.29        61.51039
723.71        61.58867
724.13         62.1455
724.55        61.68627
724.97        62.08928
725.39        61.99398
725.81         61.9504
726.23        61.84956
726.65        61.78645
727.07        61.50541
727.49        61.74386
727.91        61.88264
728.33        62.09024
728.75        62.27005
729.17        62.39624
729.59        62.48383
730.01        62.54114
730.43        62.60083
730.85        62.66843
731.27        62.72614
731.69        62.76863
732.10        62.79774
732.52        62.80976
732.94        62.81077
733.36         62.7931
733.78         62.7399
734.20        62.65907
734.62        62.57066
735.04         62.4965
735.46        62.46473
735.88         62.4739
736.30        62.51177
736.72          62.584
737.13        62.65492
737.55        62.66737
737.97        62.81725
738.39        63.04146
738.81        62.81197
739.23        62.30958
739.65        62.54081
740.06        63.32066
740.48        63.55436
740.90        63.16961
741.32        62.77888
741.74        62.51794
742.16        62.33703
742.57        62.30234
742.99        62.41014
743.41         62.6168
743.83        62.83321
744.25        63.01915
744.67        63.17997
745.08         63.3222
745.50         63.4135
745.92        63.46502
746.34        63.47551
746.75        63.42617
747.17        63.31347
747.59        63.13986
748.01        62.89922
748.42        62.67447
748.84        62.58217
749.26        62.60187
749.68        62.76955
750.09        63.00454
750.51        62.83144
750.93        62.45504
751.35        62.89912
751.76        63.96307
752.18        64.30452
752.60        63.82576
753.01        63.25191
753.43        62.81122
753.85        62.59604
754.27        62.68019
754.68        63.00401
755.10        63.42621
755.52        63.71789
755.93        63.84099
756.35         63.9084
756.77        63.88866
757.18        63.87327
757.60        63.92577
758.02        63.55606
758.43        63.04939
758.85        63.86976
759.26        65.66243
759.68        65.94067
760.10        64.89619
760.51        64.16572
760.93        64.06818
761.34        64.18653
761.76        64.41001
762.18         64.2943
762.59        63.88245
763.01        63.78388
763.42        64.03848
763.84        64.03074
764.26        63.80068
764.67         63.6115
765.09        63.55544
765.50        63.69555
765.92        63.95354
766.33        63.84715
766.75        63.42387
767.16        63.41309
767.58        63.81323
768.00        64.19926
768.41        64.49003
768.83        64.74779
769.24         64.8705
769.66        64.68362
770.07        64.25423
770.49        63.76424
770.90        63.36669
771.32         63.4574
771.73        63.95644
772.15        64.25204
772.56         64.3035
772.97        64.44192
773.39         64.6412
773.80        64.76053
774.22        64.75299
774.63        64.69125
775.05        64.56422
775.46        64.41523
775.88        64.24908
776.29        64.08061
776.70        63.94769
777.12         63.9167
777.53        64.01903
777.95        64.22546
778.36        64.47017
778.77        64.60718
779.19         64.6076
779.60        64.51367
780.02        64.41252
780.43        64.44729
780.84        64.65015
781.26        64.95847
781.67        65.32693
782.09        65.56159
782.50        65.64447
782.91        65.73277
783.33        65.79201
783.74        65.73341
784.15        65.53319
784.57        65.26337
784.98        65.02305
785.39        64.93877
785.81        65.04118
786.22        65.30375
786.63        65.59007
787.04        65.67153
787.46        65.52282
787.87         65.1869
788.28        64.84231
788.70        64.74666
789.11        64.93065
789.52        65.32407
789.93        65.76945
790.35        65.99448
790.76        65.95505
791.17        65.74091
791.58        65.48041
792.00        65.35412
792.41        65.43834
792.82        65.66076
793.23        65.97495
793.65        66.26823
794.06        66.51859
794.47        66.78577
794.88         66.9514
795.29        66.84048
795.71        66.41207
796.12        65.78244
796.53        65.15025
796.94        64.82377
797.35        64.93867
797.76         65.5498
798.18        66.37349
798.59        66.83805
799.00        66.77917
799.41        66.40784
799.82        65.93338
800.23        65.65713
800.64        65.67134
801.06        65.84172
801.47        66.11488
801.88        66.28738
802.29         66.2936
802.70        66.21594
803.11        66.09033
803.52        65.95629
803.93        65.83316
804.34          65.692
804.75        65.58788
805.17        65.56686
805.58        65.64836
805.99        65.94909
806.40        66.34324
806.81        66.24107
807.22        65.77351
807.63        65.82149
808.04        66.33737
808.45        66.47244
808.86         66.1698
809.27        65.93417
809.68        65.84965
810.09        65.81353
810.50        65.84664
810.91        65.98127
811.32        66.14588
811.73        66.21496
812.14        66.15763
812.55        66.00412
812.96        65.81564
813.37         65.7099
813.78        65.72479
814.19        65.81883
814.60        65.95544
815.01         66.0865
815.42         66.1925
815.83        66.28522
816.24        66.36102
816.65        66.40758
817.05        66.42523
817.46        66.38522
817.87        66.31768
818.28        66.22277
818.69        66.10887
819.10        65.98003
819.51        65.88042
819.92        65.88507
820.33        66.00388
820.74        66.20358
821.14        66.40984
821.55        66.53035
821.96        66.52952
822.37        66.44111
822.78        66.29741
823.19        66.15909
823.60        66.06481
824.00        66.02467
824.41        66.02877
824.82        66.13271
825.23         66.3349
825.64        66.61318
826.04        66.96027
826.45        67.26862
826.86        67.52742
827.27        67.74743
827.68        67.87925
828.08        67.87153
828.49        67.69122
828.90        67.38593
829.31        67.08811
829.72        67.01511
830.12        67.24738
830.53         67.6748
830.94        68.18141
831.35         68.5074
831.75         68.5751
832.16        68.39639
832.57        68.08714
832.97        67.81017
833.38        67.62597
833.79        67.49907
834.20        67.37687
834.60        67.16972
835.01         66.8887
835.42        66.58861
835.82        66.37199
836.23         66.3467
836.64        66.55267
837.04        66.96141
837.45        67.43842
837.86        67.87169
838.26        68.19742
838.67        68.37576
839.08        68.40354
839.48        68.26889
839.89        67.98791
840.29        67.56292
840.70        67.06853
841.11        66.55388
841.51        66.08081
841.92        65.67869
842.33        65.39077
842.73        65.28087
843.14        65.32579
843.54        65.51227
843.95        65.86849
844.35        66.47939
844.76        67.27322
845.17        68.20301
845.57        69.05364
845.98        69.33396
846.38        68.99297
846.79        68.18692
847.19        67.19454
847.60        66.48006
848.00        66.16924
848.41        66.11395
848.81        66.31101
849.22        66.63906
849.62        67.06587
850.03        67.57362
850.43        67.99992
850.84        67.94688
851.24        67.39123
851.65        66.41542
852.05        65.34018
852.46         64.7103
852.86        64.64233
853.27        64.99432
853.67        65.51033
854.07        66.00967
854.48        66.37116
854.88        66.72979
855.29        66.92141
855.69        66.85377
856.10        66.43208
856.50        65.75262
856.90        65.04545
857.31        64.69581
857.71        64.82018
858.12        65.29263
858.52        65.98692
858.92        66.46493
859.33        66.56213
859.73          66.418
860.13        66.15417
860.54        66.00172
860.94        66.05605
861.34        66.20895
861.75        66.33112
862.15        66.31657
862.55        66.09049
862.96        65.72982
863.36        65.31379
863.76         64.9666
864.17        64.73174
864.57        64.61683
864.97        64.55876
865.38        64.44228
865.78        64.27501
866.18        64.04386
866.58        63.87359
866.99        63.97414
867.39        64.38012
867.79        64.98902
868.19        65.52579
868.60        65.55331
869.00        65.01022
869.40        64.05131
869.80        62.99726
870.21        62.41358
870.61        62.49829
871.01        63.04987
871.41        63.83149
871.81        64.49422
872.22        64.91002
872.62        65.22243
873.02         65.4737
873.42        65.72263
873.82        65.98723
874.22        66.20693
874.63         66.4036
875.03        66.61695
875.43        66.85529
875.83        67.08688
876.23         67.2862
876.63         67.3914
877.03        67.39291
877.44        67.36198
877.84        67.21407
878.24        66.83904
878.64        66.25959
879.04        65.50486
879.44        64.86591
879.84        64.76055
880.24        65.22031
880.64          66.131
881.04        67.03688
881.44        67.12495
881.84        66.23319
882.24        64.68185
882.65        63.08197
883.05        62.20265
883.45        62.25906
883.85        63.03231
884.25        64.17757
884.65        65.05638
885.05        65.41371
885.45        65.39794
885.85        65.24693
886.25        65.33246
886.65        65.73063
887.05        66.28552
887.45        66.73267
887.85        66.67432
888.25        66.04506
888.65        65.03632
889.04        63.97106
889.44        63.34819
889.84        63.28477
890.24        63.66182
890.64        64.26773
891.04        64.74412
891.44        64.97019
891.84        65.03243
892.24        65.08197
892.64         65.3521
893.04        65.89629
893.44        66.63639
893.83        67.38992
894.23        67.78535
894.63         67.7627
895.03        67.39012
895.43        66.96068
895.83         66.9379
896.23        67.40186
896.63        68.21326
897.02        68.96577
897.42         69.0014
897.82        68.21592
898.22        66.86094
898.62        65.43169
899.01        64.60001
899.41        64.53144
899.81        65.06063
900.21         65.8251
900.61        66.14562
901.00        65.80994
901.40        65.07831
901.80         64.3927
902.20        64.37295
902.59        65.15096
902.99         66.5024
903.39        67.98441
903.79        68.66653
904.18         68.2544
904.58        67.10452
904.98        65.82527
905.38        65.24525
905.77        65.51533
906.17        66.38049
906.57        67.47628
906.96        68.23141
907.36        68.40269
907.76        68.18764
908.15        67.77213
908.55        67.38841
908.95        67.16451
909.34        66.98663
909.74         66.8283
910.14        66.62337
910.53        66.36735
910.93        66.16554
911.33        66.03095
911.72        65.97421
912.12        65.99609
912.52        66.04583
912.91        66.21499
913.31        66.62947
913.70        67.30093
914.10        68.14017
914.49        68.88015
914.89        68.99962
915.29        68.42926
915.68        67.33958
916.08        66.16046
916.47        65.52293
916.87        65.60619
917.26         66.1641
917.66        66.93078
918.05        67.48936
918.45        67.67655
918.84         67.6704
919.24        67.41666
919.64        66.95994
920.03        66.37473
920.42        65.63254
920.82        64.97687
921.21        64.63777
921.61        64.65763
922.00        65.04851
922.40        65.55939
922.79        65.82749
923.19        65.71187
923.58        65.31025
923.98        64.94646
924.37        65.08537
924.77        65.80653
925.16        66.98274
925.55        68.20073
925.95        68.70453
926.34         68.3275
926.74        67.29564
927.13        66.07081
927.52        65.34534
927.92        65.29533
928.31        65.70395
928.70        66.31787
929.10        66.69105
929.49        66.70645
929.89        66.54154
930.28        66.32432
930.67        66.20695
931.07        66.23495
931.46        66.31374
931.85        66.51057
932.24        66.98427
932.64        67.69653
933.03        68.67846
933.42        69.56468
933.82        69.76092
934.21         69.1882
934.60        68.01202
934.99        66.76711
935.39        66.24477
935.78        66.60486
936.17        67.60673
936.56        68.78749
936.96          69.355
937.35        69.11944
937.74        68.31579
938.13         67.2398
938.53        66.35374
938.92        65.82423
939.31         65.5835
939.70         65.5986
940.09        65.84073
940.49         66.2122
940.88        66.69912
941.27        67.32892
941.66        68.13674
942.05        69.03214
942.44        69.97667
942.84        70.45681
943.23        69.66984
943.62         67.6629
944.01        64.89957
944.40        62.34058
944.79        61.17414
945.18        61.57232
945.57        63.25175
945.97        65.52209
946.36        67.20937
946.75        67.66559
947.14        67.19331
947.53         66.3718
947.92        66.17548
948.31        66.84646
948.70        67.99109
949.09        69.16969
949.48        69.69989
949.87         69.3835
950.26        68.53551
950.65        67.40833
951.04        66.36787
951.43        65.59673
951.82        64.98975
952.21        64.63266
952.60        64.65667
952.99        65.02706
953.38        65.71075
953.77        66.43258
954.16        66.69681
954.55        66.36888
954.94        65.56579
955.33        64.56435
955.72        63.84753
956.11         63.5773
956.50        63.65017
956.89        63.92358
957.28        64.14293
957.66        64.24002
958.05        64.29454
958.44        64.40986
958.83        64.73615
959.22        65.27393
959.61        65.88696
960.00        66.44933
960.39        66.76823
960.78        66.77413
961.16        66.56879
961.55        66.11646
961.94        65.34358
962.33        64.32054
962.72        63.09562
963.11         62.0597
963.49        61.85672
963.88        62.55859
964.27        64.01545
964.66        65.67857
965.04        66.62421
965.43        66.54666
965.82        65.71781
966.21         64.6362
966.60        64.15816
966.98        64.53978
967.37        65.48607
967.76        66.63367
968.15        67.38077
968.53        67.54772
968.92        67.28254
969.31        66.82918
969.69        66.56361
970.08        66.57317
970.47        66.74052
970.86        66.89411
971.24        66.77518
971.63        66.34071
972.02        65.77313
972.40        65.27952
972.79        65.13734
973.17        65.50153
973.56        66.17862
973.95        67.16731
974.33        68.50497
974.72        70.05884
975.11        71.84063
975.49        73.58577
975.88        74.58923
976.26         74.6117
976.65        73.72796
977.04        72.28892
977.42        70.77658
977.81        69.40395
978.19         68.0769
978.58        66.85882
978.96        65.63512
979.35        64.43221
979.74        63.28985
980.12        62.38042
980.51        61.83228
980.89        61.76757
981.28        62.18901
981.66        62.85503
982.05        63.26817
982.43        63.33146
982.82        63.08344
983.20        63.07872
983.59        64.23524
983.97        66.76336
984.35        70.38551
984.74        73.96672
985.12        75.63886
985.51        74.66222
985.89        71.77123
986.28        68.26909
986.66        65.64275
987.04        64.36275
987.43        63.90521
987.81        64.09447
988.20        64.45466
988.58         64.8364
988.96        65.51969
989.35        66.10941
989.73        66.04153
990.12        65.22557
990.50        63.69348
990.88        62.28128
991.27        62.30464
991.65         64.0234
992.03        67.27731
992.42        70.75742
992.80        72.00474
993.18        70.05569
993.56        65.98515
993.95        61.87828
994.33        59.83792
994.71        60.30837
995.10        62.60306
995.48        65.85892
995.86        67.69185
996.24        67.09838
996.63        64.96572
997.01        62.43617
997.39        60.97038
997.77        60.94491
998.15        61.83657
998.54        63.36211
998.92        65.06902
999.30        66.68626
999.68        68.43118
1000.06        70.00537
1000.45        70.78391
1000.83        70.78265
1001.21        69.98158
1001.59        68.97944
1001.97        68.70024
1002.35         69.3214
1002.73        70.65974
1003.12        72.20543
1003.50        73.09361
1003.88         72.9761
1004.26        72.15734
1004.64        71.08908
1005.02        70.51025
1005.40        70.56241
1005.78        70.86289
1006.16        71.18225
1006.54        71.13826
1006.92        70.58704
1007.30        69.83206
1007.69        68.54131
1008.07         66.3119
1008.45        63.46402
1008.83         60.3822
1009.21         58.2057
1009.59        58.15295
1009.97        60.26135
1010.35        64.43182
1010.73        69.46764
1011.11         72.2764
1011.49        71.42091
1011.86        67.37801
1012.24        62.58184
1012.62        60.83795
1013.00        63.25924
1013.38        69.41045
1013.76        77.08326
1014.14        80.12896
1014.52        76.64648
1014.90        69.90958
1015.28        63.63963
1015.66        61.00913
1016.04        62.22134
1016.41        66.56004
1016.79        73.14079
1017.17        79.83576
1017.55        84.63902
1017.93        87.76953
1018.31        88.43082
1018.69        86.05286
1019.06        81.39263
1019.44        75.66638
1019.82        70.49667
1020.20         67.0489
1020.58        65.06613
1020.95        64.35683
1021.33        64.29177
1021.71        63.65038
1022.09        62.10645
1022.46        59.85014
1022.84        58.36254
1023.22        59.39505
1023.60        63.48768
1023.97        71.26015
1024.35        80.49699
1024.73        83.34082
