SpectraSmart Spectrum 2.9.0.0
--------- Device Information -----------
Spectrum Name :  反射率_0
Saving Time :  2024/05/03 20:12:16
Spectro-Module Model Name : SE2030-DUVN
Spectro-Module Serial Number : OS361AC55029948
Wavelength Start : 200
Wavelength End : 1025
Wavelength Unit : Wavelength(nm)
Spectrum Unit : Reflectance(%)
-----------Spectrum Setting ------------
Integration Time : 20ms
Average : 10
Boxcar : 0
Background removal :  enabled
linearity correction :  enabled
SC :  disabled
Intensity correction :  disabled
DWT denoise :  enabled
savitzky-golay :  disabled
FFT :  disabled
Running average :  disabled
Kalman :  disabled
High pass :  disabled
---------------BEGIN--------------------
Wavelength(nm)             Reflectance(%)
200.29               0
200.75       -60.80366
201.21       -118.0217
201.67        3658.545
202.13        128.8671
202.58        75.54953
203.04        57.93707
203.50        50.77649
203.96        49.84094
204.42        55.57163
204.88        86.83103
205.34       -1112.203
205.80       -84.23389
206.26       -98.67112
206.72       -28062.29
207.18        124.3489
207.64        100.1165
208.10        126.5472
208.55         252.849
209.01         1491.13
209.47        2013.427
209.93        293.2123
210.39         120.404
210.85        75.35841
211.31        65.92455
211.77          74.144
212.23        106.7955
212.69        198.0531
213.14         267.276
213.60        151.7421
214.06        73.89642
214.52        43.47057
214.98        35.03512
215.44        40.10248
215.90        77.06689
216.36       -510.4325
216.81       -115.5957
217.27       -138.2181
217.73       -271.8473
218.19       -1070.026
218.65       -22424.47
219.11       -1666.429
219.57       -450.4863
220.02         -258.78
220.48       -419.7701
220.94        465.3384
221.40        143.2056
221.86        97.74547
222.32        88.65372
222.77        93.36546
223.23         110.575
223.69        139.8108
224.15        156.0126
224.61        141.0786
225.06        114.7242
225.52        96.40774
225.98        92.36494
226.44        100.3127
226.90        117.8691
227.36        141.8093
227.81        157.5371
228.27         155.423
228.73         143.157
229.19        128.5078
229.65        117.2762
230.10        109.6967
230.56         104.507
231.02        101.0006
231.48        99.04588
231.93        98.19028
232.39        98.68469
232.85         99.7488
233.31        100.4758
233.77        100.6343
234.22        100.1736
234.68        99.86314
235.14        101.0616
235.60        104.1227
236.05        109.1652
236.51        114.1726
236.97        115.4644
237.43        112.2123
237.88         105.755
238.34        99.80164
238.80        99.13777
239.26        105.6322
239.71        122.0672
240.17        152.0208
240.63        183.8453
241.08        195.3719
241.54        177.4651
242.00         149.894
242.46        137.3755
242.91         144.479
243.37        171.6319
243.83        226.0343
244.28        283.8481
244.74        282.9236
245.20        229.5689
245.66        164.8604
246.11        122.1389
246.57        102.2347
247.03        92.83861
247.48        89.97385
247.94        90.61588
248.40        92.92645
248.85        98.22659
249.31        103.9703
249.77        103.1585
250.22        96.29109
250.68        88.22211
251.14        83.18497
251.59        85.43867
252.05        96.40238
252.51        117.6643
252.96         152.577
253.42        191.6268
253.88        215.2591
254.33        218.7424
254.79        205.7661
255.25        183.6288
255.70        161.7426
256.16         145.265
256.62        134.6527
257.07        130.0423
257.53        130.2193
257.99         132.312
258.44         134.698
258.90        136.6539
259.35        136.9998
259.81        137.1398
260.27        136.1853
260.72        133.2964
261.18        129.8064
261.63         125.637
262.09        122.3616
262.55        120.6465
263.00        120.0706
263.46        120.2861
263.91        120.3119
264.37        119.4769
264.83        117.5643
265.28        114.9848
265.74        112.1721
266.19        109.0612
266.65        106.0439
267.11        102.9713
267.56        100.2204
268.02        98.54486
268.47        97.85822
268.93        98.00405
269.38        98.29813
269.84        97.59288
270.30        95.70139
270.75        92.99598
271.21        90.30484
271.66        88.61568
272.12        88.10179
272.57        88.26468
273.03        88.55573
273.48        88.11481
273.94        86.77087
274.39        84.87691
274.85        82.70464
275.31        80.41077
275.76         78.1325
276.22        75.96878
276.67         74.1387
277.13        73.22489
277.58        73.05202
278.04        73.47047
278.49        73.84962
278.95        73.32342
279.40        71.69788
279.86         69.4994
280.31        67.14267
280.77        65.41125
281.22        64.26779
281.68        63.57403
282.13        63.03435
282.59        62.40492
283.04        61.56055
283.50        60.66995
283.95        59.80336
284.41        59.15246
284.86        58.69911
285.32        58.44669
285.77        58.22355
286.22        57.90063
286.68        57.48217
287.13        56.94468
287.59        56.51061
288.04        56.37453
288.50        56.58536
288.95        57.00022
289.41        57.38913
289.86        57.30895
290.32         56.7509
290.77        55.86014
291.22        54.96295
291.68        54.49361
292.13         54.5285
292.59        54.97974
293.04        55.69217
293.50         56.4257
293.95        57.07988
294.40        57.73704
294.86        58.48886
295.31         59.4415
295.77        60.63271
296.22        61.97943
296.68        63.39952
297.13        64.76379
297.58           65.99
298.04          67.151
298.49        68.20486
298.95        69.19792
299.40        70.13462
299.85        71.03393
300.31        72.05607
300.76        73.38959
301.21        75.06461
301.67        77.02203
302.12        78.97749
302.58        80.54846
303.03        81.60954
303.48        82.31047
303.94        82.96384
304.39        83.90932
304.84        85.27883
305.30        86.93861
305.75        88.65749
306.20         90.1459
306.66         91.3438
307.11        92.30214
307.57        93.15728
308.02        93.93455
308.47        94.73336
308.93        95.54646
309.38        96.38441
309.83        97.38651
310.29        98.55822
310.74        99.82596
311.19        101.0857
311.65        102.1444
312.10         102.913
312.55         103.438
313.00        103.7623
313.46         103.979
313.91         104.111
314.36        104.1941
314.82         104.288
315.27        104.4519
315.72        104.7239
316.18        105.0995
316.63        105.5784
317.08        106.1656
317.53        106.8412
317.99        107.5796
318.44        108.3074
318.89        108.8422
319.35        109.1365
319.80        109.2226
320.25        109.2266
320.70         109.385
321.16        109.7336
321.61        110.2303
322.06        110.7171
322.51        110.9357
322.97        110.8212
323.42        110.4986
323.87        110.1146
324.32         109.918
324.78        109.9728
325.23        110.2485
325.68        110.6501
326.13        111.0355
326.59         111.323
327.04        111.6103
327.49        111.9078
327.94         112.275
328.39        112.7141
328.85        113.1334
329.30        113.5559
329.75         113.875
330.20        114.0693
330.66        114.1512
331.11        114.1903
331.56        114.1662
332.01        114.1183
332.46        114.0681
332.92        114.0825
333.37        114.4029
333.82        115.0221
334.27        115.8827
334.72        116.8481
335.17        117.6795
335.63        118.2488
336.08        118.6544
336.53        118.8943
336.98        119.0492
337.43        119.1621
337.88        119.2139
338.34        119.2354
338.79        119.3079
339.24        119.4564
339.69        119.7158
340.14        120.0651
340.59         120.447
341.05        120.8408
341.50        121.2508
341.95        121.7335
342.40        122.4007
342.85        123.2414
343.30        124.1906
343.75        125.0607
344.20         125.561
344.66        125.6634
345.11        125.4614
345.56        125.1683
346.01        125.1104
346.46        125.3773
346.91        125.8582
347.36        126.4775
347.81        127.1077
348.26        127.6809
348.72         128.247
349.17        128.6964
349.62        128.8798
350.07        128.7878
350.52        128.4528
350.97        128.0543
351.42        127.9003
351.87        128.0375
352.32        128.3456
352.77         128.646
353.22        128.6461
353.67        128.2772
354.13        127.6989
354.58        126.9333
355.03        126.0873
355.48        125.2473
355.93        124.4133
356.38        123.7353
356.83        123.4506
357.28         123.565
357.73        123.9654
358.18        124.4321
358.63        124.6009
359.08        124.3487
359.53        123.7656
359.98         122.898
360.43        121.8449
360.88        120.6806
361.33        119.3908
361.78        118.1193
362.23        117.0794
362.68         116.313
363.13         115.798
363.58        115.3577
364.03        114.6904
364.48        113.7362
364.93        112.5807
365.38        111.4346
365.83        110.6202
366.28        110.1964
366.73        110.0529
367.18        109.9552
367.63        109.5388
368.08         108.717
368.53        107.6029
368.98        106.4342
369.43        105.5609
369.88        105.0577
370.33        104.8234
370.78        104.6285
371.23        104.1018
371.68         103.164
372.13        101.9462
372.58        100.7246
373.03        99.90063
373.48        99.54991
373.93        99.54003
374.38        99.59496
374.83        99.27171
375.28        98.46237
375.72        97.28477
376.17        96.07648
376.62        95.18092
377.07        94.66917
377.52        94.42097
377.97        94.23358
378.42        93.79842
378.87        93.05968
379.32        92.14586
379.77        91.25713
380.22        90.65311
380.67        90.37074
381.11        90.33275
381.56        90.32811
382.01        90.09098
382.46        89.55813
382.91        88.82954
383.36        88.07845
383.81        87.54527
384.26        87.27679
384.71        87.19772
385.15         87.1578
385.60        86.95449
386.05        86.52956
386.50        85.94904
386.95        85.36116
387.40        84.98206
387.85        84.85044
388.29        84.85474
388.74        84.90144
389.19        84.67512
389.64        84.12439
390.09          83.331
390.54        82.53055
390.98        82.01739
391.43         81.8989
391.88        82.21289
392.33        82.66323
392.78        82.41859
393.23        81.63622
393.67        81.27782
394.12        81.41225
394.57        81.30132
395.02        80.94505
395.47        80.74216
395.91        80.69042
396.36        80.54821
396.81         80.3361
397.26         80.1504
397.71        79.95033
398.15        79.71019
398.60        79.53205
399.05         79.1197
399.50        78.64361
399.95        78.87788
400.39         79.6209
400.84        79.50015
401.29        78.59926
401.74        78.13735
402.18        78.18166
402.63        78.08126
403.08        77.92924
403.53        77.50734
403.97        77.91712
404.42        78.15158
404.87        78.38721
405.32        78.36347
405.76        78.03899
406.21        77.52509
406.66        76.94709
407.11        76.57005
407.55        76.48611
408.00        76.49339
408.45        76.54777
408.90        76.81751
409.34        77.10928
409.79        76.83493
410.24        76.18363
410.68        75.93559
411.13        76.15359
411.58        76.44128
412.03        76.60227
412.47        76.48978
412.92        76.03339
413.37        75.32626
413.81        74.62285
414.26        74.36174
414.71        74.57195
415.15        75.17986
415.60        75.86293
416.05          76.137
416.49        75.86518
416.94        75.23135
417.39        74.53719
417.83        74.21183
418.28        74.36636
418.73        74.84689
419.17        75.48246
419.62        75.92975
420.07        76.06261
420.51        75.94772
420.96        75.70595
421.41        75.36404
421.85        74.93084
422.30        74.67947
422.74          74.501
423.19        73.92666
423.64        73.15299
424.08        73.25822
424.53         74.1144
424.98        74.61979
425.42        74.67192
425.87        74.84937
426.31        75.20836
426.76         75.4715
427.21        75.66972
427.65        75.94153
428.10        76.15547
428.54        76.17368
428.99        76.06357
429.44        75.64576
429.88        75.08144
430.33        75.31443
430.77        75.99257
431.22        75.75391
431.66        74.76966
432.11        74.61517
432.56        75.25539
433.00         75.7142
433.45        75.76492
433.89        76.08696
434.34         73.4352
434.78        76.11115
435.23        76.38667
435.67        74.89317
436.12        74.31734
436.57        74.28111
437.01        75.86272
437.46        76.43243
437.90        75.94744
438.35        75.66769
438.79        75.79059
439.24        75.69168
439.68        75.43147
440.13        75.37974
440.57        75.56261
441.02        75.51537
441.46        75.23339
441.91        75.74272
442.35        76.59911
442.80        76.01579
443.24         74.4315
443.69        74.61613
444.13        76.31205
444.58        76.88657
445.02        76.21426
445.47        75.77235
445.91        75.72922
446.36        75.74171
446.80        75.82555
447.24        76.10873
447.69        76.46577
448.13         76.5513
448.58        76.63014
449.02        76.41989
449.47        76.10886
449.91        76.18268
450.36        76.10509
450.80        76.26208
451.25        76.42232
451.69        76.48495
452.13         76.4268
452.58        76.30788
453.02        76.15115
453.47        76.00539
453.91        75.87731
454.36        75.75491
454.80        75.66183
455.24        75.62427
455.69        75.65304
456.13        75.78887
456.58        75.98125
457.02        75.85821
457.46        75.67249
457.91        75.48931
458.35         75.3609
458.79        75.39373
459.24        75.51229
459.68        75.20654
460.13        74.58047
460.57        74.34753
461.01        74.64101
461.46        74.17091
461.90        74.00821
462.34        74.59241
462.79        73.80502
463.23        73.58263
463.68        73.32927
464.12        73.30873
464.56        73.44016
465.01        73.75938
465.45        74.11554
465.89        73.89552
466.34        73.22708
466.78        73.44516
467.22        74.39101
467.67        73.33384
468.11        73.84857
468.55        73.54308
468.99        73.54322
469.44         73.4937
469.88        73.43208
470.32        73.42462
470.77        73.41647
471.21        73.41068
471.65        73.37006
472.10        73.28701
472.54        73.17664
472.98        73.04912
473.42        72.90067
473.87        72.89664
474.31        72.90108
474.75        72.44382
475.20         71.7097
475.64        71.46591
476.08        71.71331
476.52        71.76178
476.97        71.55238
477.41        71.65565
477.85        71.99978
478.29          72.058
478.74        71.75169
479.18        72.55148
479.62        72.32703
480.06        72.46057
480.50        72.27692
480.95        72.21992
481.39        72.33932
481.83        71.61581
482.27        71.82539
482.72        71.98661
483.16        71.80669
483.60         71.9136
484.04        72.19227
484.48        71.82011
484.93        70.80941
485.37        72.46458
485.81        72.98519
486.25        72.30172
486.69        73.12079
487.14        73.48897
487.58        71.16998
488.02        70.44536
488.46        72.14208
488.90        70.93444
489.34        71.21873
489.79        71.41737
490.23        71.83649
490.67         72.0811
491.11        71.90036
491.55        71.75513
491.99        71.66081
492.43        71.55644
492.88        71.46516
493.32        71.48014
493.76        71.56931
494.20        71.59246
494.64        71.51842
495.08        71.54852
495.52         71.6659
495.96         71.4092
496.41        70.94867
496.85        71.27062
497.29        72.15558
497.73         72.2442
498.17        71.56135
498.61        71.28635
499.05        71.45817
499.49        71.27905
499.93        70.81682
500.37        70.66257
500.82        70.79086
501.26        70.83442
501.70         70.7626
502.14        70.74065
502.58        70.77013
503.02        70.79093
503.46        70.79762
503.90        70.79364
504.34        70.77162
504.78        70.72838
505.22        70.65732
505.66        70.57777
506.10        70.49181
506.54        70.43279
506.98        70.40821
507.42        70.63163
507.86        70.09354
508.30        70.87317
508.74        70.21547
509.18        70.15915
509.62        70.02827
510.06         70.0071
510.50        70.10725
510.94        70.30317
511.38        70.52878
511.82        70.60551
512.26        70.50327
512.70        70.27969
513.14        70.01565
513.58        69.83851
514.02        69.78286
514.46        69.80247
514.90        69.86819
515.34        69.93232
515.78         69.9741
516.22        70.01999
516.66        70.04374
517.10        69.99826
517.54        69.88663
517.98        69.72025
518.42        69.57524
518.86        69.57779
519.30         69.7472
519.74        70.04019
520.18        70.36225
520.62        70.55636
521.06        70.57765
521.50        70.47089
521.93         70.2947
522.37        70.16421
522.81        70.10794
523.25        70.09278
523.69        70.09803
524.13          70.091
524.57        70.06415
525.01        70.04331
525.45        70.02861
525.89         70.0135
526.32        69.99445
526.76        69.97337
527.20        69.97431
527.64        70.04443
528.08        70.18596
528.52        70.38408
528.96        70.57065
529.40        70.64055
529.83        70.56095
530.27        70.37112
530.71        70.15443
531.15        70.05203
531.59        70.09277
532.03        70.24516
532.46        70.39713
532.90        70.36958
533.34        70.14302
533.78        69.80019
534.22        69.48032
534.66        69.38386
535.09         69.5316
535.53        69.84935
535.97        70.23135
536.41        70.45763
536.85        70.45572
537.28        70.47398
537.72        70.49005
538.16        70.03563
538.60        69.36058
539.04        69.42376
539.47        70.07639
539.91        70.29338
540.35        70.01498
540.79        69.84966
541.22        69.82515
541.66        69.76862
542.10        69.70158
542.54        69.56262
542.97        69.42074
543.41        69.65675
543.85        70.14705
544.29        70.32377
544.72        70.15074
545.16        70.06427
545.60        70.05812
546.04        69.89172
546.47        69.59698
546.91        69.39172
547.35        69.31409
547.79        69.25726
548.22         69.2437
548.66        69.48106
549.10        69.87883
549.53        70.16163
549.97        70.26505
550.41        70.31442
550.84        70.27865
551.28        70.09464
551.72        69.82426
552.15        69.51189
552.59        69.20758
553.03        69.33455
553.46        69.06021
553.90        69.13106
554.34        69.26148
554.77        69.38949
555.21        69.49464
555.65        69.61613
556.08        69.73713
556.52        69.81369
556.96        69.84069
557.39        69.87562
557.83        69.94773
558.27        69.95256
558.70        69.88958
559.14        69.95784
559.57        70.08748
560.01        69.91483
560.45        69.54155
560.88        69.54707
561.32        69.88084
561.75        69.91646
562.19        69.72062
562.63        69.56934
563.06        69.51794
563.50        69.87464
563.93         70.4215
564.37        70.16179
564.80        69.28621
565.24        69.18269
565.68        69.76567
566.11        69.93282
566.55        69.67268
566.98        69.57733
567.42        69.67989
567.85        69.77241
568.29        69.72405
568.72        69.70592
569.16        69.74857
569.60        69.84214
570.03        69.73112
570.47         70.0732
570.90        70.10835
571.34        69.90355
571.77        70.81641
572.21        70.23968
572.64        70.54604
573.08        70.11984
573.51        70.46551
573.95         70.2394
574.38        70.04043
574.82         69.3834
575.25        70.44549
575.69        70.92024
576.12        70.30957
576.56        69.65878
576.99        69.94016
577.42        70.80244
577.86        70.11413
578.29        70.59772
578.73        70.26902
579.16        70.42223
579.60        70.55158
580.03        70.56416
580.47        70.30861
580.90        70.55055
581.33        69.86723
581.77        70.30494
582.20        71.16698
582.64        70.83698
583.07        71.04221
583.51        70.59194
583.94        70.33405
584.37        70.15997
584.81         70.2516
585.24        70.14306
585.68         71.0434
586.11        70.14262
586.54        70.84497
586.98        70.01278
587.41        69.37295
587.85        70.32766
588.28        70.71696
588.71        70.27753
589.15        69.87031
589.58         70.7598
590.01        69.94949
590.45        69.66232
590.88         70.1917
591.31        70.38155
591.75        70.45921
592.18        70.24539
592.61        69.93979
593.05        69.91451
593.48        70.79758
593.91        70.76988
594.35          70.785
594.78         70.4674
595.21        70.53586
595.65        70.34778
596.08        69.97264
596.51        70.82138
596.94        70.68347
597.38        70.71132
597.81        70.12937
598.24        70.75359
598.68        70.55649
599.11        69.41318
599.54        70.94128
599.97        70.48737
600.41        70.24749
600.84        70.14802
601.27        70.52979
601.70        70.09406
602.14         70.3557
602.57        70.29195
603.00        70.32193
603.43        70.42271
603.87        70.20355
604.30        70.39079
604.73        70.07566
605.16        70.24516
605.60        69.90858
606.03        69.93871
606.46        70.10811
606.89        69.67365
607.32        70.34984
607.76        69.70082
608.19        70.04198
608.62        70.01644
609.05        69.88132
609.48        69.90593
609.92        70.23884
610.35        69.54977
610.78         71.1524
611.21        71.19311
611.64        71.11327
612.07        70.87356
612.50        70.77126
612.94        70.52813
613.37        70.15011
613.80        70.71124
614.23        70.34045
614.66         70.5023
615.09        70.65359
615.52        70.64919
615.96         70.4353
616.39        70.73917
616.82        70.73089
617.25        70.22472
617.68        70.79293
618.11         70.2364
618.54        69.40354
618.97        69.34213
619.40        70.02713
619.84        70.45304
620.27        70.45624
620.70        70.49063
621.13        70.61304
621.56        70.10188
621.99        69.98029
622.42        70.00356
622.85        70.37101
623.28        70.23125
623.71        69.71077
624.14        70.00366
624.57        69.21548
625.00        69.51037
625.43        69.61623
625.86        69.81007
626.29        69.66058
626.72        70.77094
627.15        70.19859
627.58        70.22482
628.01        69.99908
628.44        70.08958
628.87        70.09588
629.30        69.81645
629.73        69.79238
630.16        70.16024
630.59        69.81698
631.02        69.81757
631.45         69.8083
631.88        69.84724
632.31        69.92083
632.74        70.03017
633.17        70.13763
633.60        70.14868
634.03        70.05039
634.46        69.87504
634.89        69.67036
635.32        69.51418
635.75        69.43234
636.18        69.40153
636.61         69.4115
637.04        69.44828
637.47        69.50566
637.89        69.57791
638.32        69.61331
638.75        69.63758
639.18        69.66049
639.61         69.3963
640.04          69.408
640.47        69.34719
640.90        69.38779
641.33          69.498
641.76        69.65305
642.18        69.81016
642.61        69.92003
643.04        70.00204
643.47        70.06063
643.90        70.10626
644.33        70.13567
644.76        70.14717
645.18        70.14429
645.61         70.0428
646.04        69.84194
646.47         69.7368
646.90        69.80148
647.33        69.33561
647.75        69.66716
648.18        69.65971
648.61        69.73251
649.04        69.97899
649.47         70.3488
649.89        70.65651
650.32        70.76859
650.75        70.69048
651.18        70.48214
651.61        70.16293
652.03        69.90062
652.46        70.06631
652.89        70.42361
653.32        70.38969
653.74        70.09674
654.17        69.19718
654.60        69.07538
655.03        70.10815
655.46        69.25851
655.88        69.26385
656.31        72.00678
656.74        75.87127
657.16        72.63784
657.59        69.26648
658.02        70.58673
658.45        71.48058
658.87        71.28973
659.30        70.13364
659.73        69.91618
660.15        70.59473
660.58        69.86643
661.01        69.86486
661.44        69.71008
661.86        69.52458
662.29        69.31413
662.72        69.32185
663.14        69.53979
663.57        69.47179
664.00        69.19236
664.42        69.24519
664.85        69.58054
665.27          69.598
665.70        69.32071
666.13        69.24846
666.55        69.40379
666.98         69.5077
667.41        69.54151
667.83        69.57632
668.26        69.59846
668.69        69.61789
669.11        69.60872
669.54        69.50577
669.96        69.30938
670.39        69.08842
670.82        68.96531
671.24        68.96333
671.67        69.14903
672.09        69.82212
672.52        70.74862
672.94        70.79733
673.37        70.70808
673.80        70.07858
674.22        69.42332
674.65        69.07961
675.07        69.16891
675.50        69.55975
675.92        70.06166
676.35        70.33084
676.77        70.28268
677.20        70.02974
677.62        69.70872
678.05        69.53679
678.47        69.57063
678.90         69.7337
679.32        69.94483
679.75        70.14345
680.17         70.3022
680.60        70.35992
681.02        70.31682
681.45         70.6021
681.87        70.48459
682.30        70.55451
682.72        70.59348
683.15        70.55263
683.57        70.46994
684.00        70.50426
684.42        70.60789
684.85        70.57613
685.27        70.39719
685.70        70.10651
686.12        69.79776
686.54        69.83099
686.97        70.13856
687.39        70.21941
687.82        70.03265
688.24        69.99445
688.66        70.13095
689.09        69.74397
689.51        69.69239
689.94        69.63815
690.36        69.86903
690.78        70.14078
691.21        70.28217
691.63        70.96349
692.06        70.36375
692.48        70.54443
692.90        70.91454
693.33          71.036
693.75        70.90482
694.17        70.70161
694.60        70.49141
695.02        70.83436
695.44        70.74689
695.87        71.01458
696.29        71.25624
696.71        71.35632
697.14        71.24849
697.56        70.85272
697.98        70.35038
698.41         70.1004
698.83         70.1249
699.25        70.31065
699.68        70.53049
700.10        70.69431
700.52        70.72846
700.94        70.67007
701.37        70.57668
701.79        70.56662
702.21        70.65097
702.64        70.78711
703.06        70.92154
703.48        70.97704
703.90         70.9429
704.33        70.86066
704.75        70.76301
705.17        70.68201
705.59        70.63102
706.01        70.58569
706.44        70.58656
706.86        70.69434
707.28        70.88203
707.70        71.23716
708.12        71.62557
708.55        71.58282
708.97        71.18744
709.39        71.06886
709.81         71.2625
710.23         71.3202
710.66        71.24301
711.08        71.34405
711.50         71.5761
711.92        71.72824
712.34        71.77579
712.76        71.77567
713.19         71.7285
713.61        71.70056
714.03        71.67974
714.45        71.64267
714.87        71.59084
715.29        71.53235
715.71        71.46435
716.13        71.39178
716.56        71.28536
716.98        71.16853
717.40        71.02933
717.82        70.88596
718.24        70.77244
718.66        70.74229
719.08        70.80135
719.50        70.91737
719.92        71.07725
720.34         71.2582
720.76        71.44418
721.19         71.6348
721.61         71.7885
722.03        71.80019
722.45        71.68755
722.87        71.38057
723.29        71.02153
723.71        70.95483
724.13        71.81413
724.55        71.38303
724.97        71.96603
725.39        71.96299
725.81        72.00964
726.23        71.87698
726.65        71.66662
727.07        71.61611
727.49        71.74305
727.91        71.99315
728.33        72.28931
728.75        72.50499
729.17        72.59717
729.59        72.60947
730.01        72.58144
730.43         72.5719
730.85        72.60011
731.27         72.6382
731.69        72.67754
732.10        72.71538
732.52        72.74312
732.94        72.77106
733.36        72.77921
733.78        72.72699
734.20        72.62062
734.62        72.48906
735.04         72.3727
735.46        72.32962
735.88        72.35927
736.30         72.4344
736.72        72.55173
737.13        72.63698
737.55        72.61222
737.97        72.76425
738.39        73.00524
738.81        72.58163
739.23        71.76649
739.65        71.99692
740.06        73.02692
740.48        73.34664
740.90         72.8742
741.32        72.24583
741.74        72.05604
742.16         71.8501
742.57        71.83125
742.99        71.98818
743.41        72.28503
743.83        72.63551
744.25        72.98705
744.67        73.34509
745.08        73.65816
745.50        73.79456
745.92         73.7523
746.34         73.5551
746.75        73.28093
747.17        73.08482
747.59        72.99881
748.01        72.96758
748.42        72.97468
748.84        72.97022
749.26        72.89063
749.68        72.84198
750.09        72.83155
750.51         72.4831
750.93        72.07056
751.35          72.688
751.76        74.06833
752.18        74.62375
752.60        74.20602
753.01        73.66039
753.43        73.22466
753.85        72.96561
754.27        72.96635
754.68        73.16314
755.10        73.45334
755.52        73.67456
755.93        73.80945
756.35        73.96854
756.77        74.05196
757.18        74.07143
757.60        74.08699
758.02         73.5146
758.43        72.72923
758.85        73.70167
759.26        75.93274
759.68        76.18215
760.10        75.08994
760.51        74.56567
760.93        74.06611
761.34        74.25635
761.76        74.68767
762.18        74.54111
762.59        73.92278
763.01        74.01914
763.42        74.80444
763.84        74.96369
764.26         74.4771
764.67        73.99615
765.09        73.71994
765.50        73.66019
765.92        73.80621
766.33        73.79031
766.75        73.58497
767.16        73.76662
767.58        74.15637
768.00        74.51752
768.41        74.77231
768.83        75.07874
769.24        75.32561
769.66        75.13794
770.07        74.59856
770.49        74.14702
770.90        73.89044
771.32        73.91217
771.73        74.17796
772.15        74.39219
772.56        74.54327
772.97        74.80096
773.39        75.10393
773.80        75.33594
774.22        75.42743
774.63        75.44704
775.05          75.383
775.46         75.2884
775.88        75.16618
776.29        75.02646
776.70         74.9052
777.12        74.86922
777.53         74.9539
777.95        75.13139
778.36        75.33442
778.77        75.40567
779.19        75.32483
779.60        75.14622
780.02        74.97517
780.43         74.9992
780.84        75.26305
781.26        75.62749
781.67        76.04744
782.09        76.46578
782.50        76.77786
782.91        76.80585
783.33        76.57535
783.74        76.41111
784.15        76.32275
784.57        76.16853
784.98        75.97986
785.39        75.86407
785.81         75.8421
786.22        75.91077
786.63        76.02061
787.04        76.07702
787.46        76.07992
787.87        76.01141
788.28        75.97803
788.70        76.12601
789.11        76.44654
789.52        76.91006
789.93        77.36271
790.35        77.52567
790.76        77.38195
791.17        77.04578
791.58        76.67766
792.00        76.49799
792.41        76.60272
792.82        76.87252
793.23        77.20792
793.65         77.5858
794.06        77.92892
794.47        77.90722
794.88        77.50029
795.29        77.56059
795.71        77.04025
796.12        76.61852
796.53        76.12755
796.94        76.06725
797.35        76.44505
797.76        76.88927
798.18        77.22736
798.59        77.47699
799.00        77.54564
799.41        77.34077
799.82        77.00348
800.23        76.85661
800.64        76.96605
801.06        77.18999
801.47         77.5118
801.88        77.76776
802.29        77.89287
802.70        77.93913
803.11        77.90768
803.52        77.78612
803.93        77.58741
804.34        77.31848
804.75        77.04524
805.17        76.84054
805.58        76.75646
805.99        76.86397
806.40        77.10946
806.81        77.11998
807.22        76.97598
807.63        77.29366
808.04        77.95924
808.45         78.1832
808.86        77.87777
809.27        77.47688
809.68        77.10941
810.09        76.82034
810.50        76.68326
810.91        76.69257
811.32        76.82894
811.73         77.0499
812.14        77.32034
812.55        77.64381
812.96        77.95033
813.37         78.1153
813.78         78.1085
814.19        77.95939
814.60        77.74303
815.01         77.5853
815.42        77.52362
815.83        77.52331
816.24        77.58609
816.65        77.70395
817.05        77.86212
817.46         78.0336
817.87        78.18568
818.28        78.20847
818.69        78.08736
819.10        77.83957
819.51        77.56809
819.92        77.47215
820.33        77.59689
820.74        77.86827
821.14        78.15922
821.55        78.29412
821.96        78.21811
822.37        78.00995
822.78        77.72296
823.19        77.45081
823.60        77.25778
824.00        77.14191
824.41        77.13264
824.82        77.36749
825.23        77.84251
825.64        78.50139
826.04        79.22937
826.45        79.71468
826.86        79.89937
827.27        79.85329
827.68        79.61501
828.08          79.293
828.49        78.91116
828.90        78.47504
829.31        78.12746
829.72        78.09727
830.12         78.4523
830.53        79.08078
830.94        79.77935
831.35        80.11668
831.75        79.98528
832.16        79.44543
832.57        78.74256
832.97         78.2509
833.38           78.09
833.79        78.15527
834.20        78.32968
834.60        78.42117
835.01        78.39151
835.42         78.3112
835.82        78.25486
836.23        78.27991
836.64        78.41898
837.04        78.65118
837.45        78.86874
837.86        79.04491
838.26        79.16616
838.67          79.201
839.08        79.15403
839.48        79.00232
839.89        78.75766
840.29        78.41694
840.70        78.07742
841.11        77.81603
841.51        77.68259
841.92        77.67777
842.33        77.74717
842.73        77.79691
843.14        77.75631
843.54        77.65698
843.95        77.64816
844.35        78.01833
844.76        78.74632
845.17        79.74723
845.57        80.72276
845.98         81.0052
846.38        80.50987
846.79        79.45931
847.19        78.22588
847.60        77.41078
848.00        77.16716
848.41        77.29222
848.81        77.72322
849.22        78.23151
849.62         78.7569
850.03        79.30645
850.43          79.747
850.84         79.7067
851.24        79.18759
851.65        78.24619
852.05        77.22382
852.46        76.69414
852.86          76.762
853.27        77.28204
853.67        77.94051
854.07         78.5188
854.48        78.87512
854.88        79.16012
855.29         79.2186
855.69        79.03925
856.10        78.53766
856.50        77.81599
856.90        77.05294
857.31        76.55573
857.71        76.42613
858.12        76.54398
858.52         76.8858
858.92         77.1691
859.33         77.2765
859.73        77.32413
860.13        77.28197
860.54        77.13815
860.94        76.94278
861.34        76.65263
861.75        76.33173
862.15        76.21139
862.55        76.28572
862.96         76.5136
863.36        76.74929
863.76        76.75154
864.17        76.46565
864.57        76.01339
864.97        75.49781
865.38        75.06733
865.78         74.8168
866.18        74.65485
866.58        74.63062
866.99        74.82388
867.39        75.23303
867.79        75.81057
868.19        76.31799
868.60        76.36235
869.00        75.89058
869.40        75.01549
869.80         74.0455
870.21         73.5387
870.61        73.67938
871.01        74.27135
871.41        75.03445
871.81        75.54825
872.22        75.67704
872.62        75.59532
873.02        75.44305
873.42         75.4726
873.82         75.7617
874.22        76.19044
874.63        76.67577
875.03        77.08537
875.43        77.38232
875.83        77.58395
876.23        77.69411
876.63        77.69998
877.03        77.62831
877.44        77.54379
877.84        77.38063
878.24        77.06795
878.64        76.61594
879.04        76.00625
879.44         75.5348
879.84        75.62574
880.24        76.30174
880.64        77.47729
881.04        78.54926
881.44        78.45126
881.84        77.01719
882.24        74.67495
882.65        72.38649
883.05        71.40948
883.45        72.03199
883.85        73.88236
884.25        76.25153
884.65        77.82221
885.05        78.12164
885.45        77.50813
885.85        76.52177
886.25        75.99796
886.65        76.15805
887.05        76.70766
887.45        77.30061
887.85        77.41092
888.25         76.9078
888.65        76.03242
889.04        75.09513
889.44        74.55968
889.84        74.53298
890.24        74.89154
890.64        75.41014
891.04        75.73066
891.44        75.75034
891.84         75.5684
892.24        75.41303
892.64        75.62902
893.04        76.29131
893.44        77.30046
893.83        78.37772
894.23        78.97243
894.63         78.9738
895.03        78.48073
895.43        77.89355
895.83        77.85153
896.23        78.47364
896.63        79.57394
897.02         80.6106
897.42        80.71124
897.82         79.7399
898.22        78.03195
898.62        76.26558
899.01        75.37095
899.41        75.56361
899.81        76.60121
900.21        77.95003
900.61        78.59911
901.00        78.22852
901.40        77.22047
901.80        76.19305
902.20        76.00788
902.59        76.85689
902.99        78.43205
903.39        80.21108
903.79         81.0966
904.18        80.71827
904.58        79.49208
904.98         78.0817
905.38        77.38443
905.77        77.57099
906.17        78.36655
906.57        79.38564
906.96         80.0369
907.36        80.07074
907.76        79.70695
908.15        79.17346
908.55        78.75364
908.95        78.59113
909.34        78.55015
909.74        78.55382
910.14          78.459
910.53        78.23215
910.93        77.98132
911.33        77.76382
911.72        77.66257
912.12        77.70305
912.52        77.84373
912.91        78.09039
913.31        78.43042
913.70        78.86616
914.10        79.33469
914.49        79.78419
914.89        80.03705
915.29        80.07462
915.68        79.93504
916.08        79.70222
916.47        79.46669
916.87        79.30039
917.26        79.12907
917.66         79.0146
918.05        79.02463
918.45        79.12349
918.84        79.36918
919.24        79.51913
919.64        79.29028
920.03        78.65439
920.42        77.71389
920.82        76.86366
921.21         76.5046
921.61        76.71974
922.00        77.44286
922.40        78.34623
922.79          78.965
923.19        79.08312
923.58        78.82471
923.98        78.51245
924.37        78.59935
924.77        79.17959
925.16         80.1274
925.55         81.0769
925.95         81.3709
926.34        80.89561
926.74        79.86848
927.13        78.70458
927.52        78.01181
927.92        77.94667
928.31        78.31657
928.70        78.90653
929.10         79.3371
929.49        79.49258
929.89        79.49364
930.28        79.42539
930.67        79.37119
931.07        79.36266
931.46        79.36721
931.85        79.42747
932.24        79.66066
932.64        80.04864
933.03        80.63973
933.42         81.2654
933.82        81.66492
934.21        81.79788
934.60        81.69162
934.99        81.52731
935.39        81.56786
935.78        81.84911
936.17        82.25758
936.56        82.61266
936.96        82.62636
937.35        82.28316
937.74        81.69498
938.13        80.92754
938.53        80.07089
938.92        79.21042
939.31        78.42325
939.70        77.92435
940.09        78.04039
940.49        78.73968
940.88        79.89964
941.27        81.27911
941.66        82.44863
942.05        83.16552
942.44        83.51274
942.84        83.24979
943.23        82.04491
943.62        80.06796
944.01        77.62756
944.40         75.4519
944.79        74.42779
945.18        74.66373
945.57        75.95889
945.97        77.76861
946.36        79.26019
946.75        79.88515
947.14         79.8514
947.53        79.51029
947.92        79.49342
948.31        79.96384
948.70        80.62089
949.09         81.2626
949.48        81.60558
949.87        81.55083
950.26        81.28751
950.65        80.80111
951.04        80.02724
951.43        79.05596
951.82        77.94478
952.21        77.03491
952.60        76.83399
952.99        77.40836
953.38        78.61137
953.77        80.00703
954.16        80.82856
954.55        80.82642
954.94        80.16146
955.33        79.20599
955.72        78.60275
956.11        78.54725
956.50        78.88132
956.89        79.29707
957.28        79.28974
957.66        78.76821
958.05        77.91749
958.44        77.13277
958.83        77.00872
959.22        77.66507
959.61        78.87235
960.00        80.21936
960.39        80.99796
960.78        80.97602
961.16        80.37324
961.55        79.43952
961.94        78.57077
962.33        77.92654
962.72        77.38086
963.11        77.00603
963.49        76.94347
963.88        77.15021
964.27        77.67307
964.66        78.26101
965.04        78.48469
965.43        78.18252
965.82         77.4581
966.21        76.67186
966.60        76.44618
966.98        76.93439
967.37        77.93672
967.76        78.99851
968.15        79.35039
968.53        78.82948
968.92        77.61766
969.31        76.25452
969.69         75.6338
970.08        75.94547
970.47        76.91285
970.86        78.04048
971.24        78.52557
971.63        78.16956
972.02        77.33749
972.40        76.37209
972.79        75.79201
973.17        75.87542
973.56        76.31112
973.95        77.20754
974.33        78.80294
974.72        80.95081
975.11        83.64742
975.49        86.29275
975.88        87.41609
976.26        86.60896
976.65        84.25659
977.04        81.21628
977.42        78.66086
977.81        76.96217
978.19         75.7737
978.58        75.05815
978.96        74.52951
979.35        74.10192
979.74        73.89222
980.12        73.81548
980.51        73.54269
980.89        73.11676
981.28        72.58204
981.66        72.16337
982.05        72.21015
982.43        72.81911
982.82        73.75708
983.20         75.0215
983.59        76.64829
983.97          78.651
984.35         81.0476
984.74        83.04948
985.12        83.58998
985.51        82.29372
985.89        79.61874
986.28        76.78485
986.66        75.18943
987.04        75.20741
987.43        76.35253
987.81        78.05457
988.20        78.96105
988.58        78.69231
988.96        77.74286
989.35        76.31462
989.73        74.84418
990.12        73.53777
990.50        72.16901
990.88        71.27142
991.27         71.6768
991.65        73.49261
992.03        76.72475
992.42        80.09072
992.80        81.21866
993.18        79.18351
993.56        75.00561
993.95        70.81024
994.33        68.75498
994.71        69.29989
995.10         71.7217
995.48        75.19579
995.86         77.3045
996.24        77.00307
996.63        75.21337
997.01          72.935
997.39        71.45412
997.77        71.14511
998.15        71.47942
998.54        72.46265
998.92         74.2276
999.30        76.62028
999.68        79.70364
1000.06        82.61668
1000.45        83.68124
1000.83         82.6908
1001.21         80.0735
1001.59        77.07451
1001.97        75.44836
1002.35        75.56345
1002.73        76.96915
1003.12        79.07602
1003.50        80.86471
1003.88        81.80292
1004.26        82.23115
1004.64        82.28722
1005.02        82.21018
1005.40        82.05647
1005.78        81.50701
1006.16        80.71283
1006.54        80.01775
1006.92         79.4565
1007.30        79.08734
1007.69        78.29385
1008.07        76.12737
1008.45         72.7451
1008.83        68.89454
1009.21        65.74693
1009.59        64.38509
1009.97        64.86361
1010.35         67.0573
1010.73        70.20783
1011.11        72.40594
1011.49        72.70708
1011.86        71.21957
1012.24         69.6751
1012.62        70.90985
1013.00        75.77403
1013.38        84.11971
1013.76        93.20918
1014.14        95.81505
1014.52        90.11914
1014.90        80.15408
1015.28        71.05004
1015.66        67.18169
1016.04        68.66515
1016.41        74.54411
1016.79        83.25584
1017.17        90.72287
1017.55        93.80626
1017.93        93.15256
1018.31         88.9943
1018.69        83.04358
1019.06         77.1639
1019.44        71.95451
1019.82        68.25249
1020.20        66.63194
1020.58        66.75368
1020.95        68.59404
1021.33        71.73676
1021.71        74.72628
1022.09        76.51663
1022.46        76.86186
1022.84        76.61146
1023.22        76.97404
1023.60        78.30914
1023.97        80.78782
1024.35        82.52509
1024.73        79.57205
