SpectraSmart Spectrum 2.9.0.0
--------- Device Information -----------
Spectrum Name :  反射率_0
Saving Time :  2024/05/03 20:25:39
Spectro-Module Model Name : SE2030-DUVN
Spectro-Module Serial Number : OS361AC55029948
Wavelength Start : 200
Wavelength End : 1025
Wavelength Unit : Wavelength(nm)
Spectrum Unit : Reflectance(%)
-----------Spectrum Setting ------------
Integration Time : 20ms
Average : 10
Boxcar : 0
Background removal :  enabled
linearity correction :  enabled
SC :  disabled
Intensity correction :  disabled
DWT denoise :  enabled
savitzky-golay :  disabled
FFT :  disabled
Running average :  disabled
Kalman :  disabled
High pass :  disabled
---------------BEGIN--------------------
Wavelength(nm)             Reflectance(%)
200.29               0
200.75       -48.28491
201.21       -65.33965
201.67         1169.88
202.13        38.10594
202.58        37.16941
203.04        47.16022
203.50          58.103
203.96        66.55972
204.42        74.34144
204.88        97.48621
205.34       -666.6469
205.80       0.2134451
206.26        16.14857
206.72       -880.2985
207.18        32.93499
207.64        37.45234
208.10        49.59225
208.55        98.89301
209.01        570.9348
209.47        775.0919
209.93        117.0342
210.39        49.00889
210.85        31.43431
211.31        29.53659
211.77        36.68314
212.23        58.88547
212.69        116.3788
213.14        148.9095
213.60        65.70065
214.06        14.97167
214.52       -5.138985
214.98       -14.23785
215.44       -21.56921
215.90       -39.14692
216.36        152.3103
216.81        3.851205
217.27       -19.95727
217.73       -68.61537
218.19       -324.7751
218.65       -6961.879
219.11       -478.4383
219.57        -102.757
220.02       -39.51105
220.48       -65.88112
220.94         116.789
221.40         52.3946
221.86        43.52591
222.32         41.0214
222.77        40.32138
223.23        41.14254
223.69        42.45826
224.15        40.50897
224.61        35.41616
225.06        30.61884
225.52        28.74165
225.98        30.60234
226.44        36.01479
226.90        45.09996
227.36        56.99231
227.81        65.75388
228.27        66.74107
228.73        62.55676
229.19         56.2484
229.65        50.31244
230.10        45.34397
230.56        41.29979
231.02        38.31901
231.48        36.76624
231.93         36.4086
232.39         37.0218
232.85        38.14826
233.31        39.20264
233.77        40.01415
234.22          40.631
234.68        41.23509
235.14        42.14504
235.60        43.40059
236.05        44.92844
236.51        46.18729
236.97        46.30502
237.43        45.13385
237.88         43.3492
238.34         41.7079
238.80        40.86105
239.26        41.03138
239.71        44.43035
240.17        49.19347
240.63        59.08889
241.08        70.69826
241.54        79.10639
242.00        83.18545
242.46        87.31531
242.91        94.53438
243.37        105.1597
243.83        119.5041
244.28        125.6174
244.74        104.4702
245.20        66.42846
245.66        33.73969
246.11        17.45631
246.57        14.45875
247.03        20.00322
247.48        27.77377
247.94        31.45729
248.40        30.76356
248.85        27.07974
249.31        23.50561
249.77        25.61548
250.22        32.96014
250.68         41.3986
251.14        48.52096
251.59        53.73606
252.05        58.04577
252.51        62.68159
252.96        67.95276
253.42        71.82913
253.88        71.97044
254.33        68.63113
254.79        64.73553
255.25         61.9089
255.70        60.10299
256.16        59.47191
256.62        59.22564
257.07         58.9107
257.53        58.81223
257.99        58.55357
258.44         58.0093
258.90        57.61681
259.35        56.97223
259.81        56.43472
260.27        55.62536
260.72        54.21106
261.18         52.6781
261.63        51.02399
262.09        49.67753
262.55        48.70727
263.00        47.96765
263.46        47.37535
263.91        46.78942
264.37        46.29806
264.83        45.82348
265.28        45.37654
265.74        44.80285
266.19        43.65677
266.65        42.06757
267.11        40.13561
267.56        38.32581
268.02        37.37372
268.47        37.30935
268.93        37.92057
269.38        38.63978
269.84        38.50413
270.30        37.33732
270.75        35.48943
271.21         33.6121
271.66        32.53101
272.12        32.40326
272.57        32.88757
273.03         33.5553
273.48        33.75022
273.94        33.29189
274.39        32.41861
274.85        31.35237
275.31        30.30734
275.76        29.37042
276.22        28.51381
276.67        27.76359
277.13        27.26575
277.58        26.95004
278.04        26.81203
278.49        26.66473
278.95        26.27197
279.40        25.58758
279.86        24.77646
280.31        23.97012
280.77        23.43751
281.22        23.14043
281.68        23.01508
282.13        22.92186
282.59         22.7195
283.04        22.36278
283.50        21.93747
283.95        21.49262
284.41        21.11263
284.86        20.81781
285.32        20.61057
285.77        20.47932
286.22         20.4608
286.68        20.55158
287.13          20.703
287.59        20.90045
288.04          21.084
288.50        21.24435
288.95        21.36116
289.41        21.41839
289.86        21.35382
290.32        21.19543
290.77        20.96931
291.22        20.75232
291.68        20.64183
292.13        20.66357
292.59        20.82456
293.04        21.11365
293.50        21.51803
293.95        22.00945
294.40        22.58247
294.86        23.23242
295.31        23.95769
295.77        24.75837
296.22        25.62374
296.68        26.50745
297.13        27.32928
297.58        28.05617
298.04        28.72193
298.49         29.3686
298.95        30.10736
299.40        30.95877
299.85        31.90946
300.31        32.96106
300.76        34.07856
301.21        35.25611
301.67        36.50653
302.12        37.77659
302.58        39.00346
303.03         40.1426
303.48        41.20175
303.94        42.26502
304.39        43.40765
304.84        44.68237
305.30        46.07316
305.75        47.48139
306.20        48.78134
306.66        49.95647
307.11        51.01624
307.57        52.07545
308.02        53.21432
308.47        54.48746
308.93        55.86585
309.38        57.26993
309.83        58.64707
310.29        59.97242
310.74        61.23697
311.19        62.45304
311.65         63.6272
312.10        64.72688
312.55        65.72896
313.00        66.59301
313.46        67.28095
313.91        67.78687
314.36        68.17616
314.82        68.52605
315.27        68.92884
315.72        69.42933
316.18        70.00291
316.63        70.65022
317.08        71.37947
317.53        72.17041
317.99        73.00426
318.44        73.80065
318.89        74.38179
319.35        74.70391
319.80        74.80752
320.25        74.81141
320.70        74.93142
321.16        75.21521
321.61        75.62714
322.06        76.06029
322.51        76.33498
322.97        76.39998
323.42        76.33921
323.87        76.24062
324.32        76.25255
324.78        76.40987
325.23        76.69167
325.68        77.02719
326.13         77.3158
326.59        77.50251
327.04        77.65656
327.49        77.80716
327.94        78.03126
328.39        78.34439
328.85        78.68818
329.30        79.05136
329.75        79.31168
330.20        79.44527
330.66        79.47164
331.11        79.49052
331.56        79.57209
332.01        79.75491
332.46        80.01919
332.92        80.33531
333.37        80.74465
333.82        81.20852
334.27        81.73161
334.72        82.27248
335.17        82.76212
335.63        83.14669
336.08        83.45508
336.53        83.70362
336.98        83.97429
337.43        84.28587
337.88        84.63117
338.34        84.91994
338.79        85.02263
339.24        84.93188
339.69        84.72365
340.14        84.57015
340.59        84.74065
341.05        85.28664
341.50         86.1172
341.95        87.07175
342.40        87.89953
342.85        88.51206
343.30        88.97443
343.75        89.30745
344.20        89.55643
344.66        89.77172
345.11        89.91753
345.56        90.07428
346.01        90.37041
346.46        90.82698
346.91        91.41303
347.36        92.03948
347.81        92.55166
348.26         92.9083
348.72          93.159
349.17        93.33801
349.62        93.52703
350.07        93.75076
350.52        93.97333
350.97        94.18874
351.42        94.39836
351.87        94.58499
352.32        94.73714
352.77        94.82452
353.22        94.79616
353.67        94.64994
354.13        94.44091
354.58         94.1508
355.03        93.81165
355.48         93.4596
355.93        93.11417
356.38        92.85281
356.83        92.79158
357.28        92.93497
357.73        93.22177
358.18        93.55058
358.63        93.75577
359.08        93.77271
359.53         93.6339
359.98        93.33537
360.43        92.88896
360.88        92.31818
361.33        91.61834
361.78        90.88284
362.23        90.25251
362.68        89.76016
363.13        89.39727
363.58        89.04887
364.03        88.52019
364.48        87.78607
364.93        86.91496
365.38         86.0816
365.83         85.5492
366.28        85.36028
366.73        85.41882
367.18        85.52516
367.63        85.36444
368.08        84.85226
368.53        84.08026
368.98         83.2196
369.43        82.52445
369.88        82.06219
370.33        81.77076
370.78        81.51762
371.23        81.09102
371.68        80.45166
372.13        79.67921
372.58        78.95914
373.03         78.5573
373.48        78.50981
373.93        78.71775
374.38        78.94706
374.83        78.82108
375.28         78.2504
375.72        77.33623
376.17         76.3683
376.62        75.65523
377.07        75.26928
377.52        75.11076
377.97        75.03118
378.42        74.79907
378.87        74.36243
379.32        73.81274
379.77        73.27639
380.22        72.91489
380.67        72.75151
381.11        72.73831
381.56        72.72761
382.01        72.54512
382.46         72.1523
382.91        71.61489
383.36        71.06491
383.81        70.68707
384.26        70.51182
384.71        70.47904
385.15        70.45899
385.60        70.27455
386.05        69.87977
386.50        69.34167
386.95        68.78659
387.40         68.3992
387.85        68.22088
388.29        68.16176
388.74        68.17207
389.19        68.03202
389.64         67.7009
390.09        67.23388
390.54        66.77087
390.98        66.46836
391.43         66.3929
391.88         66.5948
392.33        66.89228
392.78        66.69838
393.23        66.15325
393.67        66.01199
394.12        66.27119
394.57        66.23055
395.02        65.87634
395.47         65.5799
395.91        65.40758
396.36        65.25528
396.81        65.16723
397.26        65.19932
397.71         65.2214
398.15        65.08751
398.60        64.86983
399.05        64.30994
399.50        63.66601
399.95        63.88735
400.39        64.76549
400.84         64.7608
401.29        63.92912
401.74        63.59482
402.18        63.81565
402.63        63.86003
403.08        63.77589
403.53        63.45283
403.97        63.79058
404.42         63.9342
404.87        64.08111
405.32        64.09022
405.76        63.93374
406.21        63.73019
406.66        63.48853
407.11        63.16905
407.55        62.87147
408.00        62.71474
408.45        62.71637
408.90        62.88931
409.34        63.08801
409.79          62.916
410.24        62.48082
410.68        62.30983
411.13        62.43989
411.58          62.575
412.03        62.59876
412.47        62.47839
412.92        62.17474
413.37        61.71746
413.81        61.28001
414.26         61.1805
414.71        61.43079
415.15        61.99149
415.60        62.57858
416.05        62.76001
416.49        62.42627
416.94        61.73654
417.39        61.01266
417.83        60.71685
418.28        60.95549
418.73        61.57627
419.17        62.34182
419.62        62.79832
420.07        62.80333
420.51        62.47304
420.96        62.01954
421.41        61.63309
421.85        61.35884
422.30        61.35379
422.74        61.44333
423.19        61.15697
423.64        60.59918
424.08        60.60216
424.53        61.14682
424.98        61.49278
425.42        61.58091
425.87        61.98328
426.31        62.58713
426.76        62.53186
427.21        61.98391
427.65        62.07308
428.10        62.69439
428.54         62.8432
428.99        62.54062
429.44        62.23983
429.88          62.045
430.33        62.16262
430.77        62.41547
431.22        62.44738
431.66        62.21578
432.11        61.94376
432.56        61.70089
433.00        61.76791
433.45        62.01022
433.89        62.48445
434.34        60.46512
434.78        62.25049
435.23         62.2127
435.67        61.55589
436.12         61.1269
436.57        61.37058
437.01        62.69185
437.46         63.2751
437.90        63.06952
438.35        62.64051
438.79        62.75859
439.24        62.50325
439.68        62.11829
440.13         61.9323
440.57        61.97709
441.02        61.79674
441.46        61.44744
441.91        61.93169
442.35        62.83808
442.80        62.59523
443.24        61.48064
443.69        61.58394
444.13        62.75203
444.58        63.14215
445.02        62.67875
445.47        62.38126
445.91        62.36411
446.36         62.4105
446.80        62.52621
447.24        62.77647
447.69        63.04684
448.13        63.15158
448.58        63.06541
449.02        62.82185
449.47        62.54478
449.91        62.39315
450.36        62.42482
450.80        62.56317
451.25        62.75002
451.69        62.86243
452.13        62.87343
452.58        62.82761
453.02        62.74412
453.47        62.67886
453.91         62.6318
454.36        62.57939
454.80        62.51273
455.24        62.42741
455.69        62.32683
456.13        62.26284
456.58        62.22057
457.02        62.05373
457.46         61.5688
457.91        61.63049
458.35        61.53868
458.79        61.65273
459.24        61.71669
459.68         61.4404
460.13        60.94217
460.57        60.73901
461.01         60.9285
461.46        60.72645
461.90        60.64228
462.34        60.99538
462.79        60.23893
463.23        60.18006
463.68        60.29765
464.12        60.32566
464.56        60.22949
465.01        60.25319
465.45        60.36287
465.89        60.42257
466.34        60.42194
466.78        60.53922
467.22        60.78046
467.67        60.35243
468.11         60.1497
468.55        60.09816
468.99        60.36929
469.44        60.36293
469.88         60.0678
470.32        59.80644
470.77        59.64545
471.21        59.57661
471.65        59.60368
472.10        59.72364
472.54        59.86552
472.98        59.92391
473.42        59.86828
473.87        59.80035
474.31        59.68327
474.75        59.39841
475.20        59.04559
475.64        58.87558
476.08        58.89192
476.52        58.88486
476.97        58.84645
477.41        58.86463
477.85        58.89136
478.29        59.16932
478.74        58.97733
479.18        59.05024
479.62         59.2067
480.06        59.18393
480.50        58.92789
480.95         58.9361
481.39        59.29014
481.83        58.38311
482.27        58.66094
482.72        59.03353
483.16        58.73093
483.60        58.86755
484.04        59.05175
484.48        59.02075
484.93         58.7346
485.37        59.36293
485.81        59.58065
486.25        59.34178
486.69        60.82785
487.14        61.11424
487.58        58.33508
488.02        58.48429
488.46        59.62031
488.90        58.11112
489.34        58.91244
489.79        58.66951
490.23        58.91192
490.67        59.11818
491.11         59.2449
491.55        59.22177
491.99        59.03104
492.43        58.91302
492.88        58.88459
493.32        58.87867
493.76        58.86209
494.20        58.80771
494.64         58.7006
495.08        58.61302
495.52        58.59322
495.96         58.5005
496.41          58.399
496.85         58.7817
497.29        59.44048
497.73        59.36736
498.17        58.66751
498.61        58.50471
499.05        58.88074
499.49        58.85489
499.93        58.43954
500.37        58.29696
500.82         58.4324
501.26        58.42237
501.70         58.2244
502.14        58.42126
502.58        58.23483
503.02        58.26923
503.46        58.28967
503.90        58.30795
504.34         58.3041
504.78        58.27491
505.22        58.22785
505.66        58.14841
506.10        58.04264
506.54        57.99708
506.98        58.03463
507.42        58.00065
507.86        57.84626
508.30        58.23051
508.74        57.93045
509.18         57.9308
509.62        57.90228
510.06        57.93245
510.50        58.01846
510.94        58.15187
511.38        58.27553
511.82         58.2645
512.26        58.10321
512.70        57.83537
513.14        57.54668
513.58        57.37132
514.02         57.3388
514.46        57.40192
514.90        57.50603
515.34         57.5578
515.78        57.53124
516.22        57.47267
516.66        57.38524
517.10         57.2705
517.54        57.14542
517.98        57.00177
518.42        56.91384
518.86         57.0046
519.30        57.28114
519.74        57.69793
520.18         58.1199
520.62        58.32404
521.06        58.25698
521.50        57.98668
521.93        57.62931
522.37        57.38882
522.81        57.31931
523.25        57.36275
523.69        57.46469
524.13        57.53623
524.57        57.54935
525.01        57.54451
525.45        57.53024
525.89        57.51237
526.32        57.49331
526.76        57.46696
527.20         57.4525
527.64        57.49289
528.08        57.59087
528.52        57.73377
528.96        57.87092
529.40        57.92292
529.83        57.86266
530.27        57.72077
530.71          57.553
531.15        57.45543
531.59        57.45171
532.03        57.52577
532.46        57.60762
532.90        57.58629
533.34        57.45162
533.78        57.25347
534.22        57.08844
534.66        57.09739
535.09        57.28545
535.53        57.59389
535.97        57.92767
536.41        58.09285
536.85        58.03292
537.28        57.96352
537.72        57.88109
538.16        57.42615
538.60        56.81683
539.04        56.83343
539.47        57.36454
539.91        57.58635
540.35        57.44286
540.79        57.42086
541.22        57.50632
541.66         57.4974
542.10        57.39905
542.54        57.18223
542.97        56.93668
543.41        57.02497
543.85        57.36687
544.29        57.49316
544.72        57.36867
545.16        57.33901
545.60        57.38766
546.04        57.31147
546.47        57.14336
546.91        57.05146
547.35        57.05376
547.79        57.11605
548.22        57.20456
548.66        57.27622
549.10        57.32489
549.53        57.46463
549.97        57.64165
550.41        57.70116
550.84        57.62703
551.28        57.45561
551.72         57.2458
552.15        57.16064
552.59        57.18271
553.03        57.04637
553.46        56.82323
553.90        56.64933
554.34        56.91488
554.77        57.09224
555.21        57.28104
555.65        57.24869
556.08        57.45176
556.52        57.46402
556.96        57.43432
557.39        57.32354
557.83        57.22252
558.27        57.31008
558.70        57.51171
559.14        57.60049
559.57        57.51898
560.01        57.28124
560.45        57.00082
560.88        56.99245
561.32        57.23755
561.75        57.36206
562.19        57.36978
562.63        57.30862
563.06         57.2119
563.50        57.42598
563.93        57.81716
564.37        57.59202
564.80        56.92489
565.24        56.95826
565.68        57.54799
566.11        57.70699
566.55        57.41951
566.98        57.08759
567.42        56.84584
567.85        57.06519
568.29        57.29436
568.72        57.37209
569.16        57.22987
569.60        57.28576
570.03        57.38981
570.47        57.48084
570.90        57.55143
571.34        57.41932
571.77        57.81665
572.21        57.90041
572.64        57.93358
573.08          57.609
573.51        58.16954
573.95        57.91162
574.38        57.56888
574.82        57.02648
575.25        58.45375
575.69        58.64428
576.12        58.27717
576.56        57.49896
576.99        57.54629
577.42        58.63343
577.86        57.83403
578.29        58.44255
578.73        58.13656
579.16        58.26005
579.60        58.31597
580.03        58.05046
580.47        58.03633
580.90        58.00967
581.33        57.29817
581.77        57.88017
582.20        58.77505
582.64        58.61201
583.07        58.73884
583.51        58.18768
583.94        57.94083
584.37        57.88639
584.81        57.86857
585.24        57.85143
585.68        58.54005
586.11        57.93586
586.54        58.33858
586.98        57.70599
587.41        57.05486
587.85        58.22124
588.28        58.25825
588.71        57.95768
589.15        57.62934
589.58        57.94219
590.01        57.19449
590.45        56.94516
590.88        57.46488
591.31        57.82541
591.75        58.08251
592.18        57.79066
592.61        57.21167
593.05        57.20239
593.48        58.45465
593.91        58.30946
594.35        58.22868
594.78        57.84414
595.21        57.63779
595.65        57.64918
596.08        57.62328
596.51        58.12351
596.94        57.78801
597.38        57.66384
597.81        57.29542
598.24        58.11457
598.68        57.80475
599.11        57.05061
599.54        58.41491
599.97        57.75526
600.41        58.00852
600.84         57.8522
601.27        57.91307
601.70        57.59629
602.14        57.49445
602.57        57.50554
603.00         57.6828
603.43        58.00164
603.87        57.64717
604.30        57.76345
604.73        57.80726
605.16        58.07993
605.60         57.2905
606.03         57.1856
606.46        57.42905
606.89        57.25401
607.32        57.80675
607.76        57.36316
608.19        57.69536
608.62         57.6634
609.05        57.63379
609.48        57.53151
609.92        57.61905
610.35        56.93492
610.78        58.28766
611.21        58.65581
611.64        58.37535
612.07        58.24635
612.50        58.21188
612.94        58.07188
613.37        57.84783
613.80        57.81919
614.23        57.64547
614.66        57.63919
615.09         57.6871
615.52        57.75958
615.96        57.82774
616.39        57.86998
616.82        57.87818
617.25        57.83554
617.68        57.98068
618.11        57.66478
618.54        56.82753
618.97        56.80559
619.40        57.45695
619.84        57.73476
620.27        57.84217
620.70        57.92002
621.13        58.06784
621.56        57.77129
621.99        57.14068
622.42        57.29168
622.85        57.92699
623.28        57.49739
623.71        57.18213
624.14        57.37458
624.57        57.08408
625.00        56.69463
625.43        57.06446
625.86        57.12306
626.29        57.16191
626.72        57.45446
627.15        57.38918
627.58         57.4508
628.01        57.40763
628.44        57.27426
628.87        57.13761
629.30        56.78962
629.73        56.83419
630.16        57.07813
630.59        56.80429
631.02        56.84102
631.45        56.93233
631.88        57.04227
632.31        57.14519
632.74        57.25979
633.17        57.35107
633.60        57.34306
634.03        57.22953
634.46         57.0339
634.89        56.81261
635.32        56.66133
635.75        56.60685
636.18        56.62056
636.61        56.67716
637.04        56.73622
637.47        56.78318
637.89        56.82167
638.32        56.81421
638.75         56.7902
639.18        56.76402
639.61        56.50236
640.04        56.47027
640.47        56.39484
640.90        56.41927
641.33        56.51434
641.76        56.65623
642.18        56.80217
642.61        56.90771
643.04        56.99017
643.47        57.04478
643.90        57.06778
644.33        57.05632
644.76        57.01246
645.18        56.95765
645.61        56.85475
646.04           56.71
646.47        56.67218
646.90        56.78182
647.33        56.44234
647.75        56.72818
648.18        56.70144
648.61        56.71584
649.04         56.9295
649.47        57.27863
649.89        57.45931
650.32        57.40043
650.75        57.30891
651.18         57.2439
651.61        57.08907
652.03        56.90498
652.46        57.06307
652.89        57.42081
653.32        57.21223
653.74        56.65796
654.17        56.65552
654.60        56.58811
655.03        57.42902
655.46        56.36654
655.88         56.3055
656.31        59.12062
656.74        63.44276
657.16        60.18952
657.59        56.99187
658.02        57.45293
658.45        58.27789
658.87        58.15121
659.30        57.16154
659.73        56.89716
660.15        57.48056
660.58         56.8537
661.01        56.79445
661.44        56.55774
661.86        56.48427
662.29        56.52816
662.72        56.68748
663.14        56.90321
663.57        56.75043
664.00        56.36374
664.42        56.37957
664.85         56.7777
665.27        56.95513
665.70        56.86795
666.13        56.87837
666.55        56.98249
666.98        56.96456
667.41        56.84935
667.83        56.76481
668.26        56.72181
668.69        56.70564
669.11        56.67962
669.54        56.57851
669.96        56.40135
670.39        56.18382
670.82        56.02474
671.24        56.04292
671.67        56.25482
672.09        56.65328
672.52        57.13667
672.94        57.21524
673.37        57.46719
673.80        57.18812
674.22        56.74067
674.65        56.56123
675.07        56.72993
675.50        57.02645
675.92        57.33298
676.35        57.49587
676.77        57.46929
677.20        57.30931
677.62        57.09755
678.05        56.96342
678.47        56.94162
678.90         56.9909
679.32        57.07085
679.75         57.1679
680.17        57.26889
680.60        57.31171
681.02        57.27481
681.45         57.4729
681.87        57.30667
682.30        57.27362
682.72        57.21785
683.15          57.143
683.57        57.08632
684.00        57.14039
684.42        57.27317
684.85         57.3485
685.27        57.34528
685.70         57.2673
686.12        57.15012
686.54        57.22561
686.97         57.4198
687.39         57.3802
687.82        57.10235
688.24        56.92611
688.66        56.87115
689.09        56.72744
689.51        56.54934
689.94        56.56994
690.36        56.82338
690.78        57.13165
691.21        57.32485
691.63        57.91005
692.06        57.40164
692.48        57.48869
692.90        57.71928
693.33           57.79
693.75        57.70604
694.17        57.59016
694.60        57.48396
695.02        57.80421
695.44        57.72913
695.87        57.98117
696.29        58.22154
696.71        58.12982
697.14        57.74489
697.56        57.43818
697.98         57.3035
698.41        57.19992
698.83        57.12904
699.25        57.23785
699.68         57.4468
700.10        57.60664
700.52          57.658
700.94        57.64613
701.37        57.59661
701.79        57.57477
702.21         57.5848
702.64        57.60223
703.06        57.60324
703.48        57.56044
703.90        57.47518
704.33        57.36901
704.75        57.26929
705.17        57.20277
705.59        57.18218
706.01        57.19386
706.44        57.24674
706.86        57.37718
707.28        57.56035
707.70        57.78606
708.12        57.99953
708.55        58.09354
708.97        58.05413
709.39        57.95281
709.81        57.83209
710.23        57.74247
710.66        57.71327
711.08        57.75486
711.50        57.83736
711.92        57.91855
712.34        57.98437
712.76        58.04807
713.19        58.08952
713.61        58.12452
714.03        58.12996
714.45        58.09901
714.87        58.04963
715.29        58.01275
715.71        57.99269
716.13        57.98547
716.56        57.95185
716.98         57.8853
717.40        57.76752
717.82        57.61821
718.24        57.48129
718.66        57.42593
719.08        57.46241
719.50        57.55888
719.92        57.68217
720.34        57.77719
720.76        57.82856
721.19        57.85076
721.61        57.83957
722.03        57.78706
722.45        57.72739
722.87        57.52627
723.29        57.25608
723.71        57.42311
724.13        58.05123
724.55        57.74001
724.97        58.21265
725.39        58.19065
725.81         58.1905
726.23        58.02885
726.65        57.80901
727.07        57.74389
727.49        57.85464
727.91        58.09621
728.33        58.38664
728.75        58.58718
729.17         58.6536
729.59        58.62898
730.01        58.57051
730.43        58.56753
730.85        58.64135
731.27        58.75127
731.69        58.85595
732.10        58.90445
732.52        58.88409
732.94        58.80411
733.36         58.6709
733.78        58.54984
734.20        58.47652
734.62        58.22717
735.04        58.23049
735.46        58.19405
735.88        58.23401
736.30        58.32738
736.72        58.46946
737.13        58.60003
737.55        58.65063
737.97        58.80759
738.39        59.01579
738.81        58.79256
739.23        58.31222
739.65        58.51784
740.06        59.22992
740.48         59.4142
740.90         59.0055
741.32        58.58295
741.74        58.30428
742.16        58.17147
742.57        58.25223
742.99        58.52264
743.41        58.89381
743.83        59.20751
744.25        59.40542
744.67        59.51087
745.08        59.56112
745.50        59.58192
745.92        59.60419
746.34        59.61216
746.75        59.57692
747.17        59.47683
747.59         59.3101
748.01        59.08165
748.42        58.87357
748.84        58.80584
749.26        58.86062
749.68        59.04264
750.09        59.27477
750.51        59.16223
750.93        58.86909
751.35         59.2452
751.76        60.12327
752.18        60.37854
752.60        59.93665
753.01         59.4103
753.43        58.99442
753.85        58.77745
754.27        58.82061
754.68        59.05901
755.10        59.39347
755.52        59.66122
755.93        59.83455
756.35        60.01194
756.77        60.08863
757.18        60.03809
757.60        59.90444
758.02        59.24737
758.43        58.46922
758.85        59.15329
759.26        60.96977
759.68        61.52837
760.10         60.7031
760.51        60.09805
760.93        59.97913
761.34        59.91977
761.76        60.21804
762.18        60.11081
762.59         59.7526
763.01        59.74404
763.42        60.09372
763.84        60.12548
764.26        59.85051
764.67        59.58739
765.09        59.45763
765.50        59.47918
765.92        59.63438
766.33        59.66501
766.75        59.55084
767.16        59.64818
767.58        59.90711
768.00        60.13485
768.41        60.31246
768.83        60.42666
769.24        60.45483
769.66        60.44155
770.07        60.35811
770.49        60.05239
770.90        59.64486
771.32        59.67799
771.73        60.09135
772.15        60.30515
772.56        60.30783
772.97        60.32625
773.39         60.3237
773.80        60.69566
774.22        60.53342
774.63        60.60018
775.05        60.60894
775.46        60.59401
775.88        60.54094
776.29        60.47404
776.70        60.42207
777.12        60.42093
777.53        60.49418
777.95        60.60384
778.36         60.7261
778.77        60.79241
779.19        60.80172
779.60        60.79258
780.02        60.76862
780.43        60.80024
780.84        60.91759
781.26        60.89292
781.67        60.83467
782.09        61.30926
782.50        62.10412
782.91        62.20156
783.33        61.63758
783.74        61.41372
784.15        61.56013
784.57        61.50523
784.98        61.26058
785.39        61.11077
785.81         61.0794
786.22        61.10873
786.63         61.1644
787.04         61.1808
787.46        61.16241
787.87        61.10589
788.28        61.09304
788.70        61.23257
789.11        61.51044
789.52        61.88605
789.93        62.25004
790.35        62.41414
790.76        62.36529
791.17        62.17207
791.58        61.90566
792.00          61.708
792.41        61.65646
792.82        61.56348
793.23        61.50077
793.65        61.89801
794.06         62.6072
794.47        62.83265
794.88        62.54143
795.29        62.35917
795.71        62.26104
796.12        61.85212
796.53        61.26686
796.94        61.08788
797.35        61.36148
797.76        61.72875
798.18        62.01992
798.59        62.22272
799.00        62.24966
799.41         62.0433
799.82        61.74557
800.23        61.65167
800.64        61.81625
801.06        62.10725
801.47         62.4599
801.88        62.65669
802.29        62.62645
802.70        62.44511
803.11        62.17189
803.52        61.88837
803.93        61.64228
804.34        61.42402
804.75        61.27197
805.17        61.22667
805.58        61.30994
805.99        61.53946
806.40        61.87109
806.81        62.07571
807.22        62.17045
807.63        62.48964
808.04        62.93712
808.45        63.02288
808.86        62.69687
809.27        62.21283
809.68        61.74383
810.09         61.4959
810.50         61.5492
810.91        61.84916
811.32        62.26141
811.73        62.54769
812.14        62.62922
812.55        62.57658
812.96        62.43174
813.37        62.27627
813.78        62.15498
814.19        62.03194
814.60        61.94701
815.01        61.97006
815.42        62.10632
815.83        62.35073
816.24        62.62465
816.65        62.76198
817.05        62.71352
817.46        62.49287
817.87        62.22314
818.28        62.04911
818.69         62.0117
819.10        62.07335
819.51        62.18768
819.92        62.27014
820.33        62.28505
820.74        62.25248
821.14        62.20383
821.55        62.20088
821.96         62.2505
822.37        62.35109
822.78         62.4448
823.19        62.43546
823.60        62.30751
824.00        62.09601
824.41        61.90676
824.82        61.98095
825.23        62.35756
825.64          62.969
826.04        63.62528
826.45        63.91552
826.86        63.76698
827.27        63.29145
827.68        62.70538
828.08        62.39386
828.49        62.43134
828.90        62.72549
829.31        63.14959
829.72        63.49354
830.12        63.70417
830.53         63.7933
830.94         63.7972
831.35         63.7332
831.75        63.63375
832.16        63.43301
832.57        63.18782
832.97        62.97334
833.38        62.81475
833.79        62.71657
834.20        62.64344
834.60        62.51731
835.01        62.34385
835.42        62.15503
835.82        62.01871
836.23        62.00031
836.64        62.13252
837.04         62.4052
837.45        62.72569
837.86        63.04652
838.26        63.33094
838.67        63.52808
839.08         63.6278
839.48          63.604
839.89        63.45437
840.29        63.17597
840.70         62.8115
841.11        62.36442
841.51        61.88721
841.92        61.42268
842.33        61.02968
842.73        60.80701
843.14        60.75042
843.54        60.83391
843.95        61.10604
844.35        61.67622
844.76        62.47648
845.17        63.46335
845.57        64.36647
845.98        64.60147
846.38         64.1015
846.79        63.05756
847.19        61.84376
847.60        61.06857
848.00         60.8825
848.41        61.08839
848.81        61.59292
849.22        62.12521
849.62        62.60523
850.03         63.0686
850.43        63.39918
850.84        63.29115
851.24        62.75165
851.65        61.82428
852.05        60.83639
852.46        60.35044
852.86         60.4604
853.27        61.00432
853.67        61.66135
854.07        62.14508
854.48        62.32856
854.88        62.37597
855.29        62.19434
855.69         61.8341
856.10        61.28235
856.50        60.60056
856.90        59.99593
857.31         59.8071
857.71        60.11853
858.12         60.8152
858.52        61.72028
858.92         62.3088
859.33         62.3913
859.73        62.12679
860.13        61.67912
860.54        61.35614
860.94        61.28843
861.34         61.3586
861.75        61.47275
862.15        61.56999
862.55        61.57383
862.96        61.54139
863.36        61.47256
863.76        61.36457
864.17        61.21815
864.57        61.05667
864.97        60.86963
865.38        60.63486
865.78        60.39337
866.18        60.12514
866.58        59.91302
866.99         59.8958
867.39        60.10228
867.79        60.46306
868.19         60.8098
868.60        60.86169
869.00        60.57497
869.40        60.04936
869.80        59.44454
870.21        59.05057
870.61        58.99688
871.01        59.17147
871.41        59.50234
871.81        59.88379
872.22         60.2496
872.62        60.66994
873.02        61.09801
873.42        61.42549
873.82        61.61223
874.22        61.66122
874.63        61.65404
875.03        61.71295
875.43        61.86765
875.83        62.05608
876.23        62.23565
876.63        62.31953
877.03        62.29814
877.44        62.27173
877.84        62.16073
878.24        61.85994
878.64        61.38439
879.04        60.72722
879.44        60.20744
879.84        60.29597
880.24        61.01754
880.64         62.2473
881.04        63.39705
881.44        63.41839
881.84        62.12459
882.24        59.94321
882.65        57.70866
883.05        56.51062
883.45        56.61805
883.85        57.71121
884.25        59.31169
884.65        60.52084
885.05        60.99081
885.45        60.97248
885.85        60.72565
886.25        60.65651
886.65        60.87878
887.05        61.19864
887.45        61.49556
887.85        61.62106
888.25        61.52565
888.65        61.31362
889.04        61.02477
889.44         60.7178
889.84        60.42544
890.24        60.15713
890.64        59.97106
891.04        59.96988
891.44        60.16129
891.84        60.49125
892.24        60.91372
892.64        61.34609
893.04        61.76145
893.44        62.20837
893.83        62.60833
894.23        62.76086
894.63         62.6647
895.03        62.30362
895.43         61.9712
895.83         62.1427
896.23        62.87472
896.63        64.04312
897.02        65.10837
897.42        65.18773
897.82        64.15812
898.22        62.34655
898.62        60.47519
899.01         59.5538
899.41        59.80125
899.81        60.94982
900.21         62.4228
900.61        63.12184
901.00        62.70572
901.40        61.59133
901.80        60.40525
902.20        60.00319
902.59        60.57962
902.99        61.83553
903.39         63.3323
903.79        64.15281
904.18        63.97184
904.58        63.13322
904.98        62.14815
905.38        61.70921
905.77        61.94422
906.17        62.61827
906.57        63.43189
906.96        63.93751
907.36        63.94003
907.76        63.61692
908.15        63.11818
908.55        62.61122
908.95        62.22155
909.34         61.8857
909.74         61.6336
910.14        61.47731
910.53        61.41756
910.93        61.50705
911.33        61.71848
911.72        61.99594
912.12        62.30988
912.52        62.63676
912.91        63.01311
913.31        63.48896
913.70        64.06753
914.10        64.64825
914.49        65.12389
914.89        65.25547
915.29         65.0166
915.68        64.50541
916.08        63.85066
916.47        63.20187
916.87        62.67075
917.26        62.19539
917.66        61.88787
918.05        61.89342
918.45        62.18347
918.84        62.78107
919.24        63.35921
919.64         63.4288
920.03        62.88176
920.42        61.85512
920.82        60.81658
921.21        60.32105
921.61        60.47495
922.00        61.15749
922.40        61.98723
922.79         62.3675
923.19        62.09217
923.58         61.3839
923.98        60.64844
924.37        60.44593
924.77        60.89883
925.16        61.83827
925.55        62.93507
925.95        63.58727
926.34        63.62534
926.74        63.21264
927.13        62.60433
927.52        62.18026
927.92        62.05945
928.31        62.11878
928.70        62.26822
929.10        62.34825
929.49        62.33221
929.89        62.30789
930.28        62.34126
930.67         62.4823
931.07        62.72458
931.46         63.0089
931.85        63.35605
932.24        63.83937
932.64        64.41286
933.03        65.11983
933.42        65.68327
933.82        65.67516
934.21        65.06975
934.60         63.9993
934.99        62.93021
935.39        62.54484
935.78        62.96255
936.17        63.95829
936.56        65.10799
936.96        65.67813
937.35        65.49917
937.74        64.80968
938.13        63.81594
938.53        62.85052
938.92        62.06521
939.31        61.40867
939.70        61.05703
940.09        61.29839
940.49        62.08546
940.88        63.34023
941.27        64.72823
941.66        65.63174
942.05        65.80031
942.44        65.37947
942.84         64.4145
943.23        63.04371
943.62         61.5048
944.01        59.89892
944.40        58.60611
944.79        58.07241
945.18        58.32364
945.57        59.27892
945.97        60.55703
946.36        61.59853
946.75        62.02625
947.14        61.97969
947.53        61.73136
947.92        61.78148
948.31         62.2575
948.70         62.9233
949.09        63.64246
949.48        64.21803
949.87        64.54655
950.26        64.73555
950.65        64.66349
951.04        64.11672
951.43        63.13429
951.82        61.81677
952.21        60.54173
952.60         59.8717
952.99        59.91273
953.38        60.52475
953.77        61.33555
954.16        61.68576
954.55        61.37389
954.94        60.56699
955.33        59.60379
955.72        59.04472
956.11        59.05513
956.50        59.48775
956.89        60.04126
957.28        60.23215
957.66        59.95038
958.05         59.3354
958.44        58.75054
958.83        58.75833
959.22        59.47065
959.61        60.69096
960.00         61.9755
960.39         62.5633
960.78        62.24236
961.16        61.25926
961.55        60.03959
961.94        59.23805
962.33        59.05323
962.72        59.28955
963.11        59.76585
963.49        60.20125
963.88        60.44967
964.27        60.65131
964.66        60.81549
965.04        60.95732
965.43        61.03672
965.82         61.0146
966.21        60.97278
966.60        61.08343
966.98        61.37914
967.37        61.80679
967.76        62.17838
968.15        62.15572
968.53        61.70141
968.92        60.89953
969.31        60.05517
969.69        59.66898
970.08        59.84243
970.47        60.42549
970.86        61.17524
971.24        61.68613
971.63        61.84399
972.02        61.84543
972.40        61.76425
972.79        61.68986
973.17        61.74096
973.56        61.74001
973.95        61.96256
974.33        62.87257
974.72        64.44099
975.11        66.64133
975.49         68.8565
975.88        69.67939
976.26        68.71448
976.65        66.32967
977.04        63.51307
977.42        61.60584
977.81        60.91006
978.19        61.01295
978.58        61.41816
978.96        61.16873
979.35        60.06402
979.74        58.37866
980.12        56.65107
980.51        55.64013
980.89        55.64807
981.28        56.46906
981.66        57.56922
982.05        57.98181
982.43        57.48463
982.82        56.33933
983.20        55.34523
983.59        55.73199
983.97        57.80926
984.35        61.21407
984.74        64.79004
985.12        66.59402
985.51        65.82944
985.89        63.22016
986.28         60.0346
986.66        57.73332
987.04         56.7797
987.43         56.6815
987.81        57.15798
988.20        57.58318
988.58        57.77431
988.96        58.04987
989.35        58.29867
989.73        58.41186
990.12        58.33974
990.50        57.94044
990.88        57.64867
991.27        58.20204
991.65        59.74776
992.03        62.29828
992.42        64.81013
992.80        65.43179
993.18        63.48155
993.56           59.78
993.95        56.25543
994.33        54.88411
994.71        56.04963
995.10        59.18776
995.48         63.1746
995.86        65.01539
996.24        63.57649
996.63        59.99083
997.01        55.98396
997.39        53.81574
997.77        53.98421
998.15        55.70239
998.54        58.40193
998.92        61.04411
999.30        63.07018
999.68        64.85423
1000.06        65.94056
1000.45        65.48528
1000.83        63.66029
1001.21        60.66966
1001.59        57.69447
1001.97        56.39015
1002.35        57.03719
1002.73        59.27193
1003.12        62.29821
1003.50        64.57737
1003.88        65.44377
1004.26        65.31852
1004.64        64.66515
1005.02         64.3009
1005.40        64.43169
1005.78        64.58409
1006.16        64.65462
1006.54        64.54689
1006.92        64.16913
1007.30        63.75871
1007.69        62.85553
1008.07        60.72701
1008.45        57.64767
1008.83        54.23577
1009.21        51.63325
1009.59        51.00027
1009.97        52.37379
1010.35        55.55808
1010.73          59.737
1011.11        62.71441
1011.49        63.33692
1011.86         61.8531
1012.24        59.72282
1012.62        59.30156
1013.00        61.34846
1013.38        65.60377
1013.76        70.63207
1014.14        72.53101
1014.52        70.18432
1014.90        65.72797
1015.28        61.81686
1015.66        60.82245
1016.04        62.90968
1016.41        67.66538
1016.79         74.0802
1017.17        79.69279
1017.55        82.38098
1017.93        82.37961
1018.31        79.41795
1018.69        74.13071
1019.06        68.00887
1019.44        62.18843
1019.82        57.74326
1020.20          55.253
1020.58        54.34285
1020.95        54.82685
1021.33         56.3107
1021.71        57.71368
1022.09        58.38211
1022.46        58.19191
1022.84        57.88599
1023.22        58.40853
1023.60        60.05765
1023.97        63.04456
1024.35        65.90221
1024.73        64.87393
