SpectraSmart Spectrum 2.9.0.0
--------- Device Information -----------
Spectrum Name :  反射率_0
Saving Time :  2024/05/03 20:20:40
Spectro-Module Model Name : SE2030-DUVN
Spectro-Module Serial Number : OS361AC55029948
Wavelength Start : 200
Wavelength End : 1025
Wavelength Unit : Wavelength(nm)
Spectrum Unit : Reflectance(%)
-----------Spectrum Setting ------------
Integration Time : 20ms
Average : 10
Boxcar : 0
Background removal :  enabled
linearity correction :  enabled
SC :  disabled
Intensity correction :  disabled
DWT denoise :  enabled
savitzky-golay :  disabled
FFT :  disabled
Running average :  disabled
Kalman :  disabled
High pass :  disabled
---------------BEGIN--------------------
Wavelength(nm)             Reflectance(%)
200.29               0
200.75       -12.48215
201.21       -55.09732
201.67        2827.755
202.13        125.3659
202.58        78.40681
203.04        59.23595
203.50        49.93301
203.96        50.14737
204.42        62.91684
204.88        119.8678
205.34       -1996.652
205.80        -180.859
206.26       -204.9996
206.72        -50187.8
207.18        186.8086
207.64        127.7649
208.10        138.0977
208.55         230.968
209.01        1188.277
209.47        1643.511
209.93        279.6882
210.39        141.4969
210.85        103.9639
211.31        92.03553
211.77        89.54321
212.23         94.7436
212.69        108.8308
213.14         94.8811
213.60        51.01667
214.06        35.73706
214.52        33.53731
214.98        36.43246
215.44        45.82269
215.90         84.6773
216.36       -465.4295
216.81       -80.96365
217.27       -79.40753
217.73       -137.5934
218.19       -506.3327
218.65       -10361.49
219.11       -772.9298
219.57       -214.8019
220.02       -131.1137
220.48       -233.0715
220.94        277.6609
221.40        89.09194
221.86        61.04108
222.32        53.28613
222.77        52.00271
223.23        54.86642
223.69        60.64037
224.15         61.8323
224.61        55.21443
225.06        47.12386
225.52        42.40283
225.98        42.17861
226.44        45.72155
226.90        52.31553
227.36        61.10182
227.81        67.41501
228.27        67.55682
228.73        63.81572
229.19        58.04474
229.65        51.59781
230.10        45.28202
230.56         39.6395
231.02        35.37408
231.48        33.42962
231.93        33.46537
232.39         34.8608
232.85        36.80383
233.31        38.22143
233.77        38.87205
234.22        39.05835
234.68        39.14373
235.14        39.72051
235.60        41.00348
236.05        42.86921
236.51         44.9752
236.97         46.7269
237.43        47.76269
237.88        48.30881
238.34        48.82563
238.80        49.98403
239.26        52.28114
239.71        58.15442
240.17         66.1152
240.63        76.14428
241.08        81.83788
241.54        79.84219
242.00        74.83882
242.46         74.3222
242.91        80.78751
243.37        95.23646
243.83        122.2532
244.28        154.4589
244.74        164.0477
245.20        149.4358
245.66        122.9954
246.11         97.1656
246.57        76.29495
247.03        58.01003
247.48        45.62646
247.94        41.99295
248.40        45.99054
248.85        56.31907
249.31        69.64291
249.77        76.10545
250.22         73.3847
250.68        66.74235
251.14        61.13963
251.59        61.00418
252.05        67.22177
252.51        80.04521
252.96        99.91196
253.42        117.8193
253.88        122.3389
254.33        115.0045
254.79        102.6851
255.25        91.10817
255.70        82.43295
256.16         76.8082
256.62        73.20078
257.07        70.97957
257.53        69.90784
257.99        69.06881
258.44        68.07079
258.90        67.15887
259.35        65.83871
259.81        64.63767
260.27         63.0458
260.72        60.60682
261.18        57.96294
261.63        55.20272
262.09        52.96191
262.55        51.46849
263.00        50.53081
263.46        49.96539
263.91        49.47122
264.37        48.94646
264.83        48.26813
265.28        47.48809
265.74        46.57867
266.19        45.24436
266.65        43.62701
267.11        41.78391
267.56        40.00545
268.02        38.78402
268.47        38.13058
268.93         37.9096
269.38        37.83103
269.84        37.40915
270.30        36.55198
270.75        35.42328
271.21        34.30801
271.66        33.51264
272.12        33.09402
272.57        32.88236
273.03        32.70939
273.48        32.35017
273.94        31.76663
274.39        31.06962
274.85        30.33304
275.31        29.56304
275.76        28.78563
276.22        28.03324
276.67        27.40111
277.13        27.12677
277.58         27.1378
278.04        27.36515
278.49        27.51746
278.95        27.19809
279.40        26.34543
279.86        25.22842
280.31        24.07823
280.77        23.27735
281.22        22.82292
281.68        22.62034
282.13        22.55155
282.59        22.50718
283.04         22.4192
283.50        22.34023
283.95        22.23984
284.41        22.08692
284.86        21.87853
285.32        21.65586
285.77        21.44126
286.22        21.33234
286.68        21.35489
287.13        21.44447
287.59          21.619
288.04        21.86389
288.50        22.16922
288.95        22.50309
289.41        22.78874
289.86        22.85969
290.32        22.72803
290.77        22.45792
291.22        22.19553
291.68        22.13918
292.13        22.34485
292.59         22.8018
293.04        23.46527
293.50        24.25892
293.95        25.13065
294.40        26.08838
294.86        27.16796
295.31        28.43333
295.77        29.90193
296.22        31.54311
296.68        33.24398
297.13        34.80262
297.58        36.14807
298.04        37.35484
298.49        38.53602
298.95        39.93502
299.40        41.59762
299.85        43.46214
300.31        45.49092
300.76        47.57748
301.21        49.69127
301.67         51.8801
302.12        54.05164
302.58         56.0901
303.03        57.93957
303.48        59.62216
303.94        61.32724
304.39        63.27149
304.84        65.53703
305.30        68.04947
305.75        70.58214
306.20         72.8149
306.66        74.68692
307.11        76.26013
307.57        77.72694
308.02        79.24379
308.47        80.91382
308.93        82.67305
309.38        84.46342
309.83         86.3016
310.29        88.15722
310.74        90.00037
311.19        91.73074
311.65        93.16166
312.10        94.22579
312.55        94.97163
313.00        95.50841
313.46         96.0341
313.91        96.59544
314.36        97.20267
314.82        97.84479
315.27        98.46078
315.72        99.05502
316.18        99.65385
316.63        100.3086
317.08        101.1099
317.53        102.0594
317.99        103.1004
318.44        104.1171
318.89        104.8602
319.35        105.2674
319.80        105.4045
320.25        105.4307
320.70        105.6313
321.16        106.0614
321.61          106.66
322.06        107.2768
322.51        107.6645
322.97        107.7493
323.42        107.6524
323.87        107.4707
324.32        107.3712
324.78         107.405
325.23        107.5633
325.68        107.8182
326.13        108.1433
326.59        108.4883
327.04        108.9161
327.49        109.3865
327.94        109.8669
328.39        110.3331
328.85        110.7328
329.30        111.1044
329.75         111.372
330.20        111.5292
330.66         111.564
331.11        111.5862
331.56        111.6482
332.01        111.7938
332.46        112.0337
332.92        112.3198
333.37        112.6926
333.82         113.105
334.27         113.553
334.72        114.0709
335.17        114.7162
335.63        115.4423
336.08        116.2643
336.53        117.0119
336.98        117.4778
337.43        117.6225
337.88        117.5167
338.34        117.3088
338.79        117.2736
339.24        117.4897
339.69        117.9092
340.14        118.4585
340.59         119.002
341.05        119.4887
341.50         119.972
341.95        120.4775
342.40        121.0574
342.85        121.7104
343.30        122.3835
343.75        123.0155
344.20        123.5275
344.66        123.9141
345.11        124.1852
345.56         124.379
346.01        124.5448
346.46        124.7168
346.91        124.8942
347.36        125.1136
347.81        125.4273
348.26        125.8378
348.72        126.3318
349.17        126.8306
349.62        127.2368
350.07        127.5107
350.52        127.6566
350.97        127.7071
351.42        127.7273
351.87        127.7288
352.32        127.6888
352.77        127.5626
353.22        127.2843
353.67        126.8607
354.13        126.3686
354.58        125.8434
355.03        125.4087
355.48        125.1024
355.93        124.9049
356.38        124.7804
356.83        124.6723
357.28        124.5422
357.73        124.3678
358.18        124.1547
358.63        123.9184
359.08        123.6482
359.53        123.3374
359.98        122.8832
360.43         122.139
360.88         121.099
361.33        119.8146
361.78        118.5052
362.23        117.4967
362.68        116.8548
363.13        116.5087
363.58        116.1933
364.03        115.4811
364.48        114.2964
364.93        112.7793
365.38        111.2703
365.83        110.2848
366.28        109.9242
366.73        110.0255
367.18        110.2286
367.63        109.9568
368.08        109.0713
368.53        107.7545
368.98        106.3583
369.43        105.4094
369.88         105.024
370.33        105.0351
370.78        105.1308
371.23        104.8039
371.68        103.9239
372.13        102.6621
372.58        101.3309
373.03        100.3862
373.48        99.92494
373.93         99.7956
374.38        99.72046
374.83        99.26135
375.28        98.31647
375.72        97.01657
376.17         95.7034
376.62        94.71551
377.07        94.12202
377.52        93.80347
377.97        93.55486
378.42        93.06659
378.87        92.28283
379.32         91.3295
379.77         90.4097
380.22        89.78802
380.67        89.49963
381.11        89.46488
381.56        89.46389
382.01        89.21392
382.46        88.65282
382.91        87.89231
383.36        87.11626
383.81        86.58284
384.26        86.33768
384.71        86.28432
385.15        86.27737
385.60        86.12312
386.05        85.75315
386.50        85.23154
386.95        84.64815
387.40        84.13136
387.85        83.72588
388.29        83.36833
388.74        83.06758
389.19        82.65367
389.64        82.09911
390.09        81.43732
390.54        80.82298
390.98        80.41862
391.43        80.28864
391.88        80.51281
392.33        80.85079
392.78        80.50372
393.23        79.63457
393.67        79.28469
394.12        79.52054
394.57        79.12076
395.02        78.81856
395.47        78.61187
395.91        78.68414
396.36        78.60174
396.81        78.36784
397.26        78.15396
397.71        77.93356
398.15        77.67102
398.60         77.4694
399.05        77.08013
399.50        76.62143
399.95        76.72048
400.39        77.20297
400.84        76.88033
401.29        75.91026
401.74        75.49536
402.18        75.69577
402.63        75.82506
403.08        75.88897
403.53        75.60007
403.97        75.99396
404.42         76.0641
404.87         76.0724
405.32        75.92358
405.76        75.61039
406.21        75.24786
406.66         74.8502
407.11        74.40183
407.55        74.03083
408.00        73.81665
408.45        73.77502
408.90        74.08741
409.34        74.48398
409.79        74.07504
410.24        73.11396
410.68        72.77206
411.13        73.12484
411.58        73.53822
412.03        73.77441
412.47        73.73499
412.92        73.32996
413.37        72.62753
413.81        71.90296
414.26        71.62749
414.71        71.83952
415.15        72.46043
415.60        73.15316
416.05        73.40282
416.49        73.06853
416.94        72.34624
417.39        71.57249
417.83        71.22398
418.28        71.41724
418.73        71.98581
419.17        72.71191
419.62        73.17296
420.07        73.22931
420.51        72.98318
420.96        72.61277
421.41        72.23471
421.85        71.87741
422.30        71.76551
422.74        71.76513
423.19        71.35961
423.64        70.68532
424.08        70.82816
424.53        71.73931
424.98        71.88692
425.42        72.15366
425.87        72.39552
426.31        72.85692
426.76        72.80164
427.21        72.42139
427.65        72.61176
428.10        73.16093
428.54        73.56609
428.99        73.11664
429.44        72.64668
429.88        72.15565
430.33         72.5048
430.77        73.30762
431.22        73.23001
431.66        72.37572
432.11        72.06721
432.56         72.3695
433.00        72.71666
433.45        72.92091
433.89        73.43282
434.34        71.03846
434.78        73.32829
435.23        73.71235
435.67        71.94651
436.12        71.72292
436.57        71.64999
437.01        72.95811
437.46        73.98438
437.90        73.35797
438.35        73.05927
438.79        73.33039
439.24        73.17381
439.68        72.78355
440.13        72.55277
440.57        72.57502
441.02        72.44314
441.46        72.18447
441.91        72.81467
442.35        73.84375
442.80        73.43192
443.24        71.97697
443.69        72.17315
444.13        73.78091
444.58         74.2904
445.02        73.59402
445.47        73.09819
445.91        72.98289
446.36        72.97262
446.80        73.08817
447.24        73.40486
447.69        73.78276
448.13        73.99261
448.58        73.99124
449.02        73.81661
449.47        73.57362
449.91        73.38938
450.36        73.32475
450.80        73.30321
451.25        73.32047
451.69         73.3372
452.13        73.34466
452.58        73.36863
453.02          73.367
453.47        73.29998
453.91        73.15382
454.36        72.93912
454.80        72.69751
455.24         72.5815
455.69        72.63783
456.13        72.69045
456.58         72.6534
457.02        72.96957
457.46        72.56978
457.91        72.39451
458.35        72.14168
458.79        72.08632
459.24        72.14376
459.68        71.81226
460.13        71.22032
460.57        70.91615
461.01        70.98528
461.46         70.8587
461.90        70.55674
462.34        71.01907
462.79        70.35983
463.23        70.39622
463.68         70.5186
464.12        70.51501
464.56        70.35285
465.01        70.24369
465.45        70.20197
465.89        70.17761
466.34        70.15331
466.78        70.26661
467.22        70.60493
467.67        69.91376
468.11        70.43155
468.55         70.2136
468.99        69.96777
469.44        69.78551
469.88        69.71512
470.32        69.67528
470.77        69.62676
471.21        69.61143
471.65        69.59127
472.10        69.54806
472.54        69.50242
472.98        69.44175
473.42        69.34666
473.87        69.44904
474.31        69.57008
474.75        69.00791
475.20        68.02523
475.64        67.78642
476.08        68.25423
476.52        68.33634
476.97        67.97155
477.41        67.99379
477.85        68.30379
478.29        68.24876
478.74        68.59878
479.18        69.02611
479.62        69.00993
480.06         69.0309
480.50        68.77589
480.95        68.71696
481.39        68.98457
481.83        67.82354
482.27        67.73925
482.72         68.6443
483.16        68.15315
483.60        68.09886
484.04        68.17758
484.48        68.55802
484.93        67.73032
485.37        68.64047
485.81        69.46204
486.25        68.96891
486.69        71.09117
487.14        71.26245
487.58        67.84631
488.02        68.23678
488.46        69.25983
488.90        67.45206
489.34        68.05529
489.79        68.01778
490.23        68.22971
490.67         68.4872
491.11        68.51405
491.55        68.40731
491.99        68.16703
492.43        68.01621
492.88        67.98634
493.32        68.02165
493.76         68.0826
494.20        68.09139
494.64        68.00983
495.08         68.0087
495.52        68.11494
495.96        67.88766
496.41        67.49043
496.85        68.05544
497.29        69.23722
497.73         69.1301
498.17        67.90279
498.61        67.57561
499.05        68.17957
499.49        68.24067
499.93        67.73921
500.37        67.51173
500.82        67.55975
501.26        67.48392
501.70        67.30405
502.14        67.26765
502.58        67.34782
503.02        67.36124
503.46        67.29443
503.90        67.22691
504.34          67.177
504.78        67.14358
505.22        67.12429
505.66        67.13212
506.10        67.13039
506.54          67.094
506.98        67.02166
507.42        67.10542
507.86        66.51071
508.30         67.1612
508.74        66.58205
509.18        66.60448
509.62          66.594
510.06        66.64796
510.50        66.81824
510.94        67.04559
511.38        67.27125
511.82        67.30344
512.26        67.11967
512.70         66.7859
513.14          66.416
513.58        66.19328
514.02        66.16212
514.46        66.25534
514.90        66.42411
515.34        66.58352
515.78        66.69636
516.22        66.80398
516.66        66.85621
517.10        66.77017
517.54         66.5517
517.98        66.21994
518.42        65.92074
518.86        65.89352
519.30        66.17536
519.74        66.68913
520.18        67.24677
520.62        67.53499
521.06        67.47275
521.50          67.156
521.93        66.72973
522.37        66.44595
522.81        66.36976
523.25        66.42114
523.69        66.53101
524.13        66.59077
524.57         66.5687
525.01        66.52168
525.45        66.46002
525.89        66.38927
526.32        66.31649
526.76        66.23511
527.20        66.18916
527.64        66.26138
528.08        66.45678
528.52           66.75
528.96        67.04129
529.40        67.17113
529.83          67.096
530.27        66.87444
530.71        66.61364
531.15        66.49281
531.59        66.55208
532.03        66.74346
532.46        66.95493
532.90        67.00745
533.34        66.87127
533.78        66.62498
534.22        66.37917
534.66        66.29195
535.09         66.3796
535.53        66.58017
535.97        66.82251
536.41        66.94781
536.85        66.90366
537.28        66.91739
537.72        66.94405
538.16         66.5046
538.60        65.83089
539.04        65.83416
539.47        66.39305
539.91        66.63523
540.35        66.39861
540.79        66.32587
541.22        66.38561
541.66        66.37695
542.10        66.30826
542.54        66.13885
542.97        65.94273
543.41        66.09201
543.85        66.47929
544.29        66.56504
544.72        66.34097
545.16        66.25824
545.60        66.31683
546.04          66.279
546.47        66.13453
546.91        66.03549
547.35        66.00237
547.79        65.90892
548.22        65.81852
548.66        66.07957
549.10        66.57946
549.53        66.84903
549.97        66.82922
550.41        66.82765
550.84          66.836
551.28        66.63577
551.72        66.28979
552.15         66.0526
552.59        65.97508
553.03         65.8831
553.46        65.77735
553.90        65.81995
554.34         65.9678
554.77        66.08736
555.21        66.17498
555.65        66.27335
556.08        66.35635
556.52        66.45664
556.96        66.54606
557.39        66.40112
557.83        66.34522
558.27        66.27053
558.70        66.26462
559.14         66.3588
559.57        66.48048
560.01        66.39632
560.45        66.16949
560.88        66.18517
561.32        66.41315
561.75        66.47084
562.19        66.39643
562.63        66.18801
563.06         65.9491
563.50        66.29759
563.93        67.00592
564.37        66.83282
564.80        65.94981
565.24        65.85528
565.68        66.44707
566.11        66.58186
566.55        66.27796
566.98        66.10086
567.42        66.11073
567.85        66.42752
568.29        66.53284
568.72        66.53772
569.16        66.42947
569.60        66.43418
570.03         66.5003
570.47        66.72095
570.90        67.12325
571.34        66.47267
571.77        67.36472
572.21        67.11642
572.64        67.37582
573.08        66.85898
573.51        67.00906
573.95        66.89319
574.38        67.10909
574.82        66.51859
575.25        68.18336
575.69        68.16734
576.12        67.56956
576.56        66.47154
576.99        67.27515
577.42        68.30965
577.86        67.41547
578.29        67.54259
578.73        67.86417
579.16        67.96613
579.60        67.71306
580.03        67.60908
580.47         67.5984
580.90        67.56133
581.33         66.7613
581.77        67.41031
582.20        68.42932
582.64        68.35044
583.07        68.41735
583.51        67.78736
583.94        67.25101
584.37        66.88486
584.81        66.96349
585.24        67.05824
585.68        68.17693
586.11        67.41112
586.54        67.59063
586.98        66.90226
587.41        66.60201
587.85        67.32997
588.28        67.41895
588.71         67.1584
589.15        66.84795
589.58        67.11168
590.01        66.75304
590.45        66.29839
590.88        66.66969
591.31        66.96027
591.75        67.32752
592.18        67.34835
592.61        66.72518
593.05        66.61542
593.48        67.86237
593.91        67.67213
594.35        67.92633
594.78        67.33918
595.21        67.26146
595.65        67.08563
596.08        67.03667
596.51        67.15714
596.94        67.14526
597.38        67.01764
597.81        66.64346
598.24        67.16605
598.68        67.12451
599.11         66.2004
599.54        67.70157
599.97        66.89334
600.41        66.94588
600.84        66.79977
601.27         67.1036
601.70        66.82359
602.14        67.09917
602.57        67.09505
603.00        67.05921
603.43        67.23953
603.87        66.88943
604.30         67.0489
604.73        67.05915
605.16        67.26428
605.60        66.24535
606.03         66.4042
606.46         67.3004
606.89         66.5172
607.32        66.90128
607.76        66.45584
608.19        66.78596
608.62        66.91197
609.05         66.9553
609.48        66.89713
609.92        66.94991
610.35        66.31847
610.78        67.48347
611.21        67.90076
611.64        67.51813
612.07        67.41228
612.50        67.48074
612.94        67.30044
613.37        66.82885
613.80         67.4354
614.23        67.09333
614.66        66.85963
615.09        66.96547
615.52        66.94848
615.96        66.96494
616.39        67.26708
616.82        66.95653
617.25        66.94052
617.68        66.99274
618.11         66.7713
618.54        66.40458
618.97         66.3333
619.40        66.60246
619.84        66.71914
620.27        67.05309
620.70        67.24281
621.13        67.38449
621.56        66.99806
621.99        66.18616
622.42        66.34116
622.85        67.13786
623.28         66.3773
623.71        66.07001
624.14        66.56309
624.57        65.76797
625.00        66.00954
625.43        66.18823
625.86         66.4221
626.29        66.44079
626.72        67.11271
627.15        66.81795
627.58        66.80707
628.01        66.57852
628.44        66.44813
628.87        66.59861
629.30        65.70419
629.73        66.35232
630.16         66.6003
630.59        66.22194
631.02         66.1601
631.45        66.18645
631.88        66.24817
632.31        66.30695
632.74        66.53545
633.17        66.63197
633.60        66.66581
634.03        66.54804
634.46        66.32314
634.89        66.06207
635.32        65.88745
635.75        65.83511
636.18        65.86211
636.61        65.93429
637.04        65.99988
637.47        66.03979
637.89        66.05975
638.32        66.01987
638.75        65.95989
639.18        65.89925
639.61         65.5683
640.04        65.50352
640.47         65.3818
640.90        65.36987
641.33        65.43758
641.76        65.56834
642.18        65.72814
642.61        65.86758
643.04        66.00399
643.47         66.1202
643.90        66.17321
644.33        66.18338
644.76        66.13976
645.18        66.07855
645.61        65.96191
646.04        65.79523
646.47         65.7406
646.90        65.86313
647.33        65.47881
647.75         65.8345
648.18        65.91317
648.61        66.06499
649.04        66.23168
649.47        66.41035
649.89        66.57847
650.32        66.66169
650.75        66.72574
651.18        66.73029
651.61        66.42598
652.03        65.98317
652.46        65.95229
652.89        66.24056
653.32        66.43486
653.74        66.66563
654.17        66.28219
654.60        65.59707
655.03        66.84268
655.46         66.0639
655.88        65.38663
656.31        68.72857
656.74        74.60442
657.16        71.16627
657.59        66.91523
658.02        66.73864
658.45        67.33585
658.87        67.42315
659.30        66.56859
659.73        66.11941
660.15         66.4976
660.58        65.96117
661.01        66.09388
661.44        66.12177
661.86        66.02535
662.29        65.78647
662.72        65.74986
663.14        65.92336
663.57         65.8035
664.00        65.49432
664.42        65.55602
664.85        65.94814
665.27        66.10635
665.70        65.99107
666.13         65.9661
666.55        66.03339
666.98        65.96091
667.41         65.8043
667.83        65.75205
668.26        65.81867
668.69        65.97142
669.11         66.1226
669.54        66.10679
669.96        65.89852
670.39        65.60927
670.82        65.38776
671.24        65.30153
671.67        65.43941
672.09        66.06901
672.52        66.98125
672.94        67.14177
673.37        67.22835
673.80        66.78986
674.22        66.27534
674.65        66.00026
675.07        66.06923
675.50        66.33327
675.92        66.66355
676.35        66.84473
676.77        66.82256
677.20        66.67466
677.62        66.48409
678.05         66.3783
678.47        66.39137
678.90        66.48126
679.32        66.60811
679.75        66.74773
680.17         66.9145
680.60        67.00916
681.02        67.01665
681.45        67.25056
681.87        67.06194
682.30        67.04893
682.72        67.03021
683.15        66.83361
683.57        66.57084
684.00        66.68992
684.42        67.09438
684.85        67.23441
685.27        67.06268
685.70        66.80167
686.12        66.53927
686.54        66.53329
686.97        66.72415
687.39        66.67227
687.82        66.34629
688.24        66.20751
688.66        66.29246
689.09         65.9146
689.51        65.90857
689.94        65.92181
690.36        66.22355
690.78        66.58025
691.21        66.80802
691.63        67.50964
692.06        66.94651
692.48        67.08972
692.90        67.39327
693.33        67.47166
693.75        67.32702
694.17        67.11743
694.60        66.91151
695.02        67.22623
695.44        67.11811
695.87        67.41834
696.29        67.72937
696.71        67.67913
697.14        67.30016
697.56        67.00095
697.98        66.88706
698.41        66.80763
698.83        66.76317
699.25        66.91588
699.68        67.15728
700.10        67.29557
700.52        67.26328
700.94        67.12354
701.37        66.94882
701.79        66.88088
702.21        66.93902
702.64        67.07631
703.06        67.22048
703.48        67.26472
703.90        67.19135
704.33        67.04803
704.75        66.89417
705.17        66.80695
705.59        66.81062
706.01        66.86767
706.44        66.97977
706.86        67.15556
707.28        67.35536
707.70        67.64352
708.12        67.93485
708.55        67.92689
708.97        67.67142
709.39        67.58064
709.81        67.68058
710.23        67.68958
710.66         67.6138
711.08        67.66144
711.50        67.80312
711.92        67.90745
712.34        67.95768
712.76        67.98889
713.19        67.98448
713.61        67.97721
714.03        67.94756
714.45        67.88601
714.87        67.80823
715.29        67.74244
715.71        67.69112
716.13        67.64971
716.56        67.58481
716.98        67.50932
717.40        67.40559
717.82         67.2929
718.24        67.19606
718.66        67.15424
719.08        67.17265
719.50        67.22493
719.92        67.31281
720.34        67.43849
720.76        67.59538
721.19         67.7769
721.61        67.92706
722.03        67.95254
722.45        67.87149
722.87         67.5532
723.29        67.12339
723.71        67.24123
724.13        67.95451
724.55        67.60268
724.97         68.1891
725.39        68.19295
725.81        68.20914
726.23        68.03565
726.65         67.7858
727.07        67.69437
727.49        67.78586
727.91         68.0071
728.33        68.28699
728.75        68.50806
729.17        68.62794
729.59        68.68612
730.01        68.71239
730.43        68.75022
730.85        68.81213
731.27        68.87012
731.69        68.91692
732.10        68.95514
732.52        68.98109
732.94        68.99783
733.36         68.9817
733.78        68.91317
734.20        68.80596
734.62        68.58748
735.04        68.48846
735.46        68.44263
735.88        68.50742
736.30        68.64736
736.72        68.83826
737.13        68.98508
737.55        69.00261
737.97        69.12367
738.39        69.29375
738.81        68.94717
739.23         68.3019
739.65        68.49382
740.06        69.31322
740.48        69.51803
740.90        69.02888
741.32        68.54076
741.74        68.23882
742.16        68.11532
742.57        68.24599
742.99        68.60432
743.41        69.07384
743.83        69.45166
744.25        69.66815
744.67        69.75436
745.08        69.77574
745.50        69.80161
745.92        69.87293
746.34        69.95251
746.75        69.98077
747.17        69.89311
747.59        69.67841
748.01        69.35986
748.42        69.03809
748.84        68.87045
749.26        68.85192
749.68        68.95793
750.09        69.13316
750.51         69.0483
750.93        68.86083
751.35        69.37463
751.76        70.39678
752.18        70.76141
752.60        70.37012
753.01        69.85064
753.43        69.41801
753.85        69.15386
754.27        69.12081
754.68        69.44273
755.10        69.67992
755.52        69.94138
755.93        70.10558
756.35        70.28693
756.77        70.37537
757.18        70.37915
757.60        70.35118
758.02        69.72471
758.43        68.89962
758.85        69.81807
759.26        71.83626
759.68        72.27319
760.10        70.96834
760.51         70.2055
760.93        70.38436
761.34        69.81313
761.76        70.86001
762.18        70.66457
762.59        70.06755
763.01        70.08567
763.42        70.75034
763.84        70.95334
764.26        70.66167
764.67        70.38592
765.09        70.24769
765.50         70.3303
765.92        70.57198
766.33        70.34228
766.75        69.65699
767.16        69.78844
767.58        70.05202
768.00        70.38786
768.41         70.5709
768.83        71.19285
769.24        71.97922
769.66        71.85018
770.07        70.96098
770.49        70.40879
770.90        70.31445
771.32        70.34158
771.73        70.45626
772.15        70.58945
772.56         70.7406
772.97        71.01508
773.39        71.33874
773.80        71.57585
774.22        71.65118
774.63        71.64316
775.05        71.56209
775.46        71.48704
775.88        71.42715
776.29         71.3824
776.70        71.35694
777.12        71.36836
777.53        71.43404
777.95        71.53091
778.36        71.62975
778.77        71.64008
779.19        71.56115
779.60         71.4363
780.02        71.30636
780.43        71.28338
780.84        71.40324
781.26        71.47259
781.67        71.55428
782.09        71.98803
782.50        72.60764
782.91        72.72088
783.33        72.33193
783.74         72.1345
784.15        72.13916
784.57        71.95498
784.98        71.64278
785.39        71.48653
785.81        71.52064
786.22         71.6849
786.63        71.88633
787.04        71.96339
787.46        71.90395
787.87         71.7306
788.28        71.58514
788.70        71.66353
789.11        71.97453
789.52        72.46202
789.93        72.97511
790.35        73.25333
790.76        73.25891
791.17        73.07105
791.58        72.81302
792.00        72.66882
792.41        72.72376
792.82        72.88041
793.23        73.08041
793.65        73.36307
794.06        73.72182
794.47        73.86346
794.88        73.63984
795.29        74.09357
795.71        73.32154
796.12         72.7953
796.53        72.16348
796.94        72.00157
797.35        72.35091
797.76        72.85115
798.18         73.2916
798.59        73.58171
799.00        73.60668
799.41        73.30418
799.82        72.86675
800.23        72.69108
800.64         72.8595
801.06        73.21156
801.47        73.65603
801.88        73.91182
802.29        73.88628
802.70        73.66592
803.11        73.35938
803.52        73.12661
803.93        73.02733
804.34        73.02449
804.75        73.06238
805.17        73.04075
805.58        72.95855
805.99        72.84009
806.40        72.76559
806.81        72.80872
807.22        72.99385
807.63         73.3832
808.04        73.82702
808.45         73.9383
808.86        73.64072
809.27        73.08586
809.68         72.4996
810.09        72.24026
810.50        72.41267
810.91        72.91581
811.32        73.52882
811.73        73.87744
812.14        73.85157
812.55         73.5624
812.96        73.16828
813.37        72.94877
813.78        72.99928
814.19        73.22137
814.60         73.5197
815.01        73.76752
815.42        73.92257
815.83         74.0261
816.24        74.10258
816.65        74.18111
817.05        74.27241
817.46        74.32206
817.87        74.32835
818.28        74.24486
818.69         74.0721
819.10        73.83075
819.51        73.60117
819.92         73.5249
820.33        73.63152
820.74        73.86416
821.14        74.12013
821.55        74.26161
821.96        74.24076
822.37        74.11729
822.78        73.91922
823.19        73.70023
823.60        73.50712
824.00        73.34404
824.41        73.25677
824.82        73.40563
825.23        73.79784
825.64        74.37839
826.04        75.02457
826.45        75.41476
826.86        75.49563
827.27        75.35257
827.68        75.05657
828.08        74.76379
828.49        74.50455
828.90         74.2564
829.31        74.12472
829.72        74.27956
830.12        74.76276
830.53        75.47758
830.94        76.20505
831.35        76.49714
831.75        76.25037
832.16        75.52755
832.57        74.63031
832.97        74.02954
833.38        73.85861
833.79        73.98409
834.20        74.22154
834.60        74.26308
835.01        74.05537
835.42        73.73306
835.82        73.41468
836.23        73.22935
836.64        73.24318
837.04        73.40098
837.45        73.66473
837.86        74.11263
838.26         74.7215
838.67        75.41725
839.08        76.00064
839.48        76.13047
839.89        75.75468
840.29        74.96054
840.70         74.0639
841.11        73.49117
841.51        73.38084
841.92         73.6422
842.33        74.06709
842.73        74.28942
843.14        74.15993
843.54        73.80308
843.95        73.49177
844.35        73.69702
844.76        74.45304
845.17        75.61227
845.57        76.79273
845.98        77.19427
846.38        76.68505
846.79        75.53671
847.19        74.19084
847.60         73.3457
848.00        73.17963
848.41        73.45665
848.81        74.05805
849.22        74.67188
849.62        75.20692
850.03        75.69021
850.43        76.03675
850.84        75.96429
851.24        75.49079
851.65        74.64468
852.05        73.68954
852.46        73.08048
852.86        72.91142
853.27        73.09371
853.67        73.41113
854.07        73.74651
854.48        73.98238
854.88        74.24303
855.29        74.33455
855.69         74.1512
856.10        73.58965
856.50        72.77235
856.90        71.95287
857.31        71.54686
857.71        71.67406
858.12        72.18844
858.52        72.94902
858.92        73.47175
859.33        73.57663
859.73        73.42551
860.13        73.13869
860.54        72.95093
860.94        72.96803
861.34        73.07332
861.75         73.1805
862.15        73.26114
862.55        73.24599
862.96        73.19025
863.36        73.07702
863.76         72.8739
864.17        72.58515
864.57        72.24911
864.97        71.92085
865.38        71.67482
865.78        71.57043
866.18        71.56091
866.58        71.62862
866.99        71.73658
867.39        71.87344
867.79        72.01284
868.19        72.10028
868.60        72.03339
869.00        71.81268
869.40        71.48674
869.80        71.12153
870.21        70.84724
870.61        70.75244
871.01        70.78152
871.41         70.9473
871.81        71.26371
872.22        71.68932
872.62        72.26595
873.02        72.89404
873.42        73.36776
873.82        73.60825
874.22        73.64769
874.63        73.61169
875.03        73.67796
875.43        73.89193
875.83        74.16132
876.23        74.41434
876.63        74.51826
877.03        74.45405
877.44        74.35307
877.84        74.14265
878.24        73.72404
878.64        73.12604
879.04        72.33651
879.44        71.72702
879.84        71.84408
880.24        72.71638
880.64        74.20322
881.04        75.61172
881.44        75.70615
881.84        74.25665
882.24         71.7487
882.65        69.17268
883.05        67.82359
883.45        68.02316
883.85        69.40641
884.25        71.35686
884.65         72.7267
885.05         73.0948
885.45        72.77432
885.85        72.20667
886.25        72.07505
886.65         72.5351
887.05         73.2968
887.45        74.01939
887.85        74.19157
888.25        73.69907
888.65        72.80467
889.04        71.78377
889.44        71.05116
889.84        70.73244
890.24        70.72006
890.64        70.97926
891.04        71.45092
891.44        72.06022
891.84        72.79731
892.24        73.55095
892.64        74.14278
893.04        74.53078
893.44        74.74587
893.83        74.83839
894.23         74.8394
894.63        74.80348
895.03        74.66789
895.43        74.53571
895.83        74.56381
896.23        74.76926
896.63        75.16322
897.02        75.45988
897.42        75.18382
897.82         74.3008
898.22        72.97433
898.62        71.72262
899.01        71.27496
899.41        71.76732
899.81        73.00985
900.21        74.44281
900.61        75.00028
901.00        74.38374
901.40        73.01861
901.80         71.5956
902.20        71.06488
902.59        71.63942
902.99        72.99385
903.39        74.67889
903.79        75.71909
904.18        75.73698
904.58        75.07908
904.98        74.20585
905.38        73.74549
905.77        73.83752
906.17        74.28599
906.57        74.86949
906.96        75.28667
907.36        75.37888
907.76        75.27578
908.15        75.10851
908.55        74.99018
908.95        74.99554
909.34        75.05183
909.74        75.08423
910.14        74.94844
910.53        74.63338
910.93        74.24118
911.33        73.89461
911.72        73.79733
912.12        73.98656
912.52        74.36693
912.91          74.868
913.31        75.35199
913.70        75.77713
914.10         76.1239
914.49        76.33164
914.89        76.21786
915.29        75.80763
915.68        75.17502
916.08        74.52519
916.47        74.13421
916.87        74.10061
917.26        74.28177
917.66        74.63358
918.05        75.06364
918.45        75.48225
918.84        75.98609
919.24        76.29475
919.64        76.06239
920.03        75.25929
920.42         73.9884
920.82        72.78075
921.21        72.24176
921.61        72.47569
922.00        73.37502
922.40        74.44911
922.79        74.91302
923.19        74.50711
923.58         73.5135
923.98         72.4833
924.37        72.18501
924.77        72.78848
925.16        74.06679
925.55        75.57841
925.95        76.50895
926.34        76.61704
926.74        76.11233
927.13        75.32728
927.52        74.76913
927.92        74.58284
928.31        74.59178
928.70        74.65432
929.10        74.53197
929.49        74.19423
929.89        73.79249
930.28        73.43622
930.67        73.22292
931.07         73.1891
931.46        73.28893
931.85        73.59921
932.24        74.28165
932.64        75.28553
933.03        76.60581
933.42        77.87167
933.82        78.49232
934.21        78.35831
934.60        77.60734
934.99         76.6751
935.39        76.21786
935.78        76.38207
936.17        76.96285
936.56        77.65324
936.96        77.93184
937.35        77.69108
937.74         77.1095
938.13        76.31369
938.53        75.47765
938.92        74.71638
939.31        74.07721
939.70        73.69947
940.09        73.81792
940.49        74.38022
940.88        75.25659
941.27        76.36228
941.66        77.53751
942.05        78.59717
942.44        79.57809
942.84        79.90588
943.23        78.68727
943.62        76.05067
944.01        72.56396
944.40        69.43288
944.79        68.16937
945.18        68.97171
945.57        71.43793
945.97        74.72084
946.36        77.29842
946.75         78.3024
947.14         78.1209
947.53        77.24537
947.92        76.55352
948.31        76.34262
948.70        76.23507
949.09        76.20341
949.48        76.27547
949.87        76.41139
950.26        76.74895
950.65        77.01441
951.04        76.67811
951.43        75.69928
951.82        74.24426
952.21        72.84065
952.60        72.30264
952.99        72.77236
953.38        73.99812
953.77        75.43284
954.16        76.12878
954.55        75.80052
954.94        74.71843
955.33        73.34954
955.72        72.46535
956.11        72.31133
956.50        72.67422
956.89        73.25713
957.28        73.57853
957.66        73.50518
958.05        73.18671
958.44        72.87263
958.83        72.93061
959.22        73.42737
959.61          74.189
960.00        74.93724
960.39        75.21703
960.78        74.90644
961.16        74.19246
961.55        73.28846
961.94        72.50639
962.33        71.97833
962.72        71.61518
963.11        71.49791
963.49        71.77116
963.88        72.37482
964.27        73.30742
964.66        74.28019
965.04         74.8203
965.43         74.7444
965.82        74.16567
966.21        73.42152
966.60        73.10381
966.98        73.38454
967.37         74.0937
967.76        74.88361
968.15        75.15347
968.53        74.78098
968.92        73.91322
969.31        72.98523
969.69        72.69913
970.08        73.18834
970.47        74.22646
970.86        75.37469
971.24        75.93751
971.63        75.73787
972.02        75.06671
972.40        74.25809
972.79        73.82497
973.17        74.02655
973.56        74.58953
973.95        75.51981
974.33        76.87395
974.72        78.50182
975.11        80.45181
975.49        82.39357
975.88        83.42203
976.26        83.26268
976.65        82.04917
977.04        80.26647
977.42        78.58424
977.81        77.25705
978.19        76.11779
978.58        75.15521
978.96        74.13001
979.35        73.02953
979.74        71.92886
980.12         71.0263
980.51        70.48537
980.89         70.4439
981.28        70.86829
981.66        71.51343
982.05        71.86899
982.43        71.83884
982.82         71.4713
983.20        71.31729
983.59        72.27048
983.97        74.54892
984.35        77.89602
984.74        81.20134
985.12        82.69167
985.51        81.65816
985.89        78.79696
986.28        75.41441
986.66        72.99352
987.04         71.9946
987.43         71.8883
987.81        72.38823
988.20         72.7721
988.58        72.84779
988.96         72.9575
989.35        72.93043
989.73        72.56102
990.12        71.83798
990.50        70.67967
990.88        69.73574
991.27        70.03886
991.65        71.78621
992.03        74.91815
992.42        78.19908
992.80        79.36957
993.18        77.53697
993.56        73.69336
993.95         69.9175
994.33        68.32836
994.71        69.38634
995.10        72.39141
995.48        76.42529
995.86        78.82409
996.24        78.43903
996.63        76.26389
997.01        73.47841
997.39        71.62273
997.77        71.12891
998.15        71.40722
998.54        72.40814
998.92        74.15179
999.30        76.43984
999.68        79.38445
1000.06        82.12993
1000.45        83.00246
1000.83        81.81695
1001.21        78.99835
1001.59        75.82488
1001.97        74.10159
1002.35        74.18658
1002.73        75.59736
1003.12        77.71344
1003.50        79.44811
1003.88        80.26225
1004.26        80.55743
1004.64        80.45047
1005.02        80.14225
1005.40        79.70809
1005.78        78.82967
1006.16        77.85654
1006.54         77.4615
1006.92         77.7469
1007.30        78.71999
1007.69        79.38196
1008.07        77.98281
1008.45        74.49678
1008.83        70.00658
1009.21        66.19549
1009.59        64.76569
1009.97        65.85045
1010.35        69.10669
1010.73        73.66884
1011.11        77.21132
1011.49        78.48017
1011.86        77.74692
1012.24        76.48499
1012.62        77.18613
1013.00        80.63814
1013.38          86.472
1013.76        92.88047
1014.14        95.06145
1014.52        91.72949
1014.90        85.72659
1015.28        80.17387
1015.66        77.65424
1016.04        78.27167
1016.41        81.38283
1016.79        86.37217
1017.17        92.10634
1017.55        97.09503
1017.93        101.4417
1018.31        103.1297
1018.69        99.39388
1019.06        91.12133
1019.44        81.19942
1019.82        72.75613
1020.20        68.02486
1020.58        66.63635
1020.95        67.95983
1021.33        71.14118
1021.71        74.00787
1022.09        75.30997
1022.46        75.11838
1022.84        75.02948
1023.22        77.34752
1023.60        82.88145
1023.97        92.15723
1024.35        102.1472
1024.73        103.4741
