SpectraSmart Spectrum 2.9.0.0
--------- Device Information -----------
Spectrum Name :  反射率_0
Saving Time :  2024/05/03 19:58:12
Spectro-Module Model Name : SE2030-DUVN
Spectro-Module Serial Number : OS361AC55029948
Wavelength Start : 200
Wavelength End : 1025
Wavelength Unit : Wavelength(nm)
Spectrum Unit : Reflectance(%)
-----------Spectrum Setting ------------
Integration Time : 20ms
Average : 10
Boxcar : 0
Background removal :  enabled
linearity correction :  enabled
SC :  disabled
Intensity correction :  disabled
DWT denoise :  enabled
savitzky-golay :  disabled
FFT :  disabled
Running average :  disabled
Kalman :  disabled
High pass :  disabled
---------------BEGIN--------------------
Wavelength(nm)             Reflectance(%)
200.29               0
200.75        9.231433
201.21       -2.618871
201.67        865.5735
202.13        49.37996
202.58        33.22478
203.04         25.8073
203.50        22.49312
203.96        24.90649
204.42        36.38553
204.88        81.57833
205.34       -1562.084
205.80       -151.5607
206.26       -169.9889
206.72       -38863.14
207.18        130.5843
207.64        79.10166
208.10         73.6863
208.55        99.85017
209.01        401.6985
209.47        555.3319
209.93        116.9119
210.39        72.81165
210.85        60.82338
211.31        56.68167
211.77        54.88767
212.23        53.62964
212.69         48.0285
213.14        26.53429
213.60        15.03774
214.06        18.61967
214.52        22.45368
214.98        24.58743
215.44        26.72893
215.90        33.58353
216.36         -95.374
216.81       -23.94088
217.27       -53.29713
217.73       -148.8433
218.19       -689.3564
218.65       -15000.56
219.11       -1057.835
219.57       -246.8308
220.02       -105.4643
220.48       -120.7326
220.94         117.479
221.40        39.21415
221.86        29.60481
222.32        26.98144
222.77        26.15543
223.23        27.04565
223.69        30.16203
224.15        34.46651
224.61        37.25561
225.06        38.00144
225.52        38.64082
225.98        40.83851
226.44        45.02406
226.90          50.961
227.36        57.99097
227.81        62.48112
228.27        61.72763
228.73        57.83884
229.19        52.60706
229.65        47.23531
230.10        42.23864
230.56        37.99737
231.02        34.84931
231.48        33.32822
231.93        33.16506
232.39        33.94756
232.85        35.13912
233.31        36.05903
233.77        36.53294
234.22        36.73174
234.68        36.84109
235.14        37.14031
235.60        37.76583
236.05        38.72253
236.51        39.84149
236.97        40.90379
237.43        41.71338
237.88        42.35383
238.34        43.18338
238.80         44.7491
239.26        47.56142
239.71        54.43341
240.17        63.59711
240.63        73.91982
241.08        77.29173
241.54        70.34002
242.00         60.6498
242.46        57.60421
242.91        63.45314
243.37        80.52299
243.83        112.5113
244.28        142.6438
244.74         134.446
245.20        92.07697
245.66        49.53957
246.11        33.80145
246.57        41.03383
247.03        58.79871
247.48        75.60559
247.94        81.21877
248.40        75.38393
248.85        62.25158
249.31        46.32254
249.77        38.04783
250.22         40.4245
250.68        47.68551
251.14        55.44831
251.59        61.44928
252.05        66.31979
252.51        71.88283
252.96        78.80467
253.42        84.78249
253.88        86.61567
254.33        83.81972
254.79        79.04688
255.25        74.33437
255.70        70.44064
256.16        67.96303
256.62        66.46521
257.07        65.67879
257.53        65.62965
257.99        65.64864
258.44        65.13745
258.90        64.06215
259.35        62.19659
259.81        60.35277
260.27        58.54564
260.72        56.84017
261.18        55.61432
261.63        54.52264
262.09        53.79239
262.55        53.28587
263.00        52.82603
263.46        52.43047
263.91        51.91376
264.37        51.32492
264.83        50.59973
265.28        49.75488
265.74        48.78019
266.19        47.40287
266.65        45.76642
267.11        43.91703
267.56        42.15233
268.02        40.96645
268.47        40.36385
268.93        40.22554
269.38        40.18881
269.84         39.6513
270.30        38.52094
270.75        37.00651
271.21          35.565
271.66        34.74014
272.12        34.62176
272.57        34.97047
273.03        35.40584
273.48        35.35435
273.94        34.68754
274.39         33.6027
274.85         32.4064
275.31        31.43771
275.76        30.76637
276.22        30.31264
276.67        29.93302
277.13        29.55384
277.58        29.07947
278.04        28.57651
278.49        28.01591
278.95        27.43084
279.40        26.82888
279.86        26.27571
280.31         25.7457
280.77        25.31374
281.22        24.92208
281.68        24.59794
282.13        24.30409
282.59        24.05249
283.04        23.82508
283.50         23.6363
283.95         23.4724
284.41        23.33856
284.86        23.22308
285.32        23.15705
285.77        23.11509
286.22        23.11532
286.68        23.16403
287.13         23.2167
287.59        23.31187
288.04        23.46428
288.50        23.68015
288.95        23.92025
289.41        24.12268
289.86        24.14422
290.32        23.99983
290.77         23.7443
291.22         23.5045
291.68        23.44859
292.13        23.61954
292.59        24.00941
293.04        24.57754
293.50        25.25632
293.95        26.00526
294.40        26.84445
294.86        27.80386
295.31        28.93557
295.77        30.25645
296.22        31.72966
296.68        33.28978
297.13        34.81418
297.58        36.23163
298.04         37.5807
298.49        38.86308
298.95         40.1572
299.40        41.48735
299.85        42.85497
300.31        44.34107
300.76        46.02555
301.21         47.9253
301.67        50.02809
302.12        52.17374
302.58        54.13745
303.03        55.83078
303.48        57.31516
303.94        58.79436
304.39        60.50219
304.84        62.52839
305.30        64.78754
305.75        67.06357
306.20        69.06263
306.66        70.72284
307.11        72.09134
307.57        73.35342
308.02         74.6577
308.47        76.09857
308.93        77.62551
309.38        79.14436
309.83        80.60799
310.29        81.99236
310.74        83.29628
311.19        84.52494
311.65        85.66344
312.10        86.67298
312.55        87.53682
313.00        88.24239
313.46        88.79485
313.91        89.19447
314.36        89.51442
314.82        89.80434
315.27        90.10307
315.72        90.45811
316.18        90.86839
316.63        91.39787
317.08         92.1598
317.53        93.14558
317.99        94.28566
318.44         95.4241
318.89        96.24364
319.35        96.65629
319.80        96.74544
320.25        96.65863
320.70        96.66802
321.16        96.84563
321.61        97.13879
322.06        97.48109
322.51        97.76241
322.97        97.93872
323.42        98.09252
323.87        98.22003
324.32         98.3162
324.78        98.38307
325.23        98.44864
325.68        98.55669
326.13        98.80521
326.59        99.18411
327.04        99.71426
327.49        100.3031
327.94        100.8305
328.39        101.2476
328.85        101.5355
329.30        101.7836
329.75        102.0106
330.20        102.2363
330.66        102.4255
331.11        102.6158
331.56         102.753
332.01        102.8509
332.46        102.9454
332.92        103.0708
333.37        103.3956
333.82        103.9112
334.27        104.5824
334.72        105.3427
335.17        106.0781
335.63        106.7024
336.08        107.2756
336.53        107.7606
336.98        108.1632
337.43        108.4951
337.88        108.7607
338.34        108.9678
338.79        109.1635
339.24        109.3663
339.69        109.5935
340.14        109.8909
340.59        110.3181
341.05        110.8736
341.50        111.5415
341.95        112.2496
342.40         112.894
342.85        113.4381
343.30        113.8994
343.75        114.2908
344.20        114.6439
344.66        114.9938
345.11        115.3141
345.56        115.6317
346.01        115.9823
346.46        116.3765
346.91        116.8057
347.36        117.2623
347.81        117.7286
348.26        118.1882
348.72        118.6419
349.17        119.0408
349.62        119.3377
350.07        119.5233
350.52        119.6092
350.97        119.6321
351.42        119.6613
351.87        119.7056
352.32        119.7282
352.77        119.7122
353.22         119.629
353.67        119.4757
354.13        119.3164
354.58         119.072
355.03          118.69
355.48        118.1944
355.93        117.6249
356.38        117.1372
356.83        116.9757
357.28        117.1611
357.73        117.5792
358.18        118.0322
358.63        118.1995
359.08        117.9807
359.53        117.4692
359.98        116.7282
360.43        115.8748
360.88        114.9725
361.33        113.9855
361.78        113.0169
362.23        112.2186
362.68        111.6145
363.13        111.2013
363.58        110.8011
364.03        110.1165
364.48        109.1016
364.93        107.8417
365.38        106.6044
365.83        105.8011
366.28         105.503
366.73        105.5785
367.18        105.7088
367.63        105.3832
368.08        104.4851
368.53        103.1774
368.98        101.7888
369.43          100.81
369.88        100.3544
370.33        100.2807
370.78        100.3061
371.23        99.96558
371.68        99.14272
372.13        97.99158
372.58        96.81207
373.03        96.04543
373.48         95.7733
373.93         95.8367
374.38        95.93508
374.83        95.59167
375.28        94.69596
375.72        93.39737
376.17        92.04834
376.62        91.00999
377.07        90.36868
377.52        90.00486
377.97         89.7515
378.42        89.35582
378.87        88.76053
379.32         88.0634
379.77        87.40182
380.22        86.94862
380.67        86.72168
381.11        86.66595
381.56        86.60052
382.01        86.31267
382.46         85.7619
382.91        85.03432
383.36        84.29903
383.81        83.79227
384.26         83.5536
384.71        83.50438
385.15        83.49139
385.60        83.30309
386.05        82.87598
386.50        82.28066
386.95        81.64387
387.40        81.15173
387.85        80.85047
388.29        80.65044
388.74        80.51193
389.19        80.19986
389.64        79.67746
390.09        79.00829
390.54        78.36458
390.98        77.94208
391.43        77.81537
391.88        78.03353
392.33        78.37416
392.78        78.11746
393.23        77.41917
393.67        77.22076
394.12        77.49552
394.57        77.28378
395.02        76.62549
395.47        76.20905
395.91        76.09976
396.36        75.93715
396.81        75.76173
397.26        75.77963
397.71        75.83199
398.15        75.68282
398.60        75.41373
399.05        74.71272
399.50        73.88714
399.95        74.11877
400.39        75.13491
400.84         74.9744
401.29        73.74904
401.74        73.23988
402.18        73.51993
402.63         73.5666
403.08        73.40683
403.53        72.98341
403.97        73.31916
404.42        73.38548
404.87        73.45643
405.32        73.42371
405.76        73.24899
406.21        73.16493
406.66        73.09887
407.11        72.55425
407.55        71.75815
408.00         71.6423
408.45        72.13099
408.90        72.27647
409.34        71.92615
409.79        71.39648
410.24         70.8683
410.68        70.58789
411.13        70.60942
411.58        70.77113
412.03        70.92673
412.47        70.92694
412.92        70.69675
413.37        70.28434
413.81        69.86552
414.26        69.78273
414.71        70.04877
415.15        70.61401
415.60        71.18013
416.05        71.31326
416.49        70.91006
416.94        70.14246
417.39         69.3505
417.83        69.02052
418.28        69.25911
418.73        69.89327
419.17        70.68385
419.62        71.16737
420.07        71.19839
420.51        70.90001
420.96        70.44123
421.41        69.96747
421.85        69.53109
422.30        69.24228
422.74        69.03384
423.19        68.78645
423.64        68.53738
424.08        68.66077
424.53        69.10525
424.98        69.47147
425.42        69.69711
425.87        70.11478
426.31        70.63507
426.76        70.54038
427.21        70.02277
427.65        70.20641
428.10        70.92567
428.54        71.07828
428.99        70.69318
429.44        70.20788
429.88         69.7931
430.33          69.966
430.77        70.45064
431.22        70.37598
431.66        69.80008
432.11        69.57116
432.56         69.6951
433.00        70.04762
433.45         70.4161
433.89        70.66434
434.34         67.7999
434.78        70.49179
435.23        70.32319
435.67        69.55418
436.12        68.27104
436.57        68.35329
437.01        70.14981
437.46        70.88866
437.90        70.47989
438.35        70.38255
438.79        70.62399
439.24        70.55566
439.68        70.18683
440.13        70.01078
440.57        70.05906
441.02        69.73736
441.46        69.18184
441.91        69.72071
442.35        70.86752
442.80        70.63696
443.24        69.34714
443.69        69.52233
444.13        70.95155
444.58        71.39145
445.02        70.74687
445.47        70.23706
445.91        70.04923
446.36        70.01116
446.80        70.14966
447.24        70.51385
447.69        70.93739
448.13        71.15285
448.58        71.10874
449.02        70.85045
449.47        70.52785
449.91        70.35479
450.36        70.37405
450.80        70.51065
451.25        70.68034
451.69        70.73382
452.13        70.64167
452.58        70.46413
453.02        70.24883
453.47         70.0956
453.91        70.02367
454.36        70.00159
454.80        69.98112
455.24        69.97932
455.69        70.01275
456.13        69.92517
456.58         69.7207
457.02        70.02931
457.46        69.81264
457.91        69.75542
458.35         69.5376
458.79        69.55593
459.24        69.71685
459.68        69.43372
460.13        68.84678
460.57        68.55058
461.01         68.6351
461.46        68.39922
461.90        68.35391
462.34        68.38411
462.79        67.83105
463.23        67.69106
463.68        67.71642
464.12        67.64629
464.56        67.45779
465.01        67.44948
465.45        67.52457
465.89        67.42035
466.34        67.22971
466.78        67.29648
467.22        67.60867
467.67        67.75421
468.11         67.7171
468.55        67.61385
468.99        67.49297
469.44         67.3916
469.88        67.33616
470.32        67.28104
470.77         67.2244
471.21        67.20767
471.65        67.21179
472.10        67.22589
472.54        67.20832
472.98        67.11179
473.42        66.93139
473.87        66.74255
474.31        66.52232
474.75        66.22346
475.20        65.88605
475.64        65.69635
476.08        65.73038
476.52        65.65122
476.97        65.37027
477.41        66.16796
477.85        66.19364
478.29        66.15127
478.74        66.02995
479.18        66.41858
479.62        66.57758
480.06        66.63895
480.50        66.33646
480.95        66.15123
481.39        66.14602
481.83        65.46832
482.27        65.65019
482.72        65.56888
483.16        65.61461
483.60        65.62993
484.04        65.87788
484.48        65.76046
484.93        65.37312
485.37        66.17482
485.81        67.44543
486.25        66.41957
486.69        67.58316
487.14        67.84609
487.58        65.92265
488.02        65.52473
488.46        66.23392
488.90        64.88982
489.34        65.65154
489.79        65.56473
490.23         65.5538
490.67        65.82736
491.11        66.18636
491.55        66.08741
491.99         65.5787
492.43        65.34067
492.88         65.4202
493.32        65.52091
493.76        65.56589
494.20        65.53229
494.64        65.38478
495.08        65.26525
495.52        65.22951
495.96        64.98448
496.41        64.67886
496.85         65.1714
497.29        66.17645
497.73        66.23231
498.17         65.4286
498.61        65.19342
499.05        65.55614
499.49        65.56056
499.93        65.18712
500.37        64.88115
500.82        64.69785
501.26        64.60749
501.70        64.61462
502.14        64.69825
502.58        64.78748
503.02        64.86935
503.46        64.91269
503.90        64.91486
504.34         64.8764
504.78         64.8167
505.22        64.74517
505.66        64.64139
506.10        64.52142
506.54        64.48094
506.98        64.53934
507.42        64.56021
507.86        64.46371
508.30        64.76245
508.74        64.37203
509.18        64.18568
509.62        63.97431
510.06        63.91162
510.50        64.01882
510.94         64.2598
511.38        64.53282
511.82        64.64217
512.26        64.54486
512.70        64.29982
513.14        64.01146
513.58        63.84461
514.02        63.83746
514.46        63.93115
514.90        64.05328
515.34         64.0864
515.78        64.00206
516.22        63.85862
516.66        63.68986
517.10        63.54241
517.54        63.44131
517.98        63.36414
518.42        63.34974
518.86         63.4638
519.30        63.70123
519.74        64.03632
520.18        64.36475
520.62        64.51488
521.06        64.44673
521.50        64.20689
521.93        63.89493
522.37          63.692
522.81        63.64002
523.25        63.68957
523.69        63.77688
524.13        63.79617
524.57        63.72425
525.01        63.61316
525.45        63.49783
525.89        63.42723
526.32        63.41375
526.76        63.43637
527.20        63.50282
527.64        63.63686
528.08        63.82733
528.52        64.06322
528.96        64.27029
529.40        64.33199
529.83        64.21872
530.27        63.97779
530.71        63.70027
531.15         63.5392
531.59        63.53163
532.03        63.64372
532.46        63.78627
532.90        63.81347
533.34        63.70262
533.78        63.51857
534.22        63.35039
534.66        63.32615
535.09        63.45338
535.53        63.67546
535.97        63.93018
536.41        64.07656
536.85        64.06467
537.28         64.1063
537.72        64.14983
538.16        63.71638
538.60        63.02853
539.04        62.98463
539.47        63.48317
539.91        63.64714
540.35        63.43191
540.79        63.36118
541.22        63.43938
541.66        63.47727
542.10         63.4775
542.54        63.39495
542.97        63.27353
543.41         63.4314
543.85        63.76076
544.29        63.75893
544.72         63.4477
545.16        63.30515
545.60         63.3395
546.04        63.30608
546.47        63.18526
546.91        63.09202
547.35        63.03585
547.79        62.94662
548.22        62.86397
548.66         63.0017
549.10        63.29118
549.53        63.48442
549.97        63.54163
550.41        63.55331
550.84        63.49514
551.28         63.3888
551.72        63.28819
552.15        62.80637
552.59        62.84392
553.03         62.6771
553.46        62.57312
553.90        62.61731
554.34        62.77961
554.77        62.96135
555.21        63.11202
555.65        63.22359
556.08        63.26621
556.52        63.23231
556.96        63.14011
557.39        63.07478
557.83        63.07437
558.27        63.03255
558.70        62.96268
559.14        63.05377
559.57        63.23571
560.01        63.20635
560.45        63.00529
560.88        63.00557
561.32        63.19103
561.75        63.17925
562.19        63.04177
562.63         62.9232
563.06        62.87156
563.50         63.2007
563.93        63.71421
564.37        63.52333
564.80         62.7818
565.24        62.67706
565.68        63.12444
566.11        63.21873
566.55        62.96516
566.98        62.77044
567.42        62.70284
567.85        62.94759
568.29        63.03286
568.72        63.08979
569.16         63.0741
569.60        63.09742
570.03        63.11967
570.47        63.27346
570.90        63.58006
571.34        62.93131
571.77        63.99411
572.21         63.4599
572.64        63.54159
573.08        63.47055
573.51        63.69347
573.95        63.63319
574.38        63.64725
574.82        62.57602
575.25        64.33487
575.69         64.3587
576.12         64.0416
576.56        63.01634
576.99        63.12284
577.42        64.24395
577.86        63.68567
578.29        63.92646
578.73        64.09196
579.16        64.19039
579.60        64.09278
580.03        64.06247
580.47        64.05747
580.90        63.84623
581.33        63.18624
581.77        63.78079
582.20        65.06065
582.64        64.74775
583.07        64.81792
583.51        64.03206
583.94        63.55054
584.37        63.30709
584.81        63.60568
585.24        63.57835
585.68        64.21373
586.11        63.85204
586.54        64.34018
586.98         63.2378
587.41         63.0102
587.85        63.54903
588.28         63.9973
588.71         63.6797
589.15        63.26752
589.58        63.63993
590.01        63.13816
590.45        62.72189
590.88         63.0328
591.31         63.2837
591.75        63.63616
592.18        63.46751
592.61        62.99324
593.05         63.0019
593.48        63.98898
593.91        63.96993
594.35        64.22568
594.78         63.3845
595.21        63.46811
595.65        63.34018
596.08        63.33157
596.51        63.71487
596.94        63.44767
597.38        63.33574
597.81        63.02769
598.24        63.37101
598.68        63.44213
599.11        62.32378
599.54        63.97509
599.97        63.40112
600.41        63.33343
600.84        63.23538
601.27        63.60888
601.70        63.10048
602.14         63.3135
602.57        63.27003
603.00         63.4365
603.43         63.4116
603.87        63.09022
604.30        63.63622
604.73        63.55248
605.16         63.3808
605.60        62.94395
606.03        62.91002
606.46        63.32252
606.89        62.84655
607.32        63.13651
607.76        62.68528
608.19        62.97219
608.62        62.96602
609.05        62.89285
609.48        62.93627
609.92        63.29995
610.35        62.44999
610.78         63.8553
611.21        63.94416
611.64        63.80964
612.07        63.64504
612.50        63.58932
612.94        63.40122
613.37        63.07523
613.80        63.40768
614.23        63.18561
614.66        63.14194
615.09        62.97524
615.52        63.07003
615.96        63.36589
616.39        63.43604
616.82        63.26702
617.25        63.17988
617.68        63.34031
618.11        62.88278
618.54        62.09796
618.97        61.92218
619.40        62.37622
619.84        62.57282
620.27         62.8223
620.70        63.04976
621.13        63.29043
621.56        63.09189
621.99        62.58581
622.42        62.53576
622.85        62.90341
623.28         62.9085
623.71        62.48299
624.14        62.58595
624.57         62.1489
625.00        62.19905
625.43         62.2977
625.86        62.45754
626.29        62.56334
626.72        62.85385
627.15        62.81389
627.58        62.83716
628.01         62.7755
628.44        62.66113
628.87        62.52569
629.30        62.35592
629.73        62.16078
630.16        62.25975
630.59        62.09017
631.02        62.12862
631.45        62.20308
631.88        62.30546
632.31        62.41565
632.74        62.53727
633.17        62.62957
633.60        62.61311
634.03        62.47896
634.46          62.252
634.89        61.99668
635.32        61.81938
635.75        61.75148
636.18        61.76704
636.61        61.82845
637.04        61.87535
637.47         61.8905
637.89        61.87883
638.32        61.83015
638.75        61.82634
639.18        61.88903
639.61        61.74811
640.04        61.85476
640.47        61.82086
640.90        61.78688
641.33        61.74914
641.76        61.74749
642.18        61.84575
642.61         62.0228
643.04        62.26041
643.47        62.49725
643.90        62.63649
644.33        62.64569
644.76        62.55736
645.18        62.41896
645.61        62.22725
646.04        62.00513
646.47        61.90227
646.90        61.97127
647.33        61.57096
647.75        61.87417
648.18        61.88133
648.61         61.9585
649.04        62.19201
649.47        62.53117
649.89        62.76329
650.32        62.79999
650.75        62.76543
651.18        62.70311
651.61        62.50335
652.03        62.27534
652.46        62.43779
652.89        62.81554
653.32        62.67568
653.74        62.24392
654.17        61.78282
654.60        61.67505
655.03        62.43028
655.46        62.10994
655.88        61.84707
656.31        64.26176
656.74        68.96243
657.16        66.28291
657.59        63.48435
658.02        63.65594
658.45        63.73676
658.87        63.46264
659.30        62.70579
659.73        62.01652
660.15        62.43938
660.58        61.97254
661.01        62.02539
661.44        61.89179
661.86        61.76966
662.29        61.64608
662.72        61.61336
663.14        61.69108
663.57        61.60351
664.00        61.42696
664.42        61.52872
664.85        61.86259
665.27         61.9654
665.70        61.83075
666.13        61.82232
666.55        61.94863
666.98        61.98394
667.41        61.93088
667.83        61.88704
668.26        61.84912
668.69        61.81076
669.11        61.75397
669.54        61.61322
669.96        61.38643
670.39        61.19572
670.82        61.11814
671.24        61.00552
671.67        60.96972
672.09        61.54826
672.52         62.5369
672.94         62.7095
673.37         62.7079
673.80        62.30759
674.22        61.92836
674.65        61.74374
675.07        61.84334
675.50        62.14141
675.92        62.49969
676.35        62.66721
676.77        62.58994
677.20        62.35539
677.62        62.06878
678.05        61.89709
678.47        61.88329
678.90        61.96768
679.32        62.09834
679.75        62.24597
680.17        62.38585
680.60        62.46709
681.02        62.45556
681.45        62.63029
681.87        62.34998
682.30        62.28405
682.72        62.26238
683.15        62.11089
683.57        61.92191
684.00        62.08694
684.42        62.50774
684.85        62.68709
685.27        62.57463
685.70        62.35506
686.12        62.11379
686.54        62.10758
686.97        62.27554
687.39        62.23132
687.82        61.96067
688.24        61.81704
688.66         61.8121
689.09        61.71953
689.51        61.58529
689.94        61.64351
690.36        61.92476
690.78        62.23276
691.21        62.39412
691.63        62.98484
692.06        62.39606
692.48        62.46113
692.90        62.67903
693.33        62.70341
693.75        62.54383
694.17        62.34784
694.60         62.1775
695.02        62.52328
695.44        62.50819
695.87        62.85121
696.29        63.16562
696.71        63.24981
697.14        63.09502
697.56        62.72007
697.98         62.2424
698.41        62.40104
698.83        62.13919
699.25        62.33792
699.68        62.56556
700.10        62.70624
700.52          62.686
700.94        62.56778
701.37        62.43122
701.79        62.39529
702.21        62.47741
702.64        62.63165
703.06        62.78754
703.48        62.84382
703.90        62.78159
704.33        62.64347
704.75        62.48426
705.17        62.37523
705.59        62.34418
706.01          62.363
706.44        62.43246
706.86        62.57485
707.28        62.75954
707.70         62.9958
708.12        63.22747
708.55        63.31885
708.97          63.266
709.39        63.18993
709.81        63.12938
710.23         63.0825
710.66         63.0722
711.08        63.13938
711.50        63.24696
711.92        63.32932
712.34        63.37159
712.76        63.39357
713.19        63.38534
713.61         63.3867
714.03        63.37792
714.45        63.34359
714.87        63.29334
715.29        63.24428
715.71        63.19615
716.13        63.15223
716.56        63.06917
716.98        62.93926
717.40        62.74831
717.82         62.5211
718.24        62.32388
718.66        62.25978
719.08        62.34552
719.50        62.53944
719.92        62.78242
720.34        62.97723
720.76        63.09281
721.19        63.14592
721.61        63.14805
722.03        63.12009
722.45        63.10397
722.87         62.9439
723.29        62.68599
723.71         62.8333
724.13        63.40436
724.55        62.89303
724.97        63.24115
725.39        63.12592
725.81        63.12537
726.23        63.06953
726.65        63.02845
727.07        62.89408
727.49        63.10238
727.91         63.2753
728.33        63.49075
728.75        63.65257
729.17        63.73305
729.59        63.75055
730.01        63.72945
730.43        63.72011
730.85        63.73714
731.27        63.76583
731.69        63.78951
732.10        63.78912
732.52        63.75776
732.94         63.7061
733.36        63.65313
733.78         63.6241
734.20        63.63253
734.62        63.68412
735.04        63.75127
735.46        63.78727
735.88         63.7733
736.30         63.7154
736.72        63.67492
737.13        63.69274
737.55        63.72737
737.97        64.00809
738.39        64.40533
738.81        64.13029
739.23        63.40942
739.65         63.6404
740.06        64.59939
740.48        64.82103
740.90        64.22649
741.32        63.63578
741.74        63.25931
742.16        63.07457
742.57         63.1671
742.99        63.51694
743.41        64.00166
743.83        64.40482
744.25        64.64886
744.67        64.76911
745.08        64.80773
745.50        64.80059
745.92        64.78675
746.34        64.74165
746.75        64.65251
747.17        64.52882
747.59        64.37339
748.01        64.18342
748.42        64.01616
748.84        63.95892
749.26         63.9871
749.68        64.09017
750.09        64.22176
750.51        64.10391
750.93        63.88531
751.35        64.26624
751.76        65.10257
752.18        65.41911
752.60        65.14178
753.01        64.79453
753.43        64.52232
753.85        64.36559
754.27        64.37019
754.68        64.48962
755.10        64.66767
755.52        64.81446
755.93        64.92844
756.35         65.0843
756.77        65.16153
757.18        65.15511
757.60        65.10699
758.02        64.47914
758.43        63.62751
758.85         64.5407
759.26        66.19239
759.68        66.64238
760.10        65.58485
760.51        64.97317
760.93        65.03252
761.34        64.62569
761.76        65.11288
762.18        65.02021
762.59         64.7809
763.01         64.7498
763.42        64.96735
763.84        64.94648
764.26        64.70631
764.67        64.52165
765.09        64.47435
765.50        64.43208
765.92        64.43507
766.33        64.52299
766.75        64.64648
767.16        64.84837
767.58        65.04436
768.00        65.21823
768.41        65.38056
768.83        65.48548
769.24        65.51164
769.66        65.49179
770.07        65.38885
770.49        65.04761
770.90        64.59957
771.32        64.63966
771.73        65.11903
772.15        65.37451
772.56        65.38255
772.97        65.50066
773.39        65.71257
773.80        65.88407
774.22        65.96609
774.63        66.02571
775.05        66.03031
775.46          65.989
775.88        65.89263
776.29        65.76008
776.70        65.62504
777.12        65.55347
777.53        65.58269
777.95        65.68399
778.36        65.81715
778.77        65.87805
779.19        65.85153
779.60        65.77413
780.02        65.70557
780.43        65.75694
780.84         65.9524
781.26        66.19073
781.67         66.4571
782.09        66.72767
782.50        66.93919
782.91         66.9722
783.33        66.82024
783.74        66.68125
784.15         66.5548
784.57        66.35594
784.98        66.15948
785.39        66.12446
785.81        66.27135
786.22        66.55634
786.63        66.86654
787.04        67.01184
787.46        66.96816
787.87        66.76404
788.28        66.52371
788.70        66.42689
789.11        66.48881
789.52        66.65434
789.93        66.84489
790.35        66.92314
790.76        66.88756
791.17        66.80185
791.58        66.68427
792.00        66.58788
792.41        66.57033
792.82        66.44208
793.23        66.32143
793.65        66.77711
794.06         67.6526
794.47        67.98419
794.88        67.73276
795.29        67.62638
795.71        67.63338
796.12        67.33529
796.53        66.84209
796.94        66.63789
797.35        66.79832
797.76        67.17212
798.18         67.5768
798.59        67.78029
799.00        67.68176
799.41        67.36921
799.82        66.98376
800.23         66.7481
800.64        66.72546
801.06        66.81183
801.47        67.00143
801.88        67.17067
802.29        67.26604
802.70        67.31821
803.11        67.32451
803.52        67.26987
803.93        67.16521
804.34        67.02244
804.75        66.86516
805.17        66.73701
805.58        66.68435
805.99        66.67025
806.40        66.73194
806.81        66.93319
807.22        67.24216
807.63        67.61036
808.04        67.94896
808.45        68.08463
808.86        67.96509
809.27        67.64001
809.68        67.22682
810.09        66.93847
810.50        66.85094
810.91        66.91849
811.32        67.08154
811.73        67.23071
812.14        67.32452
812.55         67.3961
812.96        67.46571
813.37        67.55992
813.78        67.68111
814.19        67.80354
814.60        67.89705
815.01        67.93122
815.42        67.90285
815.83        67.82133
816.24        67.72704
816.65        67.69388
817.05        67.74911
817.46         67.8441
817.87        67.95247
818.28        67.98247
818.69        67.91286
819.10        67.76243
819.51        67.59389
819.92        67.52234
820.33        67.57611
820.74         67.7154
821.14        67.85294
821.55          67.875
821.96        67.74837
822.37        67.52431
822.78        67.27688
823.19        67.13518
823.60        67.14988
824.00        67.29841
824.41         67.5198
824.82        67.78891
825.23        68.07277
825.64        68.36903
826.04        68.66533
826.45        68.84985
826.86        68.92957
827.27        68.92073
827.68        68.83652
828.08        68.73155
828.49        68.59086
828.90        68.42794
829.31        68.30721
829.72        68.32654
830.12        68.52802
830.53        68.83788
830.94        69.15388
831.35        69.24532
831.75        69.07072
832.16        68.64644
832.57        68.15369
832.97        67.85925
833.38         67.8293
833.79        67.97906
834.20        68.18072
834.60        68.22147
835.01         68.0723
835.42        67.82699
835.82        67.57008
836.23        67.38873
836.64        67.33503
837.04        67.37194
837.45        67.49323
837.86        67.81313
838.26        68.32666
838.67        68.96304
839.08        69.50519
839.48        69.58237
839.89        69.13884
840.29        68.27396
840.70        67.33192
841.11         66.7865
841.51        66.77608
841.92        67.18501
842.33        67.75745
842.73         68.0483
843.14        67.88715
843.54        67.42156
843.95        66.95345
844.35        66.99376
844.76        67.60568
845.17        68.64166
845.57        69.73466
845.98         70.1227
846.38        69.66998
846.79        68.62344
847.19        67.41559
847.60        66.72812
848.00        66.72083
848.41        67.16054
848.81        67.84962
849.22        68.35638
849.62        68.57295
850.03        68.57057
850.43        68.41503
850.84        68.09634
851.24        67.70232
851.65        67.20166
852.05        66.70524
852.46        66.39908
852.86        66.30336
853.27        66.41183
853.67        66.61745
854.07        66.93537
854.48        67.28989
854.88        67.74603
855.29        68.08858
855.69         68.1396
856.10        67.75356
856.50        67.05463
856.90        66.28542
857.31        65.84103
857.71        65.84576
858.12        66.17119
858.52        66.68343
858.92        66.94127
859.33        66.80025
859.73        66.41977
860.13        65.98655
860.54        65.82259
860.94        66.03771
861.34        66.49902
861.75         66.9882
862.15        67.24699
862.55        67.14868
862.96        66.79272
863.36        66.32652
863.76        65.99789
864.17        65.87534
864.57        65.91951
864.97        65.99839
865.38        65.88657
865.78         65.5782
866.18        65.12528
866.58        64.71251
866.99         64.6479
867.39        65.00555
867.79         65.6367
868.19        66.29047
868.60        66.57019
869.00        66.38952
869.40        65.88321
869.80        65.21021
870.21        64.66214
870.61        64.39339
871.01        64.30251
871.41        64.37138
871.81        64.56926
872.22        64.84268
872.62        65.25427
873.02         65.7336
873.42        66.11655
873.82         66.3404
874.22        66.42471
874.63        66.45417
875.03        66.55183
875.43        66.75657
875.83        67.00273
876.23        67.25726
876.63        67.45721
877.03        67.58519
877.44        67.71004
877.84        67.73968
878.24        67.55039
878.64        67.13911
879.04        66.50749
879.44        65.93026
879.84        65.80566
880.24        66.17088
880.64        66.94825
881.04        67.66399
881.44          67.481
881.84         66.2739
882.24        64.38828
882.65        62.57533
883.05        61.80438
883.45        62.29349
883.85        63.74211
884.25        65.59203
884.65        66.80945
885.05        67.02418
885.45        66.52522
885.85        65.71512
886.25        65.21931
886.65        65.20953
887.05        65.45432
887.45        65.75292
887.85        65.80834
888.25        65.53562
888.65        65.09561
889.04        64.59924
889.44        64.20866
889.84        63.97593
890.24        63.86789
890.64        63.88086
891.04        64.02016
891.44        64.26915
891.84        64.60986
892.24        65.03753
892.64        65.53978
893.04        66.09847
893.44          66.709
893.83        67.28503
894.23         67.6109
894.63        67.66564
895.03        67.45348
895.43        67.17255
895.83        67.14476
896.23         67.4329
896.63         67.9768
897.02        68.46152
897.42        68.37035
897.82        67.63577
898.22        66.43752
898.62        65.25292
899.01        64.74005
899.41        65.03861
899.81        65.99523
900.21         67.1202
900.61        67.49348
901.00        66.86882
901.40        65.60626
901.80        64.37387
902.20        64.09473
902.59        64.95462
902.99        66.64864
903.39         68.6056
903.79        69.61683
904.18        69.26585
904.58        67.99097
904.98         66.4774
905.38        65.65637
905.77        65.71794
906.17        66.37751
906.57        67.27324
906.96        67.85391
907.36        67.88474
907.76        67.56638
908.15        67.11346
908.55        66.78724
908.95        66.71387
909.34        66.77544
909.74        66.84853
910.14        66.72775
910.53        66.38327
910.93        65.93858
911.33        65.56147
911.72        65.51488
912.12        65.85033
912.52        66.46046
912.91        67.19673
913.31         67.8056
913.70          68.217
914.10        68.42455
914.49        68.49055
914.89        68.45531
915.29        68.37179
915.68        68.23927
916.08        68.04009
916.47        67.69849
916.87        67.26586
917.26         66.7523
917.66        66.36164
918.05        66.37673
918.45        66.79799
918.84        67.58607
919.24         68.3583
919.64        68.53868
920.03        67.98818
920.42        66.90114
920.82        65.74607
921.21        65.05045
921.61        64.94199
922.00        65.31035
922.40        65.89681
922.79        66.34251
923.19        66.47347
923.58        66.40793
923.98        66.35732
924.37        66.60493
924.77        67.20827
925.16         68.0732
925.55        68.93408
925.95        69.32444
926.34        69.15209
926.74        68.54198
927.13        67.78179
927.52        67.30175
927.92        67.21247
928.31        67.38212
928.70         67.6487
929.10        67.71858
929.49        67.53396
929.89        67.22617
930.28        66.91409
930.67        66.73192
931.07         66.7254
931.46        66.84399
931.85        67.12878
932.24         67.6839
932.64        68.45662
933.03        69.45461
933.42        70.40565
933.82        70.88049
934.21        70.80074
934.60        70.26275
934.99        69.55948
935.39        69.12468
935.78        69.06239
936.17        69.23753
936.56        69.48587
936.96        69.53558
937.35        69.34503
937.74         69.0054
938.13        68.53117
938.53        67.92139
938.92        67.22591
939.31        66.53844
939.70        66.03103
940.09        65.97552
940.49        66.36147
940.88        67.08009
941.27        68.04577
941.66        69.10423
942.05        70.08801
942.44        71.00789
942.84        71.43716
943.23        70.70564
943.62        68.88253
944.01        66.37115
944.40        64.01389
944.79        62.85872
945.18        63.05123
945.57         64.3241
945.97        66.12711
946.36         67.5733
946.75        68.12135
947.14        68.03804
947.53        67.63261
947.92        67.44904
948.31        67.64742
948.70        67.93572
949.09        68.27615
949.48        68.66381
949.87        69.03783
950.26        69.49034
950.65        69.72089
951.04        69.20409
951.43        67.93042
951.82         66.1036
952.21        64.35099
952.60        63.61949
952.99        64.08259
953.38        65.46326
953.77        67.13783
954.16        68.01591
954.55        67.75312
954.94        66.63376
955.33        65.16734
955.72        64.20407
956.11        64.01035
956.50        64.35652
956.89        64.87946
957.28        64.99224
957.66        64.56579
958.05        63.81601
958.44        63.13306
958.83        63.10622
959.22        63.84404
959.61        65.08387
960.00        66.42513
960.39        67.18723
960.78        67.15254
961.16        66.57461
961.55        65.64105
961.94        64.63531
962.33        63.72684
962.72        62.82859
963.11        62.21675
963.49        62.36509
963.88        63.26689
964.27        64.81867
964.66        66.46744
965.04        67.27558
965.43         66.9461
965.82        65.75283
966.21        64.22814
966.60        63.29025
966.98        63.24419
967.37        63.83379
967.76        64.73072
968.15        65.36655
968.53         65.5718
968.92         65.4745
969.31         65.3278
969.69        65.52182
970.08        66.09226
970.47        66.85495
970.86        67.50019
971.24        67.56829
971.63        66.97908
972.02        65.99711
972.40        64.91476
972.79        64.17893
973.17        64.04913
973.56         64.3074
973.95        65.05555
974.33        66.47359
974.72        68.42636
975.11        70.89504
975.49        73.37601
975.88        74.65347
976.26        74.32418
976.65        72.64204
977.04         70.2326
977.42        67.96854
977.81        66.17171
978.19        64.63663
978.58         63.4302
978.96        62.44527
979.35        61.66961
979.74        61.15314
980.12        60.89675
980.51        60.72857
980.89        60.67931
981.28        60.77141
981.66        60.95542
982.05        61.11409
982.43        61.24308
982.82        61.27822
983.20        61.53008
983.59        62.52134
983.97        64.38507
984.35        66.98751
984.74        69.47178
985.12        70.52962
985.51         69.6455
985.89        67.35254
986.28        64.73436
986.66        63.00844
987.04        62.56511
987.43        62.99081
987.81        63.99213
988.20         64.8422
988.58        65.30777
988.96        65.66255
989.35        65.80315
989.73        65.67456
990.12        65.27781
990.50        64.50008
990.88         63.8124
991.27         63.9832
991.65        65.14364
992.03        67.24764
992.42        69.32291
992.80        69.69853
993.18        67.75806
993.56        64.36415
993.95        61.10074
994.33        59.46155
994.71        59.78034
995.10         61.4895
995.48        64.10144
995.86        66.02553
996.24        66.48209
996.63        66.03839
997.01        65.09711
997.39        64.17082
997.77        63.47222
998.15        62.67137
998.54         62.1725
998.92         62.8217
999.30         64.7711
999.68        67.95377
1000.06        71.18227
1000.45        72.16222
1000.83        70.53165
1001.21        66.97844
1001.59        63.19084
1001.97        61.49182
1002.35        62.31679
1002.73        65.00632
1003.12        68.52354
1003.50        70.97411
1003.88        71.56168
1004.26        70.90987
1004.64        69.62611
1005.02         68.7011
1005.40        68.42571
1005.78        68.26798
1006.16        68.20522
1006.54        68.27512
1006.92        68.40176
1007.30        68.82546
1007.69        68.84512
1008.07        67.23309
1008.45        64.11642
1008.83        60.26759
1009.21        57.17865
1009.59        56.43199
1009.97        58.11763
1010.35        61.93778
1010.73        66.86594
1011.11        70.18654
1011.49        70.50304
1011.86        68.21133
1012.24        65.05968
1012.62        63.82013
1013.00        65.35459
1013.38         69.2889
1013.76        74.11456
1014.14        75.79079
1014.52        73.18215
1014.90        68.54276
1015.28        64.49831
1015.66        63.33807
1016.04        65.19765
1016.41        69.63957
1016.79        75.70429
1017.17        81.14505
1017.55        84.00272
1017.93        84.54995
1018.31        82.36834
1018.69        77.74398
1019.06         71.9556
1019.44        66.11854
1019.82        61.61452
1020.20         59.3738
1020.58        59.05908
1020.95        60.54403
1021.33        62.97791
1021.71        64.17134
1022.09        63.20645
1022.46        60.44706
1022.84        57.84898
1023.22        57.89192
1023.60         61.2617
1023.97        68.20828
1024.35        76.72587
1024.73        79.59496
