SpectraSmart Spectrum 2.9.0.0
--------- Device Information -----------
Spectrum Name :  反射率_0
Saving Time :  2024/05/03 20:19:46
Spectro-Module Model Name : SE2030-DUVN
Spectro-Module Serial Number : OS361AC55029948
Wavelength Start : 200
Wavelength End : 1025
Wavelength Unit : Wavelength(nm)
Spectrum Unit : Reflectance(%)
-----------Spectrum Setting ------------
Integration Time : 20ms
Average : 10
Boxcar : 0
Background removal :  enabled
linearity correction :  enabled
SC :  disabled
Intensity correction :  disabled
DWT denoise :  enabled
savitzky-golay :  disabled
FFT :  disabled
Running average :  disabled
Kalman :  disabled
High pass :  disabled
---------------BEGIN--------------------
Wavelength(nm)             Reflectance(%)
200.29               0
200.75       -24.62036
201.21       -50.57653
201.67        1688.613
202.13        71.80693
202.58        53.92428
203.04        52.06211
203.50        55.85768
203.96        66.11953
204.42        89.61968
204.88        177.2157
205.34        -2924.66
205.80       -245.9748
206.26        -242.217
206.72       -47514.81
207.18        139.6279
207.64        82.62862
208.10        87.47528
208.55        162.5177
209.01        949.8925
209.47        1292.209
209.93        189.5687
210.39        79.23466
210.85        50.74208
211.31        45.25919
211.77        51.59282
212.23        74.65977
212.69        138.9037
213.14        191.3274
213.60        112.8307
214.06        58.19788
214.52        36.70059
214.98        31.33037
215.44        36.41664
215.90        67.08709
216.36       -400.3223
216.81        -80.3287
217.27       -88.89703
217.73       -170.4844
218.19       -655.8109
218.65       -12894.49
219.11       -846.9346
219.57       -179.9151
220.02       -72.38871
220.48       -122.4171
220.94          208.28
221.40        90.94835
221.86        74.43002
222.32        69.43957
222.77         67.5631
223.23        67.80936
223.69        68.10381
224.15        63.05039
224.61        53.94877
225.06        45.83962
225.52        42.36517
225.98        44.18642
226.44         50.5696
226.90        61.55929
227.36        75.01747
227.81        81.71273
228.27        76.77076
228.73        65.65586
229.19        53.94445
229.65        45.65517
230.10        40.73788
230.56        37.90732
231.02        36.67687
231.48        36.87295
231.93        38.04657
232.39        40.10926
232.85        42.32945
233.31         43.6641
233.77        43.94183
234.22         43.3766
234.68        42.59738
235.14        42.71894
235.60        44.09877
236.05        46.58589
236.51        49.47544
236.97        51.36292
237.43        51.67091
237.88        50.93715
238.34        50.15858
238.80        50.58484
239.26        52.86884
239.71        59.56746
240.17        69.50748
240.63        81.98108
241.08         89.1902
241.54        86.97424
242.00        81.63274
242.46        83.46378
242.91        96.48518
243.37        123.9778
243.83        173.7639
244.28        230.3642
244.74        242.4063
245.20        207.8582
245.66        156.3479
246.11        116.1205
246.57        91.27895
247.03        74.01743
247.48        64.59696
247.94        63.31323
248.40        68.38943
248.85         79.6658
249.31        93.16356
249.77        97.61731
250.22        91.41698
250.68        81.08027
251.14        72.47956
251.59        70.54469
252.05        75.85847
252.51        88.36887
252.96        108.8165
253.42        128.4199
253.88        135.1859
254.33        129.7923
254.79        117.8974
255.25        104.8366
255.70        93.84731
256.16        85.96544
256.62        80.60541
257.07        77.36035
257.53        75.75929
257.99        74.59541
258.44        73.19003
258.90        71.51674
259.35         69.2361
259.81        67.21185
260.27        65.11653
260.72        62.67154
261.18         60.4416
261.63        58.26787
262.09        56.75667
262.55        56.13557
263.00        56.14101
263.46         56.5624
263.91        56.86988
264.37          56.654
264.83        55.78382
265.28        54.47388
265.74        52.95061
266.19        51.21975
266.65        49.48893
267.11        47.69398
267.56        46.04175
268.02        44.91755
268.47        44.29206
268.93         44.0938
269.38        43.99968
269.84         43.4584
270.30        42.39359
270.75        40.98841
271.21        39.64855
271.66          38.856
272.12        38.67672
272.57        38.85131
273.03         39.0792
273.48        38.91134
273.94        38.25012
274.39        37.29518
274.85        36.16513
275.31        34.91981
275.76        33.64579
276.22        32.39341
276.67        31.36482
277.13        30.94941
277.58         31.0687
278.04        31.61171
278.49        32.13478
278.95        31.98933
279.40        31.05348
279.86        29.68449
280.31        28.25295
280.77        27.34352
281.22        26.96303
281.68        26.94513
282.13        27.05677
282.59        27.03013
283.04        26.77133
283.50        26.41659
283.95        26.02177
284.41        25.68617
284.86        25.42775
285.32        25.23121
285.77        25.08618
286.22        25.04794
286.68        25.12143
287.13         25.2626
287.59        25.44607
288.04        25.58043
288.50        25.66384
288.95        25.68525
289.41        25.67851
289.86        25.65294
290.32        25.64252
290.77         25.6344
291.22        25.64456
291.68        25.68246
292.13        25.75969
292.59        25.92774
293.04        26.21569
293.50        26.67285
293.95        27.30076
294.40        28.08226
294.86        29.02768
295.31        30.15988
295.77         31.4756
296.22        32.94275
296.68        34.47623
297.13        35.91791
297.58        37.19139
298.04        38.34899
298.49        39.40372
298.95        40.45375
299.40        41.53441
299.85        42.64488
300.31         43.8911
300.76        45.39096
301.21        47.16041
301.67        49.16837
302.12        51.21147
302.58        52.99825
303.03        54.42888
303.48        55.59138
303.94        56.71989
304.39         58.0904
304.84        59.80852
305.30        61.78612
305.75        63.81285
306.20        65.60174
306.66        67.09539
307.11        68.34543
307.57        69.54022
308.02        70.83626
308.47        72.31705
308.93        73.91791
309.38        75.51838
309.83         77.0304
310.29        78.41932
310.74        79.69441
311.19        80.87918
311.65        81.99029
312.10        83.00374
312.55        83.90035
313.00        84.66196
313.46        85.28391
313.91        85.76412
314.36        86.17332
314.82         86.5718
315.27        87.01565
315.72        87.54513
316.18        88.14405
316.63        88.83786
317.08        89.68067
317.53        90.65542
317.99        91.71704
318.44        92.74709
318.89        93.49441
319.35        93.89378
319.80        94.00792
320.25        93.98183
320.70        94.08003
321.16        94.36385
321.61        94.78498
322.06        95.23682
322.51        95.54092
322.97         95.6416
323.42        95.63612
323.87        95.58437
324.32        95.58862
324.78        95.67649
325.23        95.84581
325.68        96.07675
326.13        96.35868
326.59        96.65134
327.04        97.00638
327.49        97.38651
327.94        97.76251
328.39        98.11714
328.85        98.41255
329.30        98.69756
329.75        98.92422
330.20        99.09696
330.66        99.20791
331.11        99.33935
331.56        99.51212
332.01        99.75125
332.46        100.0528
332.92        100.3998
333.37        100.8768
333.82        101.4429
334.27         102.084
334.72        102.7357
335.17        103.2927
335.63        103.6897
336.08         103.992
336.53         104.216
336.98        104.4534
337.43        104.7346
337.88        105.0416
338.34        105.3366
338.79        105.5798
339.24        105.7638
339.69        105.9364
340.14        106.1442
340.59        106.4513
341.05        106.8705
341.50        107.3777
341.95        107.9577
342.40        108.6045
342.85        109.2855
343.30        109.9763
343.75        110.5921
344.20         111.002
344.66        111.2072
345.11        111.2492
345.56        111.2191
346.01        111.2557
346.46         111.412
346.91        111.6453
347.36        111.9888
347.81         112.488
348.26        113.1174
348.72        113.8617
349.17         114.547
349.62        114.9205
350.07        114.9368
350.52        114.6684
350.97        114.3015
351.42        114.1489
351.87        114.2777
352.32        114.5743
352.77        114.9019
353.22        115.0381
353.67        114.9223
354.13         114.678
354.58         114.297
355.03        113.8313
355.48        113.3332
355.93        112.8005
356.38         112.348
356.83        112.1642
357.28        112.2562
357.73         112.537
358.18        112.8404
358.63        112.8896
359.08        112.6007
359.53        112.0565
359.98        111.3034
360.43        110.4315
360.88         109.498
361.33        108.4769
361.78        107.4861
362.23        106.6997
362.68        106.1417
363.13        105.7923
363.58        105.4558
364.03        104.8089
364.48        103.7976
364.93         102.519
365.38        101.2418
365.83        100.3778
366.28         100.008
366.73        100.0072
367.18        100.0827
367.63        99.76736
368.08        98.94765
368.53        97.76283
368.98         96.5146
369.43        95.65225
369.88        95.27354
370.33        95.25146
370.78         95.2845
371.23        94.87907
371.68        93.92756
372.13        92.60063
372.58        91.26902
373.03        90.48093
373.48        90.34145
373.93        90.66792
374.38        91.08749
374.83         90.9924
375.28         90.2278
375.72        88.97028
376.17          87.629
376.62        86.66277
377.07        86.17585
377.52         86.0124
377.97        85.93972
378.42         85.6022
378.87        84.92281
379.32        84.04289
379.77        83.17542
380.22        82.59423
380.67        82.34203
381.11        82.34112
381.56        82.36182
382.01        82.10171
382.46         81.5015
382.91        80.68083
383.36        79.87205
383.81        79.40381
384.26        79.32722
384.71        79.52097
385.15        79.76526
385.60        79.74308
386.05        79.36159
386.50        78.72864
386.95        78.00718
387.40        77.43929
387.85        77.09335
388.29        76.86343
388.74        76.71399
389.19        76.42564
389.64        75.95702
390.09         75.3688
390.54         74.8018
390.98        74.40025
391.43        74.22844
391.88        74.35164
392.33        74.58072
392.78        74.25636
393.23        73.53741
393.67        73.33588
394.12        73.62328
394.57        73.42525
395.02        72.80334
395.47        72.54324
395.91        72.65997
396.36        72.60754
396.81        72.39942
397.26        72.33181
397.71        72.29275
398.15        72.07913
398.60        71.79025
399.05        71.13991
399.50        70.40331
399.95        70.67004
400.39        71.69731
400.84        71.62767
401.29        70.55811
401.74        70.26939
402.18        70.74304
402.63        70.66045
403.08        70.12159
403.53        69.51927
403.97        69.87784
404.42        69.99207
404.87        70.05333
405.32        69.99948
405.76        69.79884
406.21        69.52137
406.66        69.20296
407.11        68.93436
407.55        68.78821
408.00        68.65337
408.45        68.54042
408.90        68.72191
409.34         69.0028
409.79        68.64246
410.24        67.83074
410.68        67.47867
411.13        67.64912
411.58        67.85767
412.03         67.9539
412.47        67.91541
412.92        67.67471
413.37        67.26241
413.81        66.83319
414.26        66.68356
414.71        66.82575
415.15        67.22836
415.60        67.65024
416.05        67.75188
416.49        67.44968
416.94        66.87715
417.39        66.29958
417.83        66.09251
418.28        66.34007
418.73        66.91044
419.17        67.59401
419.62        67.98347
420.07        67.95274
420.51        67.59917
420.96        67.11971
421.41        66.67227
421.85        66.29403
422.30         66.1845
422.74        66.18287
423.19        65.78574
423.64        65.13297
424.08        65.18732
424.53         65.8763
424.98        66.27732
425.42        66.31464
425.87        66.56934
426.31        67.01593
426.76        67.09544
427.21        66.90472
427.65        67.06206
428.10        67.47415
428.54         67.6013
428.99        67.48311
429.44        67.26964
429.88        67.01697
430.33        67.13837
430.77        67.39758
431.22         67.0635
431.66        66.27509
432.11        66.00925
432.56        66.27647
433.00        66.67779
433.45        66.97966
433.89        67.35237
434.34        64.94223
434.78        67.32196
435.23        67.57978
435.67         66.7552
436.12        65.60471
436.57         65.7338
437.01        67.53016
437.46         68.1422
437.90        67.47836
438.35        67.05411
438.79        66.99525
439.24        66.83127
439.68        66.60017
440.13        66.65498
440.57        66.96629
441.02         66.9974
441.46        66.74613
441.91        67.21482
442.35        68.01739
442.80        67.56711
443.24        66.22343
443.69        66.33158
444.13        67.68301
444.58        68.09748
445.02         67.4631
445.47        67.01749
445.91        66.95654
446.36        66.96474
446.80        67.02859
447.24        67.72639
447.69        68.13965
448.13        68.15798
448.58         67.7289
449.02        67.44206
449.47        67.42864
449.91        67.35064
450.36         67.2649
450.80        67.37679
451.25        67.62338
451.69        67.73112
452.13        67.66528
452.58        67.51963
453.02        67.31388
453.47         67.1031
453.91        66.90133
454.36        66.69481
454.80        66.49505
455.24        66.37599
455.69        66.36031
456.13        66.41391
456.58        66.27849
457.02         66.5387
457.46        66.17581
457.91        66.01514
458.35        65.75739
458.79        65.69761
459.24        65.75038
459.68         65.4162
460.13        64.84679
460.57        64.60558
461.01        64.78082
461.46        64.77641
461.90        64.77348
462.34        65.04871
462.79        64.30787
463.23        64.02294
463.68        63.88478
464.12        63.99483
464.56        64.24905
465.01        64.39481
465.45        64.35379
465.89        64.33339
466.34        64.31995
466.78        64.16311
467.22         63.9715
467.67        63.50978
468.11        63.67365
468.55        63.56332
468.99        63.42776
469.44        63.34155
469.88        63.31402
470.32        63.28805
470.77        63.24387
471.21        63.21449
471.65        63.17814
472.10        63.11856
472.54        63.05178
472.98        62.99589
473.42        62.94329
473.87        63.01596
474.31        63.08762
474.75        62.76802
475.20        62.20233
475.64        61.98702
476.08        62.11396
476.52        62.11934
476.97        61.99665
477.41        61.94463
477.85        61.95403
478.29        62.36816
478.74        62.33091
479.18        62.55922
479.62        62.59248
480.06        62.55611
480.50        62.33038
480.95        62.25284
481.39         62.4112
481.83        61.45586
482.27        61.70233
482.72        61.85592
483.16        61.67033
483.60        61.73814
484.04        61.84568
484.48        61.68362
484.93        61.32935
485.37        62.00019
485.81        62.83712
486.25        62.58598
486.69        64.69019
487.14        64.65495
487.58        61.74123
488.02        61.30503
488.46        62.47845
488.90        61.17342
489.34        61.98181
489.79          61.736
490.23        61.98678
490.67        62.06639
491.11         62.0359
491.55        61.95626
491.99         61.8146
492.43        61.70071
492.88         61.6278
493.32        61.64127
493.76        61.71746
494.20        61.75055
494.64        61.70786
495.08        61.75569
495.52        61.88175
495.96        61.66159
496.41        61.24065
496.85        61.55735
497.29         62.3771
497.73        62.31895
498.17        61.47726
498.61        61.16722
499.05         61.4519
499.49        61.53696
499.93        61.38563
500.37        61.30673
500.82        61.29544
501.26        61.30191
501.70        61.31079
502.14         61.2744
502.58        61.20567
503.02        61.17545
503.46        61.18885
503.90        61.21036
504.34        61.22084
504.78        61.20247
505.22         61.1443
505.66        61.05772
506.10        60.94681
506.54        60.86943
506.98        60.82345
507.42        60.87229
507.86        60.38825
508.30        60.88514
508.74        60.49269
509.18        60.54788
509.62         60.5549
510.06        60.60637
510.50        60.69306
510.94         60.8095
511.38        60.90865
511.82         60.8676
512.26         60.6773
512.70        60.38212
513.14        60.07498
513.58        59.90168
514.02        59.89341
514.46        59.99873
514.90        60.15582
515.34        60.25908
515.78        60.27413
516.22        60.24506
516.66        60.17057
517.10        60.04681
517.54        59.89194
517.98         59.7038
518.42        59.55907
518.86         59.5847
519.30         59.7938
519.74        60.14249
520.18        60.51503
520.62        60.71765
521.06        60.69917
521.50        60.51678
521.93        60.25271
522.37        60.05785
522.81        59.97401
523.25        59.95821
523.69         59.9838
524.13        60.00861
524.57        60.01604
525.01        60.02929
525.45        60.04148
525.89        60.03366
526.32        60.00121
526.76        59.95252
527.20        59.90656
527.64        59.90366
528.08        59.95138
528.52        60.03706
528.96        60.13161
529.40         60.1908
529.83        60.18901
530.27        60.14233
530.71        60.07107
531.15        60.01554
531.59        59.98654
532.03        59.98681
532.46        59.96731
532.90        59.85287
533.34        59.65023
533.78        59.40236
534.22        59.20849
534.66        59.21206
535.09        59.41491
535.53         59.7585
535.97        60.13762
536.41        60.33762
536.85        60.29512
537.28        60.23475
537.72        60.15458
538.16        59.68629
538.60        59.05857
539.04        59.08099
539.47        59.63925
539.91        59.87938
540.35        59.74362
540.79        59.73809
541.22        59.84655
541.66        59.85579
542.10        59.76855
542.54        59.55299
542.97        59.30304
543.41        59.39745
543.85        59.75291
544.29         59.8821
544.72        59.74405
545.16        59.69122
545.60        59.70773
546.04        59.58805
546.47        59.38104
546.91        59.28011
547.35        59.30816
547.79        59.43151
548.22        59.59821
548.66        59.71948
549.10        59.78642
549.53        59.96224
549.97         60.1944
550.41        60.25919
550.84         60.1178
551.28        59.94785
551.72        59.81143
552.15        59.53963
552.59        59.18506
553.03        59.42303
553.46        59.18896
553.90        59.06676
554.34        59.31962
554.77        59.38761
555.21        59.45164
555.65        59.53958
556.08        59.64125
556.52         59.7848
556.96        59.89719
557.39        59.76719
557.83        59.48806
558.27        59.38904
558.70        59.49141
559.14        59.61053
559.57        59.66874
560.01         59.7694
560.45        59.59413
560.88        59.67058
561.32        59.86362
561.75        59.82687
562.19         59.6403
562.63         59.4616
563.06        59.36367
563.50        59.69695
563.93        60.25113
564.37        60.06608
564.80        59.29623
565.24        59.17978
565.68        59.65356
566.11        59.79751
566.55        59.61117
566.98        59.55074
567.42        59.63866
567.85        59.88282
568.29        59.87388
568.72        59.96918
569.16        60.08687
569.60        60.22224
570.03        59.98755
570.47        60.16417
570.90         60.3418
571.34         59.6966
571.77        60.63971
572.21         60.4133
572.64        60.76772
573.08        60.35336
573.51         60.6574
573.95        60.61494
574.38         60.7685
574.82        60.26859
575.25        61.26804
575.69        61.55566
576.12        61.23014
576.56        60.34924
576.99        60.20359
577.42        61.60676
577.86        60.96246
578.29        61.34406
578.73         61.3271
579.16        61.33689
579.60        61.20761
580.03        61.08143
580.47        60.92232
580.90        61.17457
581.33        60.54464
581.77        60.89974
582.20        62.40775
582.64        61.68496
583.07        62.05474
583.51        61.27662
583.94        60.62329
584.37        60.40005
584.81        60.44335
585.24        60.60419
585.68        61.65134
586.11        60.83345
586.54         61.1489
586.98        60.51577
587.41        60.08012
587.85          60.776
588.28        61.06073
588.71         60.7824
589.15        60.23386
589.58        60.90699
590.01        60.21488
590.45         59.7973
590.88        60.22514
591.31        60.33955
591.75        60.40968
592.18        60.20574
592.61        59.97207
593.05        59.91349
593.48        61.10566
593.91        61.17867
594.35        60.86344
594.78        60.52768
595.21        60.40347
595.65        60.55601
596.08        60.64571
596.51        60.85438
596.94        60.51624
597.38        60.35614
597.81         60.2074
598.24        60.41588
598.68        60.39826
599.11        59.68409
599.54        61.21432
599.97        60.79927
600.41        60.48196
600.84        60.26091
601.27        60.45755
601.70        60.54451
602.14        60.44361
602.57        60.40406
603.00         60.4254
603.43        60.39317
603.87        60.30946
604.30        60.64734
604.73        60.47671
605.16        60.38274
605.60        59.85845
606.03        59.81945
606.46        60.17699
606.89         59.8371
607.32        60.33493
607.76        59.88345
608.19        60.16178
608.62        60.09656
609.05        60.03449
609.48         59.9249
609.92          59.957
610.35        59.56426
610.78        60.75232
611.21        60.84642
611.64        60.83043
612.07        60.68766
612.50        60.61894
612.94        60.50713
613.37        60.39659
613.80        60.34046
614.23        60.32819
614.66        60.28499
615.09        60.23393
615.52        60.29571
615.96        60.42276
616.39        60.45425
616.82         60.3835
617.25        60.11248
617.68        60.23787
618.11        59.84835
618.54        59.32456
618.97        59.30812
619.40         59.7668
619.84        60.11932
620.27        60.25144
620.70        60.34856
621.13        60.38827
621.56        60.09574
621.99        59.59349
622.42        59.58781
622.85         60.0043
623.28        59.98594
623.71        59.42784
624.14        59.88828
624.57        59.08404
625.00        59.38155
625.43        59.47834
625.86        59.57547
626.29        59.36665
626.72        59.91761
627.15        59.77605
627.58        59.53989
628.01        59.69363
628.44        59.55929
628.87        59.21241
629.30        59.16659
629.73        59.33471
630.16        59.37498
630.59        59.24976
631.02        59.19195
631.45        59.24334
631.88        59.25802
632.31         59.2094
632.74        59.58884
633.17         59.5037
633.60         59.5511
634.03        59.46537
634.46         59.2936
634.89        59.08688
635.32        58.94801
635.75        58.91094
636.18        58.93521
636.61        58.99191
637.04        59.03587
637.47        59.05313
637.89           59.05
638.32        58.99895
638.75        58.94951
639.18        58.92001
639.61        58.66125
640.04        58.64486
640.47        58.56878
640.90        58.57616
641.33         58.6438
641.76        58.74804
642.18        58.84674
642.61        58.89846
643.04        58.92204
643.47        58.92765
643.90         58.9341
644.33        58.94427
644.76        58.95851
645.18        58.97697
645.61        58.92384
646.04         58.7941
646.47         58.7458
646.90        58.84502
647.33        58.51508
647.75        58.87395
648.18        58.94935
648.61        59.05466
649.04         59.3033
649.47        59.43746
649.89         59.6139
650.32        59.67459
650.75         59.5675
651.18        59.35553
651.61         59.1192
652.03        58.97321
652.46        59.18128
652.89        59.55118
653.32        59.56723
653.74        59.47976
654.17        59.14817
654.60        58.71648
655.03        60.38184
655.46        59.11478
655.88        59.03294
656.31        62.42567
656.74        68.29587
657.16        64.89063
657.59        60.95526
658.02        60.38139
658.45        60.71305
658.87        60.34156
659.30        59.55593
659.73        59.00485
660.15        59.40722
660.58        59.01064
661.01        58.99939
661.44        58.74676
661.86        58.54711
662.29        58.42283
662.72        58.62574
663.14        59.06589
663.57        58.99622
664.00        58.53313
664.42        58.54381
664.85        59.00273
665.27        59.15403
665.70        58.96841
666.13         58.9188
666.55         59.0143
666.98        59.00292
667.41        58.90813
667.83        58.85924
668.26        58.86062
668.69        58.90271
669.11        58.93778
669.54        58.86079
669.96        58.66029
670.39        58.43092
670.82        58.28535
671.24        58.22493
671.67        58.32918
672.09        58.90991
672.52        59.77573
672.94        59.90755
673.37        59.92348
673.80        59.51434
674.22        59.08935
674.65        58.87336
675.07        58.95929
675.50        59.25285
675.92        59.61397
676.35        59.78963
676.77        59.72382
677.20        59.50217
677.62        59.24002
678.05        59.11938
678.47        59.18249
678.90        59.36244
679.32        59.57744
679.75        59.75554
680.17        59.86663
680.60        59.86113
681.02        59.74608
681.45         59.8986
681.87        59.70959
682.30        59.68573
682.72        59.64558
683.15        59.56228
683.57        59.46761
684.00        59.46924
684.42        59.55719
684.85        59.62526
685.27         59.6577
685.70        59.64455
686.12         59.5934
686.54        59.70508
686.97        59.89582
687.39        59.80061
687.82        59.44021
688.24        59.24012
688.66        59.23947
689.09        59.08292
689.51          59.012
689.94         59.0542
690.36        59.29539
690.78          59.554
691.21        59.68465
691.63        60.25861
692.06        59.74073
692.48        59.88575
692.90        60.17868
693.33        60.23049
693.75        60.03049
694.17        59.72604
694.60        59.44316
695.02         59.7128
695.44         59.7044
695.87        60.22801
696.29        60.80826
696.71        60.68322
697.14        59.95559
697.56        59.57182
697.98        59.63941
698.41        59.60588
698.83        59.47747
699.25         59.6569
699.68        60.02786
700.10        60.24483
700.52         60.2262
700.94        60.07988
701.37        59.88561
701.79         59.7942
702.21        59.83321
702.64        59.94446
703.06        60.06502
703.48           60.11
703.90        60.06134
704.33        59.95797
704.75        59.84132
705.17        59.76052
705.59        59.73735
706.01        59.74717
706.44        59.79927
706.86        59.93811
707.28         60.1377
707.70        60.37883
708.12        60.60041
708.55        60.70393
708.97        60.66323
709.39        60.50695
709.81        60.29501
710.23        60.15397
710.66        60.12663
711.08        60.18921
711.50        60.30064
711.92        60.41542
712.34        60.51258
712.76        60.60212
713.19        60.66662
713.61        60.72888
714.03        60.76256
714.45        60.75639
714.87        60.71312
715.29        60.64159
715.71         60.5457
716.13        60.43274
716.56        60.28967
716.98        60.15641
717.40        60.03008
717.82        59.92231
718.24        59.85906
718.66        59.87729
719.08        59.97636
719.50        60.13093
719.92        60.31472
720.34        60.48645
720.76        60.62846
721.19        60.73822
721.61        60.79971
722.03        60.78892
722.45        60.73669
722.87        60.51405
723.29        60.18678
723.71        60.26949
724.13        60.79126
724.55        60.29329
724.97        60.63287
725.39        60.56276
725.81        60.63411
726.23        60.62685
726.65        60.57029
727.07        60.56306
727.49        60.59996
727.91        60.67177
728.33        60.75529
728.75        60.81726
729.17        60.84904
729.59        60.85766
730.01        60.86877
730.43        60.94675
730.85        61.10205
731.27        61.26229
731.69        61.35727
732.10        61.56712
732.52        61.44473
732.94        61.32563
733.36        61.12877
733.78        61.07621
734.20        61.22704
734.62        61.04235
735.04        61.43194
735.46        61.40759
735.88        61.26353
736.30        61.20393
736.72        61.27845
737.13        61.28902
737.55        61.17332
737.97        61.33484
738.39        61.66068
738.81        61.25665
739.23        60.39524
739.65        60.65694
740.06        61.79141
740.48        62.13846
740.90        61.60011
741.32        61.08866
741.74        60.80547
742.16         60.6693
742.57         60.7577
742.99        61.06422
743.41        61.46991
743.83        61.76868
744.25        61.89407
744.67         61.8858
745.08        61.81004
745.50        61.74125
745.92        61.72897
746.34         61.7435
746.75         61.7452
747.17        61.69708
747.59        61.58364
748.01        61.40594
748.42        61.24118
748.84        61.19297
749.26        61.23823
749.68        61.41419
750.09        61.63128
750.51        61.41296
750.93        60.96663
751.35        61.29902
751.76         62.2539
752.18        62.59175
752.60        62.22813
753.01         61.8455
753.43        61.60876
753.85        61.51037
754.27        61.59785
754.68        61.84325
755.10        62.14987
755.52        62.36325
755.93        62.46443
756.35        62.53736
756.77         62.5435
757.18        62.54191
757.60        62.57965
758.02        62.25043
758.43         61.8059
758.85        62.49965
759.26        64.04613
759.68        64.37199
760.10        63.43507
760.51        62.87342
760.93        62.91214
761.34        62.58722
761.76        62.73198
762.18        62.60612
762.59         62.4852
763.01        62.55211
763.42        62.80274
763.84         62.8642
764.26        62.75653
764.67        62.53371
765.09        62.33492
765.50        62.50731
765.92        62.91967
766.33        62.73538
766.75        62.04052
767.16        61.92359
767.58        62.41766
768.00        62.91121
768.41        63.27371
768.83        63.55831
769.24        63.65626
769.66        63.42571
770.07        62.96008
770.49        62.46903
770.90        62.09869
771.32        62.18893
771.73        62.65782
772.15        62.94036
772.56        62.99598
772.97        63.12667
773.39        63.30733
773.80        63.41563
774.22        63.40748
774.63        63.34665
775.05        63.22889
775.46        63.10809
775.88        62.99021
776.29        62.88849
776.70        62.82015
777.12        62.82003
777.53        62.90861
777.95        63.05538
778.36        63.23029
778.77        63.34847
779.19        63.39816
779.60        63.41284
780.02        63.41058
780.43        63.45488
780.84        63.56888
781.26        63.62375
781.67        63.68964
782.09        64.00394
782.50        64.47242
782.91        64.67793
783.33         64.5666
783.74        64.46542
784.15        64.35527
784.57        64.04612
784.98        63.64967
785.39        63.45335
785.81        63.50786
786.22        63.73674
786.63        64.02736
787.04        64.18985
787.46        64.19166
787.87        64.06434
788.28        63.91689
788.70        63.89981
789.11         64.0226
789.52        64.23845
789.93        64.46378
790.35        64.55578
790.76        64.51144
791.17        64.39093
791.58        64.24384
792.00        64.15625
792.41        64.18295
792.82        64.18214
793.23        64.20964
793.65        64.57044
794.06        65.16342
794.47        65.43041
794.88        65.29233
795.29        65.11501
795.71         64.8661
796.12        64.31367
796.53        63.64454
796.94        63.41245
797.35        63.70694
797.76        64.28459
798.18        64.89443
798.59        65.27115
799.00        65.27852
799.41        64.96393
799.82        64.52216
800.23        64.29977
800.64        64.38374
801.06        64.63493
801.47        64.97917
801.88         65.1796
802.29        65.15936
802.70        64.99729
803.11         64.7802
803.52        64.63219
803.93        64.59655
804.34        64.63477
804.75         64.7041
805.17        64.72699
805.58        64.70374
805.99        64.66296
806.40        64.64507
806.81        64.65455
807.22        64.71598
807.63        64.92134
808.04         65.1972
808.45        65.28683
808.86        65.14309
809.27        64.88472
809.68        64.60753
810.09        64.43875
810.50        64.42889
810.91        64.54765
811.32        64.72499
811.73         64.8402
812.14        64.85591
812.55        64.80779
812.96        64.74576
813.37        64.75366
813.78        64.85488
814.19        65.01427
814.60        65.18495
815.01        65.30762
815.42        65.36819
815.83        65.38162
816.24        65.38287
816.65         65.4327
817.05        65.54782
817.46        65.67401
817.87        65.78561
818.28        65.79939
818.69        65.70112
819.10        65.51493
819.51        65.30622
819.92        65.19575
820.33        65.21502
820.74        65.31873
821.14        65.43744
821.55        65.48139
821.96        65.41752
822.37        65.29634
822.78        65.13556
823.19        64.96537
823.60         64.8189
824.00        64.70098
824.41        64.65359
824.82        64.82007
825.23        65.20583
825.64        65.75863
826.04         66.3577
826.45        66.70365
826.86         66.7449
827.27        66.55768
827.68        66.22877
828.08         65.9361
828.49        65.71476
828.90        65.54111
829.31        65.47064
829.72        65.58891
830.12        65.92251
830.53        66.40709
830.94        66.91006
831.35        67.14081
831.75        67.03475
832.16        66.61248
832.57        66.07307
832.97        65.72401
833.38        65.65007
833.79         65.7635
834.20        65.93566
834.60        65.95181
835.01        65.78116
835.42         65.5179
835.82        65.26099
836.23        65.11587
836.64        65.13781
837.04        65.29337
837.45        65.53026
837.86        65.87969
838.26        66.31844
838.67        66.78797
839.08         67.1705
839.48        67.25998
839.89        67.02068
840.29        66.49207
840.70        65.86726
841.11        65.38883
841.51        65.14917
841.92        65.10921
842.33        65.15709
842.73        65.09596
843.14        64.84592
843.54        64.49606
843.95        64.24758
844.35        64.44763
844.76        65.10437
845.17        66.10061
845.57        67.14282
845.98         67.5957
846.38        67.34185
846.79        66.57864
847.19        65.59307
847.60        64.85878
848.00        64.51035
848.41         64.3853
848.81        64.48985
849.22         64.7327
849.62        65.09624
850.03        65.57324
850.43        66.01003
850.84        66.01646
851.24         65.5679
851.65        64.74152
852.05        63.84629
852.46        63.40658
852.86        63.51372
853.27        64.00646
853.67        64.61666
854.07        65.15291
854.48        65.49698
854.88        65.79179
855.29        65.86874
855.69        65.63369
856.10        65.01276
856.50        64.11549
856.90        63.22565
857.31        62.79528
857.71        62.94802
858.12        63.54769
858.52        64.39977
858.92        64.94005
859.33        64.96634
859.73        64.65056
860.13        64.19083
860.54        63.94266
860.94        64.03941
861.34        64.34508
861.75        64.67436
862.15        64.82553
862.55        64.69035
862.96         64.3599
863.36        63.96984
863.76         63.7372
864.17        63.71375
864.57        63.86744
864.97         64.0305
865.38         63.9267
865.78        63.53875
866.18        62.91587
866.58        62.31278
866.99        62.16276
867.39        62.57148
867.79        63.37529
868.19        64.21061
868.60        64.49635
869.00        64.12239
869.40         63.2844
869.80        62.30787
870.21        61.76992
870.61        61.86571
871.01        62.35465
871.41        63.03008
871.81        63.59784
872.22        63.93643
872.62        64.19942
873.02        64.34297
873.42        64.27068
873.82        64.00658
874.22        63.57681
874.63        63.21139
875.03         63.2435
875.43        63.72436
875.83        64.52666
876.23        65.43125
876.63        66.03609
877.03        66.22155
877.44        66.15557
877.84        65.84974
878.24        65.36661
878.64        64.78172
879.04         64.0351
879.44        63.43167
879.84        63.42355
880.24        64.02926
880.64        65.15405
881.04        66.21201
881.44        66.14449
881.84        64.77416
882.24        62.53527
882.65        60.27768
883.05        59.11294
883.45         59.3085
883.85          60.524
884.25        62.26196
884.65        63.58972
885.05        64.13385
885.45        64.14442
885.85        63.85749
886.25        63.64903
886.65        63.63466
887.05        63.63314
887.45        63.58176
887.85         63.4289
888.25         63.1643
888.65        62.89076
889.04        62.59864
889.44        62.26008
889.84        61.89007
890.24        61.51819
890.64        61.27686
891.04        61.38938
891.44        61.87167
891.84         62.6087
892.24        63.42638
892.64        64.05552
893.04        64.42267
893.44         64.6241
893.83        64.69137
894.23        64.61009
894.63        64.45037
895.03        64.17091
895.43        63.97763
895.83        64.20066
896.23        64.86775
896.63         65.8942
897.02         66.8711
897.42        67.12041
897.82        66.52356
898.22        65.29563
898.62        63.95226
899.01        63.21949
899.41        63.26759
899.81        63.92589
900.21        64.76749
900.61        64.98974
901.00        64.38674
901.40        63.30882
901.80        62.31282
902.20        62.16054
902.59         63.0069
902.99        64.56779
903.39        66.39211
903.79        67.50412
904.18        67.52599
904.58        66.79406
904.98        65.76754
905.38        65.08253
905.77        64.89224
906.17        65.00625
906.57        65.28368
906.96        65.54192
907.36        65.66136
907.76        65.75912
908.15        65.83778
908.55        65.79394
908.95        65.64977
909.34        65.38401
909.74        65.10275
910.14        64.95315
910.53        64.96049
910.93        65.11428
911.33        65.30984
911.72        65.37961
912.12        65.28891
912.52        65.09626
912.91         64.9304
913.31        64.96717
913.70        65.26114
914.10        65.68637
914.49        66.15055
914.89        66.42362
915.29        66.45829
915.68         66.3419
916.08        66.10528
916.47        65.74677
916.87         65.3377
917.26        64.82838
917.66        64.42921
918.05        64.45235
918.45        64.90207
918.84        65.76028
919.24        66.58221
919.64         66.6675
920.03        65.87228
920.42        64.44112
920.82        62.99663
921.21         62.2848
921.61        62.45506
922.00        63.32555
922.40        64.46129
922.79        65.16337
923.19        65.15266
923.58        64.65824
923.98        64.06492
924.37        63.90537
924.77        64.30994
925.16        65.12343
925.55        66.02988
925.95        66.47014
926.34        66.31566
926.74        65.72939
927.13        65.03363
927.52        64.70287
927.92        64.84283
928.31        65.27845
928.70        65.78314
929.10        65.96721
929.49         65.7542
929.89        65.32364
930.28        64.83485
930.67        64.49096
931.07        64.36612
931.46        64.37467
931.85        64.60918
932.24        65.25475
932.64        66.25527
933.03        67.60284
933.42        68.85439
933.82        69.28433
934.21        68.76617
934.60         67.5016
934.99        66.04061
935.39        65.20709
935.78         65.1949
936.17        65.76445
936.56        66.56239
936.96        66.97573
937.35        66.85942
937.74        66.42024
938.13        65.79663
938.53        65.18839
938.92        64.69125
939.31        64.28381
939.70        64.09538
940.09        64.35737
940.49        65.02663
940.88        66.02256
941.27        67.15574
941.66        68.07789
942.05        68.60081
942.44        68.80363
942.84        68.49203
943.23        67.39262
943.62        65.66022
944.01         63.5531
944.40        61.70634
944.79         60.8923
945.18        61.20298
945.57         62.4734
945.97        64.18651
946.36        65.51675
946.75        65.97014
947.14        65.75748
947.53        65.29229
947.92        65.29855
948.31        65.94505
948.70        66.90027
949.09        67.88042
949.48        68.45107
949.87        68.46303
950.26        68.14845
950.65        67.50823
951.04        66.51849
951.43        65.29677
951.82        63.87744
952.21        62.68276
952.60        62.34119
952.99        62.93467
953.38        64.31108
953.77        65.87948
954.16        66.59831
954.55        66.16801
954.94        64.82913
955.33        63.21602
955.72         62.3973
956.11        62.66532
956.50        63.73963
956.89        65.01256
957.28        65.48689
957.66        64.93042
958.05         63.6523
958.44        62.31509
958.83        61.95926
959.22        62.81644
959.61         64.5228
960.00         66.3984
960.39        67.27345
960.78        66.80985
961.16        65.42117
961.55        63.65771
961.94        62.35814
962.33        61.80767
962.72        61.73735
963.11        62.04933
963.49        62.61545
963.88        63.27217
964.27        64.09958
964.66        64.87981
965.04        65.23113
965.43        65.02394
965.82        64.36478
966.21        63.51725
966.60         62.9684
966.98        62.88631
967.37        63.13298
967.76        63.59073
968.15        64.02414
968.53        64.35584
968.92        64.62391
969.31        64.84896
969.69        65.04375
970.08        65.17818
970.47        65.21638
970.86        65.18115
971.24        65.12939
971.63        65.09708
972.02        65.17495
972.40        65.33118
972.79        65.44623
973.17        65.57148
973.56        65.62273
973.95        65.91926
974.33        66.98121
974.72        68.79112
975.11         71.2678
975.49        73.78561
975.88        74.90433
976.26        74.19406
976.65        72.03483
977.04        69.33456
977.42        67.32716
977.81        66.33826
978.19         65.9881
978.58        65.98193
978.96        65.66523
979.35        64.89321
979.74        63.86958
980.12        62.87173
980.51          62.205
980.89        62.05477
981.28        62.30822
981.66        62.73923
982.05        62.92123
982.43        62.75933
982.82        62.32048
983.20        62.05597
983.59        62.65975
983.97        64.32685
984.35        66.89317
984.74         69.4388
985.12        70.54266
985.51        69.65233
985.89        67.31541
986.28         64.7407
986.66        63.33944
987.04        63.50418
987.43        64.72971
987.81        66.45921
988.20        67.46084
988.58        67.34797
988.96        66.56863
989.35        65.31228
989.73        63.98829
990.12        62.78323
990.50        61.52284
990.88        60.61588
991.27         60.6965
991.65        61.85448
992.03        64.11504
992.42        66.55202
992.80        67.50027
993.18        66.24626
993.56        63.47981
993.95        60.74262
994.33        59.57637
994.71        60.36322
995.10        62.61309
995.48        65.66118
995.86        67.52153
996.24        67.34907
996.63        65.84406
997.01        64.02667
997.39        63.26409
997.77        63.87113
998.15        65.30762
998.54        67.21185
998.92        68.97476
999.30        70.26442
999.68        71.38303
1000.06        71.94958
1000.45        71.26689
1000.83        69.53107
1001.21         66.9039
1001.59        64.51004
1001.97        63.90516
1002.35        65.30412
1002.73        68.35443
1003.12        71.97125
1003.50        74.12978
1003.88        74.07642
1004.26        72.40963
1004.64        70.13082
1005.02         68.9128
1005.40        69.17715
1005.78        70.24342
1006.16        71.60749
1006.54         72.4529
1006.92        72.44757
1007.30        72.03613
1007.69        70.87273
1008.07        68.50492
1008.45        65.30949
1008.83        61.73286
1009.21        59.01616
1009.59        58.46441
1009.97        60.11957
1010.35        63.85806
1010.73        68.56909
1011.11        71.36597
1011.49        70.87148
1011.86          67.479
1012.24        63.41798
1012.62         62.1961
1013.00        64.85902
1013.38        71.06467
1013.76         78.5364
1014.14        81.11514
1014.52        77.03413
1014.90        69.58578
1015.28        62.85194
1015.66        60.35522
1016.04        62.29274
1016.41        68.01372
1016.79        76.11156
1017.17        82.98179
1017.55        85.81226
1017.93        84.93214
1018.31         81.1216
1018.69        76.91766
1019.06        73.74828
1019.44        71.49731
1019.82        69.70078
1020.20        67.76456
1020.58        65.43521
1020.95        62.87377
1021.33         60.5695
1021.71        59.93751
1022.09        61.47554
1022.46        64.32908
1022.84        67.46996
1023.22        69.50689
1023.60         70.1524
1023.97        69.87503
1024.35        67.92858
1024.73         64.2462
