SpectraSmart Spectrum 2.9.0.0
--------- Device Information -----------
Spectrum Name :  反射率_0
Saving Time :  2024/05/03 20:10:26
Spectro-Module Model Name : SE2030-DUVN
Spectro-Module Serial Number : OS361AC55029948
Wavelength Start : 200
Wavelength End : 1025
Wavelength Unit : Wavelength(nm)
Spectrum Unit : Reflectance(%)
-----------Spectrum Setting ------------
Integration Time : 20ms
Average : 10
Boxcar : 0
Background removal :  enabled
linearity correction :  enabled
SC :  disabled
Intensity correction :  disabled
DWT denoise :  enabled
savitzky-golay :  disabled
FFT :  disabled
Running average :  disabled
Kalman :  disabled
High pass :  disabled
---------------BEGIN--------------------
Wavelength(nm)             Reflectance(%)
200.29               0
200.75        32.18832
201.21        69.76163
201.67       -2124.349
202.13       -60.22159
202.58       -20.63805
203.04      -0.8645086
203.50        11.84239
203.96        18.62664
204.42        20.91222
204.88        15.81323
205.34         265.739
205.80        44.17999
206.26        28.82001
206.72       -4734.328
207.18        55.04252
207.64        39.31576
208.10        18.33662
208.55       -42.32284
209.01       -642.5246
209.47       -996.8569
209.93       -106.5709
210.39       -14.14189
210.85        12.58721
211.31        24.12405
211.77        32.35812
212.23        44.75643
212.69        69.72563
213.14        77.60016
213.60         36.0653
214.06        13.09954
214.52        3.971954
214.98       -1.376911
215.44       -8.209174
215.90       -28.59187
216.36        212.8759
216.81         29.7576
217.27         6.30038
217.73       -33.98989
218.19       -245.2068
218.65       -6128.432
219.11       -465.2459
219.57        -114.337
220.02       -55.11683
220.48       -94.06878
220.94        134.7876
221.40        51.88272
221.86        39.58292
222.32        35.34407
222.77        33.07375
223.23        31.91046
223.69        30.72662
224.15        27.77332
224.61        24.45279
225.06        22.18675
225.52         22.4967
225.98        26.37932
226.44        34.01804
226.90        45.94968
227.36        60.49671
227.81        69.01862
228.27        66.47625
228.73        57.71143
229.19        48.00972
229.65        41.42289
230.10        37.89936
230.56        36.01828
231.02        35.43656
231.48        36.09602
231.93        37.59036
232.39        39.95794
232.85        42.18784
233.31        42.79375
233.77        41.62676
234.22        39.03433
234.68        36.34277
235.14        35.87182
235.60        38.28532
236.05        43.18482
236.51        49.00557
236.97        52.34503
237.43        51.95085
237.88         49.0857
238.34        45.70904
238.80        44.10414
239.26         44.9726
239.71         50.3834
240.17        58.63848
240.63        70.22313
241.08        78.09255
241.54        78.66091
242.00        75.24249
242.46        74.54908
242.91        78.97062
243.37        88.18239
243.83        104.4072
244.28        121.6246
244.74        121.8766
245.20        107.0322
245.66        87.42612
246.11        70.49809
246.57        58.25814
247.03        48.98652
247.48        42.91987
247.94        39.92427
248.40        39.33278
248.85        40.35411
249.31        43.35445
249.77        47.47266
250.22        51.23667
250.68        54.58635
251.14        57.14894
251.59        59.38157
252.05        61.99541
252.51        65.13457
252.96        70.31988
253.42        78.83591
253.88          88.301
254.33        95.53371
254.79        97.18829
255.25        91.95355
255.70        84.03637
256.16        77.23096
256.62        73.03955
257.07        72.37938
257.53        74.53288
257.99         77.6782
258.44        79.99158
258.90         80.1532
259.35        77.92511
259.81        74.98415
260.27        71.98208
260.72         69.6014
261.18        68.28049
261.63        67.30299
262.09        66.68867
262.55        65.99095
263.00        65.03643
263.46        64.03793
263.91        62.97456
264.37        62.18416
264.83         61.6084
265.28        61.10274
265.74        60.53332
266.19        59.41743
266.65        57.88379
267.11        56.03805
267.56        54.19243
268.02         52.8899
268.47        52.13281
268.93        51.76387
269.38        51.47529
269.84        50.77012
270.30        49.57947
270.75        48.10949
271.21        46.66993
271.66        45.56163
272.12        44.84901
272.57        44.33929
273.03        43.93086
273.48         43.5029
273.94        43.01801
274.39        42.53043
274.85         41.9565
275.31        41.05433
275.76        39.83593
276.22        38.46817
276.67        37.22128
277.13        36.59665
277.58        36.53904
278.04        36.89529
278.49        37.24851
278.95         37.0169
279.40        36.07357
279.86        34.76725
280.31        33.37885
280.77        32.38685
281.22        31.78499
281.68        31.46345
282.13        31.25739
282.59        31.02098
283.04        30.68057
283.50         30.3247
283.95        29.97081
284.41        29.67142
284.86        29.42206
285.32        29.23759
285.77          29.075
286.22        28.94506
286.68         28.8609
287.13        28.78679
287.59        28.78653
288.04        28.89281
288.50        29.11744
288.95        29.40484
289.41        29.67844
289.86        29.76584
290.32        29.67279
290.77         29.4522
291.22        29.23515
291.68        29.19483
292.13        29.37629
292.59        29.77784
293.04        30.35702
293.50        31.04693
293.95        31.80645
294.40        32.64979
294.86         33.6291
295.31         34.8242
295.77         36.2504
296.22         37.8571
296.68        39.52034
297.13        41.02472
297.58         42.2811
298.04        43.36404
298.49        44.34784
298.95        45.42458
299.40        46.64111
299.85        47.97247
300.31        49.44204
300.76        51.03742
301.21         52.7526
301.67         54.5974
302.12        56.46966
302.58        58.23837
303.03        59.83026
303.48        61.28341
303.94        62.71833
304.39        64.24046
304.84        65.92908
305.30        67.74435
305.75        69.59203
306.20        71.37006
306.66        73.05109
307.11        74.61463
307.57        76.10935
308.02        77.47584
308.47        78.77132
308.93        80.01594
309.38        81.23154
309.83        82.55271
310.29        83.99324
310.74        85.48267
311.19        86.93638
311.65        88.19788
312.10        89.19191
312.55         89.9612
313.00         90.5412
313.46        91.00722
313.91        91.38373
314.36        91.71121
314.82        92.05015
315.27        92.46178
315.72         92.9814
316.18        93.59782
316.63        94.31056
317.08        95.12675
317.53        96.02145
317.99        96.96168
318.44        97.86028
318.89        98.51946
319.35        98.88785
319.80          99.008
320.25        99.00655
320.70         99.1195
321.16        99.39487
321.61        99.79639
322.06        100.2071
322.51        100.4311
322.97        100.4173
323.42        100.2742
323.87        100.0961
324.32        100.0422
324.78        100.1533
325.23        100.4129
325.68        100.7735
326.13        101.1759
326.59        101.5577
327.04        101.9797
327.49        102.4043
327.94        102.8076
328.39        103.1745
328.85        103.4586
329.30        103.7116
329.75        103.8895
330.20        103.9978
330.66        104.0262
331.11        104.0702
331.56        104.1617
332.01        104.3316
332.46        104.5861
332.92        104.8815
333.37        105.2603
333.82        105.6763
334.27        106.1255
334.72        106.6144
335.17        107.1571
335.63         107.708
336.08        108.2952
336.53         108.823
336.98           109.2
337.43        109.4112
337.88        109.4962
338.34         109.517
338.79        109.6009
339.24        109.7924
339.69        110.0907
340.14        110.4917
340.59        110.9774
341.05        111.5243
341.50        112.1272
341.95        112.7793
342.40         113.486
342.85        114.2176
343.30        114.9434
343.75        115.5569
344.20        115.9002
344.66        115.9815
345.11        115.8613
345.56        115.6936
346.01        115.7084
346.46        115.9726
346.91        116.4124
347.36        116.9916
347.81        117.6417
348.26         118.309
348.72        119.0129
349.17        119.6241
349.62         119.965
350.07        120.0115
350.52        119.8041
350.97        119.5113
351.42        119.4235
351.87        119.5906
352.32        119.9005
352.77        120.2013
353.22        120.2447
353.67         119.971
354.13        119.5219
354.58        118.9071
355.03        118.2061
355.48        117.4954
355.93         116.787
356.38        116.2181
356.83        116.0066
357.28        116.1608
357.73        116.5713
358.18        117.0599
358.63        117.3302
359.08        117.2689
359.53        116.9436
359.98         116.341
360.43        115.4667
360.88        114.3735
361.33        113.0747
361.78         111.768
362.23        110.7514
362.68          110.09
363.13        109.7395
363.58        109.4801
364.03         108.941
364.48        108.0435
364.93        106.8902
365.38        105.7372
365.83        104.9782
366.28        104.6828
366.73        104.7153
367.18        104.7764
367.63        104.3971
368.08        103.4733
368.53        102.1617
368.98        100.7783
369.43        99.79028
369.88        99.30547
370.33         99.1933
370.78        99.18205
371.23        98.82224
371.68        98.00571
372.13        96.88603
372.58        95.75598
373.03        95.04693
373.48        94.83814
373.93        94.96946
374.38        95.15493
374.83        94.93947
375.28        94.20724
375.72        93.09164
376.17        91.90469
376.62        90.95449
377.07        90.32014
377.52        89.89771
377.97        89.56023
378.42        89.12292
378.87        88.54456
379.32        87.90176
379.77        87.29833
380.22        86.85513
380.67        86.58348
381.11        86.45567
381.56        86.31274
382.01        85.97867
382.46        85.42614
382.91        84.71967
383.36        84.03725
383.81        83.63178
384.26        83.53355
384.71        83.65671
385.15        83.78853
385.60         83.6203
386.05        83.07909
386.50        82.27636
386.95          81.421
387.40        80.82593
387.85        80.56204
388.29        80.48979
388.74         80.5201
389.19        80.34821
389.64        79.91401
390.09        79.30618
390.54        78.68867
390.98        78.24223
391.43        78.05527
391.88        78.18591
392.33        78.45406
392.78         78.2245
393.23        77.65912
393.67        77.61438
394.12        78.03633
394.57        78.03686
395.02        77.57723
395.47        77.09166
395.91        76.70319
396.36        76.39615
396.81         76.2508
397.26        76.29223
397.71        76.34592
398.15        76.21939
398.60        75.98602
399.05        75.33633
399.50        74.57076
399.95        74.83821
400.39         75.8763
400.84        75.77053
401.29        74.61794
401.74        74.14649
402.18        74.41333
402.63         74.3917
403.08        74.12705
403.53        73.60563
403.97        73.87532
404.42        73.88646
404.87        73.91527
405.32        73.86427
405.76        73.69386
406.21        73.61896
406.66        73.58356
407.11        73.13306
407.55        72.48382
408.00        72.52864
408.45        73.14227
408.90        73.30729
409.34        72.86936
409.79        72.20175
410.24        71.55831
410.68        71.25269
411.13        71.35609
411.58        71.70972
412.03        72.07419
412.47        72.11255
412.92          71.716
413.37        71.01235
413.81        70.29478
414.26        70.06479
414.71         70.3676
415.15        71.09982
415.60         71.9066
416.05        72.24656
416.49        71.96301
416.94        71.25467
417.39        70.46622
417.83        70.09129
418.28        70.24876
418.73        70.76141
419.17        71.41443
419.62        71.79427
420.07        71.77211
420.51        71.46238
420.96        71.02496
421.41        70.57308
421.85        70.14104
422.30        69.87762
422.74        69.69794
423.19        69.36708
423.64        68.96986
424.08        69.10229
424.53        69.66813
424.98        70.03214
425.42        70.12167
425.87        70.30616
426.31        70.60548
426.76         70.6488
427.21         70.5486
427.65        70.84305
428.10        71.34962
428.54        71.46902
428.99        71.23714
429.44        70.72121
429.88        70.12183
430.33        70.33572
430.77        71.03352
431.22        70.85113
431.66        69.91253
432.11        69.79169
432.56        70.43356
433.00        70.63156
433.45        70.28728
433.89        70.74479
434.34        68.82764
434.78        71.50294
435.23        71.24989
435.67        69.93902
436.12        69.17711
436.57         69.1946
437.01        70.70881
437.46        71.23679
437.90        70.73227
438.35        70.39314
438.79        70.56878
439.24        70.47255
439.68        70.19251
440.13        70.18223
440.57        70.42953
441.02        70.21992
441.46        69.64838
441.91        70.16547
442.35        71.25269
442.80        70.73933
443.24        69.07134
443.69          69.134
444.13        70.65501
444.58        71.48786
445.02        70.52204
445.47         70.0568
445.91        69.97773
446.36         69.9946
446.80        70.12103
447.24        70.44762
447.69        70.83551
448.13        71.03727
448.58        71.01026
449.02        70.79115
449.47        70.50822
449.91        70.32853
450.36        70.31783
450.80        70.39182
451.25        70.50025
451.69        70.53624
452.13         70.4753
452.58        70.35372
453.02        70.19897
453.47        70.08173
453.91         70.0154
454.36        69.98383
454.80        69.92472
455.24        69.86274
455.69        69.82595
456.13        69.57343
456.58        69.17755
457.02        69.56474
457.46        69.61718
457.91        69.53893
458.35        69.05622
458.79        68.98178
459.24        69.22038
459.68        68.96458
460.13        68.36739
460.57        68.04251
461.01        68.05654
461.46        68.07673
461.90        68.02184
462.34        67.93958
462.79        67.32507
463.23        67.14362
463.68        67.23925
464.12        67.24201
464.56        67.12712
465.01        67.17839
465.45        67.31664
465.89        67.36735
466.34        67.33846
466.78        67.42091
467.22         67.5789
467.67        67.31635
468.11        66.78663
468.55        66.66708
468.99        66.93451
469.44        66.95048
469.88        66.70649
470.32        66.58625
470.77        66.59771
471.21        66.58797
471.65        66.52332
472.10        66.42833
472.54        66.33768
472.98        66.24315
473.42        66.12492
473.87        66.26809
474.31        66.46872
474.75        65.83608
475.20        64.70055
475.64        64.57467
476.08        65.33923
476.52        65.52161
476.97        65.04049
477.41        64.93174
477.85        64.94559
478.29        65.05833
478.74        65.27441
479.18        65.69376
479.62        65.42557
480.06        65.40225
480.50        65.24318
480.95        65.38563
481.39        65.92564
481.83        64.51208
482.27        64.80141
482.72        65.45304
483.16        64.71693
483.60        64.87025
484.04        65.19396
484.48        65.03343
484.93        64.33666
485.37        65.87659
485.81        66.19446
486.25        65.79016
486.69        67.75574
487.14        67.65996
487.58        64.44493
488.02        65.18069
488.46        65.60769
488.90        63.90266
489.34         64.6506
489.79        65.22528
490.23         65.2229
490.67        65.45873
491.11        65.37514
491.55        65.23109
491.99        65.02565
492.43        64.82362
492.88        64.66735
493.32        64.60915
493.76        64.63177
494.20        64.61568
494.64        64.52975
495.08        64.56717
495.52        64.70074
495.96         64.4642
496.41        64.02303
496.85        64.33091
497.29        65.16879
497.73        65.27417
498.17        64.66467
498.61        64.31116
499.05         64.3356
499.49          64.338
499.93        64.27205
500.37         64.2568
500.82        64.29341
501.26        63.99297
501.70        64.02164
502.14        64.05602
502.58        63.74555
503.02        63.71929
503.46        63.81592
503.90        63.99387
504.34        64.15128
504.78        64.15759
505.22        63.98202
505.66        63.67998
506.10        63.36001
506.54        63.22651
506.98        63.32409
507.42        63.74714
507.86        63.55651
508.30        64.40791
508.74        63.77982
509.18        63.57714
509.62        63.26001
510.06        63.11245
510.50        63.17903
510.94        63.39558
511.38        63.66807
511.82        63.78183
512.26        63.68988
512.70        63.46864
513.14        63.19293
513.58        62.97531
514.02        62.85221
514.46         62.7786
514.90        62.75156
515.34        62.76945
515.78        62.82262
516.22        62.92773
516.66        63.02792
517.10        63.02588
517.54         62.9108
517.98        62.70397
518.42        62.51036
518.86        62.50339
519.30        62.71012
519.74        63.07008
520.18        63.44948
520.62        63.62898
521.06        63.55378
521.50         63.2957
521.93        62.96018
522.37        62.73141
522.81        62.65703
523.25        62.68118
523.69        62.75687
524.13        62.80882
524.57         62.8138
525.01        62.81054
525.45        62.80014
525.89        62.77739
526.32        62.74219
526.76        62.69059
527.20        62.65762
527.64        62.71075
528.08        62.85486
528.52        63.06995
528.96        63.27415
529.40        63.33773
529.83        63.22605
530.27        62.99054
530.71         62.7272
531.15        62.59418
531.59        62.62786
532.03        62.79121
532.46        62.97972
532.90        63.02477
533.34        62.90095
533.78        62.68032
534.22        62.47571
534.66        62.45255
535.09        62.62196
535.53        62.91041
535.97        63.23166
536.41        63.40425
536.85         63.3698
537.28        63.36029
537.72        63.33123
538.16        62.82143
538.60         62.0635
539.04        61.93624
539.47        62.37435
539.91        62.57196
540.35        62.48616
540.79        62.61337
541.22        62.88445
541.66         62.9912
542.10        62.91224
542.54        62.64114
542.97        62.30671
543.41        62.35418
543.85        62.70888
544.29        62.83797
544.72        62.69198
545.16        62.63286
545.60        62.63919
546.04        62.50451
546.47        62.26552
546.91        62.10104
547.35        62.03776
547.79        62.04494
548.22        62.10535
548.66         62.1981
549.10        62.31551
549.53        62.57354
549.97        62.88858
550.41         63.0195
550.84        62.92219
551.28        62.73133
551.72        62.50933
552.15        62.25915
552.59        62.03625
553.03        62.05206
553.46        61.87707
553.90         61.9161
554.34        62.00793
554.77        62.07543
555.21        62.11844
555.65        62.22048
556.08         62.3574
556.52        62.43618
556.96        62.43608
557.39        62.43174
557.83        62.44361
558.27        62.35081
558.70        62.19955
559.14        62.23277
559.57        62.39384
560.01        62.40477
560.45        62.26793
560.88        62.21474
561.32        62.26566
561.75        62.24359
562.19        62.20939
562.63        62.14641
563.06        62.08448
563.50        62.39043
563.93        62.88361
564.37        62.69258
564.80        61.98167
565.24        61.92938
565.68        62.43242
566.11        62.57662
566.55        62.36425
566.98         62.1479
567.42          62.029
567.85        62.38364
568.29        62.68556
568.72        62.73249
569.16        62.49119
569.60        62.49495
570.03        62.56022
570.47        62.70555
570.90        62.79121
571.34         62.4704
571.77        63.43405
572.21        62.94117
572.64        63.18415
573.08        63.13103
573.51        63.31619
573.95        63.16085
574.38        63.04207
574.82        62.15998
575.25        63.69188
575.69          63.758
576.12        63.55871
576.56        62.51477
576.99        62.84805
577.42        63.99256
577.86        63.41462
578.29        63.52438
578.73        63.63912
579.16        63.63715
579.60        63.45921
580.03         63.3725
580.47        63.34765
580.90         63.2484
581.33        62.92886
581.77        63.17314
582.20        64.51285
582.64        64.11294
583.07        64.16193
583.51        63.45916
583.94        62.92416
584.37        62.68343
584.81        62.97484
585.24        63.00718
585.68        63.68252
586.11        63.46801
586.54        63.54383
586.98        62.63619
587.41        62.34607
587.85        63.20534
588.28        63.64137
588.71        63.01654
589.15        62.67258
589.58        63.37176
590.01        62.47503
590.45        62.10998
590.88        62.68532
591.31         62.9307
591.75         63.0427
592.18        62.84031
592.61        62.23985
593.05        62.48192
593.48        63.38881
593.91         63.7105
594.35        63.68423
594.78        63.07473
595.21        63.00428
595.65        62.78326
596.08        62.57338
596.51        63.45075
596.94        62.93147
597.38        62.85912
597.81        62.42949
598.24        62.97217
598.68        62.70457
599.11        61.72531
599.54        63.62456
599.97        62.89405
600.41        63.01637
600.84         62.7985
601.27          62.933
601.70        62.85488
602.14        62.72161
602.57        62.67332
603.00        62.68699
603.43        62.75386
603.87        62.71909
604.30        62.70002
604.73        62.58843
605.16        62.88415
605.60        62.11996
606.03        62.22075
606.46         62.6199
606.89        62.46486
607.32        62.47489
607.76        61.90776
608.19        62.39613
608.62        62.54377
609.05        62.64102
609.48        62.57327
609.92        62.60985
610.35        62.05041
610.78        63.38479
611.21        63.88376
611.64        63.18694
612.07        62.95942
612.50        62.98317
612.94        62.79716
613.37        62.40445
613.80        62.61185
614.23        62.36726
614.66        62.44192
615.09        62.51265
615.52        62.55458
615.96        62.53773
616.39         62.5881
616.82        62.68317
617.25        62.38099
617.68        62.88363
618.11        62.40726
618.54        61.58394
618.97        61.38519
619.40        61.83118
619.84         62.1457
620.27        62.20498
620.70        62.40203
621.13        62.68335
621.56        62.33417
621.99         61.7355
622.42         61.9255
622.85         62.2114
623.28        62.17735
623.71        61.61673
624.14        61.87913
624.57        61.53965
625.00        61.43285
625.43        62.01513
625.86        62.06961
626.29         61.7648
626.72         62.3214
627.15        61.99344
627.58        61.99662
628.01        61.81976
628.44        61.70028
628.87        61.66159
629.30        61.50239
629.73        61.55423
630.16        61.52046
630.59         61.4944
631.02        61.47762
631.45        61.49139
631.88         61.5588
632.31        61.67239
632.74        61.81724
633.17        61.93963
633.60        61.95536
634.03        61.85014
634.46        61.65776
634.89        61.43391
635.32        61.26865
635.75        61.19167
636.18        61.17627
636.61        61.21027
637.04        61.27571
637.47        61.36069
637.89        61.45805
638.32        61.51218
638.75        61.52948
639.18        61.51625
639.61        61.22779
640.04        61.16769
640.47         61.0401
640.90        61.00542
641.33        61.03338
641.76        61.11667
642.18        61.24002
642.61        61.36141
643.04        61.49163
643.47        61.60579
643.90        61.66283
644.33         61.6519
644.76        61.59218
645.18        61.51415
645.61        61.38915
646.04        61.22689
646.47        61.17789
646.90        61.30701
647.33        60.98371
647.75        61.36117
648.18        61.48265
648.61        61.66881
649.04        61.82914
649.47        61.95248
649.89        62.11507
650.32        62.22594
650.75         62.1127
651.18        61.84335
651.61         61.6303
652.03        61.58501
652.46        61.74488
652.89        61.91576
653.32        61.91418
653.74        61.99977
654.17        61.06682
654.60        60.95975
655.03        62.06643
655.46        61.59232
655.88         61.3924
656.31        64.07951
656.74        69.43362
657.16        66.49092
657.59        62.92286
658.02        62.91087
658.45        62.73909
658.87        63.32474
659.30        62.08921
659.73        61.56977
660.15         61.7812
660.58        61.45957
661.01        61.42122
661.44        61.06325
661.86        60.88869
662.29        60.85926
662.72        60.89604
663.14        60.99443
663.57        60.93575
664.00          60.807
664.42        60.98754
664.85        61.42843
665.27        61.64066
665.70        61.57468
666.13        61.54955
666.55        61.56746
666.98        61.41521
667.41        61.16531
667.83        61.03023
668.26        61.03896
668.69        61.15918
669.11         61.2992
669.54         61.2925
669.96        61.10859
670.39        60.83068
670.82        60.61348
671.24        60.58654
671.67        60.81063
672.09        61.43613
672.52        62.24798
672.94         62.3246
673.37         62.3058
673.80        61.76856
674.22        61.17157
674.65        60.87021
675.07        60.97666
675.50         61.3443
675.92        61.81096
676.35        62.09529
676.77        62.11989
677.20        61.97329
677.62        61.75544
678.05        61.62544
678.47        61.62669
678.90        61.70306
679.32        61.79803
679.75        61.88386
680.17        61.94779
680.60         61.9304
681.02        61.83635
681.45        62.05404
681.87        61.94446
682.30        62.01006
682.72        62.04615
683.15        62.04332
683.57         62.0035
684.00        61.93979
684.42        61.87315
684.85        61.83887
685.27        61.84224
685.70        61.80528
686.12        61.71422
686.54        61.80256
686.97        61.99718
687.39        61.82573
687.82        61.30095
688.24        61.25845
688.66        61.35722
689.09        60.94538
689.51        61.17022
689.94        61.18211
690.36        61.37498
690.78        61.55604
691.21        61.61386
691.63         62.1821
692.06        61.66725
692.48        61.83507
692.90        62.16708
693.33        62.29368
693.75        62.20124
694.17        62.07696
694.60        61.95632
695.02        62.18181
695.44        61.92735
695.87        62.18167
696.29        62.57849
696.71        62.61516
697.14        62.28882
697.56        61.99247
697.98        61.83935
698.41        61.74688
698.83         61.7192
699.25         61.8587
699.68        62.06186
700.10        62.17706
700.52         62.1443
700.94          62.013
701.37        61.85563
701.79        61.81465
702.21        61.90645
702.64        62.08073
703.06        62.25856
703.48        62.32359
703.90        62.25327
704.33        62.09497
704.75        61.90927
705.17        61.77788
705.59        61.73284
706.01        61.74282
706.44        61.80962
706.86        61.95864
707.28        62.15791
707.70        62.41056
708.12        62.65532
708.55        62.75824
708.97        62.70974
709.39        62.61244
709.81        62.51237
710.23        62.44251
710.66         62.4323
711.08        62.50429
711.50        62.62515
711.92        62.74149
712.34        62.83632
712.76        62.92521
713.19        62.97983
713.61        63.00754
714.03         62.9823
714.45        62.89996
714.87        62.79262
715.29        62.71195
715.71        62.66738
716.13        62.65331
716.56        62.61561
716.98        62.52643
717.40        62.36277
717.82        62.15318
718.24        61.96615
718.66        61.90892
719.08        61.99815
719.50        62.18787
719.92        62.41486
720.34        62.57682
720.76        62.64474
721.19        62.64378
721.61        62.59276
722.03        62.52262
722.45        62.48139
722.87        62.31347
723.29        62.07203
723.71        62.26672
724.13        62.91461
724.55        62.50988
724.97        62.95199
725.39        62.90847
725.81        62.94938
726.23        62.86092
726.65        62.71334
727.07        62.67419
727.49        62.75232
727.91        62.91497
728.33        63.11754
728.75        63.28589
729.17        63.39041
729.59        63.45375
730.01        63.48745
730.43        63.50666
730.85         63.5198
731.27        63.51859
731.69        63.50524
732.10        63.49283
732.52        63.48049
732.94        63.46826
733.36        63.45502
733.78         63.4314
734.20        63.40447
734.62        63.39642
735.04         63.3956
735.46         63.3789
735.88        63.33069
736.30        63.24296
736.72        63.18256
737.13        63.18488
737.55        63.20454
737.97        63.52369
738.39        63.97217
738.81        63.58857
739.23        62.64219
739.65        62.79181
740.06        63.83968
740.48        64.14639
740.90        63.63156
741.32        63.22673
741.74        63.09116
742.16        63.04872
742.57        63.15355
742.99        63.42672
743.41         63.7853
743.83        64.07927
744.25        64.25718
744.67        64.33678
745.08         64.3538
745.50        64.33598
745.92        64.31612
746.34        64.27339
746.75        64.19669
747.17        64.09335
747.59        63.96487
748.01        63.80753
748.42        63.65781
748.84        63.58434
749.26        63.56062
749.68        63.54834
750.09        63.54616
750.51        63.42182
750.93        63.29918
751.35        63.69934
751.76        64.45512
752.18          64.699
752.60        64.35926
753.01        63.88288
753.43        63.46785
753.85        63.28511
754.27        63.40072
754.68         63.7289
755.10        64.14442
755.52        64.45155
755.93         64.6107
756.35        64.71603
756.77        64.72278
757.18        64.69478
757.60        64.70056
758.02         64.2938
758.43        63.73521
758.85        64.47508
759.26        66.17233
759.68        66.29122
760.10        64.93291
760.51        64.60865
760.93        64.97588
761.34        65.24374
761.76        65.18407
762.18        64.84958
762.59        64.40224
763.01        64.50031
763.42         65.1144
763.84        65.24889
764.26        64.89681
764.67        64.58718
765.09         64.4655
765.50        64.54845
765.92         64.7713
766.33        64.65375
766.75         64.2287
767.16        64.23183
767.58        64.66098
768.00        65.03333
768.41        65.28691
768.83        65.65695
769.24        65.98746
769.66        65.77715
770.07        65.14175
770.49        64.64253
770.90        64.41116
771.32        64.50953
771.73        64.87309
772.15        65.14071
772.56        65.28363
772.97         65.5155
773.39        65.77637
773.80        65.91988
774.22        65.88767
774.63        65.75654
775.05        65.55278
775.46        65.37932
775.88        65.25466
776.29        65.17783
776.70        65.14724
777.12        65.16393
777.53        65.23883
777.95        65.35567
778.36        65.48419
778.77        65.53667
779.19        65.50229
779.60        65.41174
780.02        65.30877
780.43        65.28124
780.84        65.36633
781.26        65.47131
781.67        65.61243
782.09        65.87514
782.50        66.23991
782.91        66.26978
783.33        66.53022
783.74        66.57104
784.15        66.53388
784.57        66.38676
784.98        66.19289
785.39        66.05904
785.81         66.0137
786.22        66.04305
786.63        66.10999
787.04          66.147
787.46        66.15495
787.87        66.12524
788.28        66.11401
788.70        66.18981
789.11        66.33869
789.52        66.54253
789.93        66.73751
790.35        66.81162
790.76        66.76946
791.17        66.65218
791.58        66.51011
792.00        66.41278
792.41        66.40906
792.82        66.43354
793.23        66.51831
793.65        66.76042
794.06         67.1349
794.47        67.46848
794.88        67.61965
795.29        67.56913
795.71        67.27146
796.12        66.68005
796.53        66.00831
796.94        65.81853
797.35        66.17856
797.76        66.71015
798.18        67.18182
798.59        67.50114
799.00        67.54807
799.41        67.28305
799.82        66.86758
800.23        66.63768
800.64        66.67088
801.06        66.82306
801.47        67.07529
801.88        67.28276
802.29        67.38657
802.70        67.44108
803.11        67.43787
803.52        67.34504
803.93        67.16842
804.34        66.91478
804.75        66.65791
805.17        66.48483
805.58        66.44168
805.99          66.602
806.40        66.89328
806.81         66.8873
807.22        66.67707
807.63        66.95347
808.04        67.60286
808.45        67.79165
808.86        67.43655
809.27        66.99076
809.68        66.61897
810.09        66.41235
810.50        66.44269
810.91        66.68624
811.32        67.02468
811.73        67.25207
812.14        67.30061
812.55        67.22382
812.96        67.07363
813.37        66.94767
813.78        66.88924
814.19        66.86637
814.60        66.87108
815.01        66.89927
815.42        66.94843
815.83        67.02807
816.24        67.14661
816.65        67.30387
817.05        67.48836
817.46        67.64966
817.87        67.78109
818.28        67.83545
818.69        67.80431
819.10        67.69509
819.51        67.54189
819.92        67.41413
820.33        67.33626
820.74         67.2917
821.14        67.25332
821.55        67.19106
821.96        67.08804
822.37        66.97633
822.78        66.86433
823.19         66.7622
823.60        66.68789
824.00        66.65305
824.41        66.67223
824.82        66.84492
825.23        67.17377
825.64        67.62061
826.04        68.11073
826.45        68.42687
826.86        68.53827
827.27        68.48775
827.68         68.3336
828.08        68.20376
828.49         68.1061
828.90        68.03373
829.31         68.0051
829.72        68.04739
830.12        68.18625
830.53        68.36681
830.94        68.55311
831.35        68.62741
831.75        68.57201
832.16        68.36569
832.57        68.09353
832.97        67.86761
833.38        67.72574
833.79        67.64521
834.20        67.58815
834.60        67.48185
835.01        67.33401
835.42        67.18564
835.82        67.09107
836.23        67.08839
836.64        67.20447
837.04        67.42709
837.45        67.69929
837.86        68.04581
838.26        68.44468
838.67        68.83015
839.08        69.10116
839.48        69.08407
839.89        68.75629
840.29        68.16141
840.70        67.48682
841.11        66.95584
841.51        66.66373
841.92        66.58637
842.33        66.62821
842.73        66.62088
843.14        66.48029
843.54        66.26199
843.95        66.16314
844.35        66.52976
844.76         67.3615
845.17        68.55779
845.57        69.74222
845.98        70.13454
846.38        69.60918
846.79        68.41027
847.19         67.0298
847.60        66.25222
848.00        66.25887
848.41        66.79367
848.81        67.62019
849.22        68.22984
849.62        68.48928
850.03        68.49837
850.43        68.32551
850.84         67.9646
851.24        67.51645
851.65        66.94564
852.05        66.40299
852.46        66.14619
852.86         66.1914
853.27        66.48608
853.67        66.86684
854.07        67.27655
854.48        67.62193
854.88        67.99368
855.29        68.16496
855.69        67.95123
856.10        67.24224
856.50        66.19292
856.90        65.13528
857.31        64.58126
857.71        64.67918
858.12        65.28345
858.52        66.19005
858.92        66.81397
859.33        66.93645
859.73        66.71688
860.13        66.37176
860.54        66.29147
860.94        66.59961
861.34        67.13723
861.75        67.61974
862.15        67.68953
862.55        67.22098
862.96        66.37568
863.36        65.43736
863.76        64.86008
864.17        64.76296
864.57        65.04607
864.97        65.46468
865.38        65.60718
865.78        65.40623
866.18         64.9595
866.58        64.49067
866.99        64.38167
867.39        64.73348
867.79        65.36208
868.19        66.01246
868.60         66.2905
869.00        66.10902
869.40        65.61615
869.80        64.95787
870.21        64.39628
870.61        64.08034
871.01        63.91243
871.41        63.90784
871.81        64.08329
872.22        64.39784
872.62         64.9156
873.02        65.51283
873.42        65.92679
873.82        66.07026
874.22        65.97972
874.63        65.85265
875.03        65.98395
875.43        66.43219
875.83        67.07871
876.23        67.71877
876.63        68.00037
877.03        67.84492
877.44        67.42339
877.84        66.85327
878.24        66.34473
878.64        65.98383
879.04        65.66965
879.44        65.51215
879.84         65.6792
880.24         66.1412
880.64        66.86634
881.04        67.47675
881.44        67.29947
881.84        66.24287
882.24        64.59533
882.65        62.94999
883.05        62.05192
883.45        62.10135
883.85        62.88567
884.25        64.07976
884.65        65.06332
885.05        65.57399
885.45        65.75103
885.85        65.74998
886.25         65.8269
886.65        66.04885
887.05        66.29075
887.45        66.42874
887.85        66.30347
888.25        65.89061
888.65         65.2928
889.04        64.65649
889.44        64.20988
889.84        64.00668
890.24        64.01789
890.64        64.15382
891.04        64.25793
891.44        64.29086
891.84        64.29637
892.24         64.3843
892.64        64.72186
893.04        65.33701
893.44        66.16844
893.83        67.06237
894.23        67.68611
894.63        67.96332
895.03        67.91705
895.43        67.74565
895.83        67.77935
896.23        68.08349
896.63         68.5834
897.02        68.97259
897.42        68.75357
897.82        67.88626
898.22        66.58588
898.62        65.32732
899.01        64.75771
899.41        65.01095
899.81        65.90454
900.21        67.02927
900.61        67.59856
901.00        67.35635
901.40        66.60751
901.80        65.77558
902.20         65.4575
902.59        65.80025
902.99        66.56319
903.39        67.50145
903.79        68.07472
904.18        68.07483
904.58        67.72892
904.98        67.26429
905.38        66.98034
905.77        66.95013
906.17         67.0728
906.57        67.30894
906.96        67.65118
907.36        68.01017
907.76        68.40386
908.15        68.73524
908.55        68.75019
908.95        68.43991
909.34        67.87863
909.74        67.22109
910.14         66.6697
910.53        66.29992
910.93        66.09042
911.33        66.06095
911.72        66.24321
912.12        66.60797
912.52        67.13451
912.91        67.71651
913.31        68.15169
913.70        68.40524
914.10         68.4525
914.49        68.38246
914.89        68.29713
915.29        68.25616
915.68        68.23026
916.08        68.18805
916.47        68.02118
916.87        67.75574
917.26        67.41277
917.66        67.11713
918.05        67.03363
918.45        67.15583
918.84        67.47021
919.24        67.76105
919.64        67.76893
920.03        67.42496
920.42          66.807
920.82        66.15737
921.21        65.68958
921.61        65.46527
922.00        65.46582
922.40        65.54712
922.79        65.58077
923.19        65.49375
923.58        65.34002
923.98        65.28346
924.37        65.53223
924.77        66.11864
925.16        66.99298
925.55        67.88638
925.95         68.3136
926.34        68.17123
926.74        67.55536
927.13        66.79403
927.52        66.38946
927.92         66.4623
928.31        66.88079
928.70        67.36745
929.10         67.4378
929.49        67.00846
929.89        66.25993
930.28        65.53097
930.67        65.31517
931.07        65.71406
931.46        66.55136
931.85        67.57234
932.24        68.39375
932.64        68.84238
933.03        69.08711
933.42          69.105
933.82          68.909
934.21         68.5878
934.60        68.11569
934.99        67.69513
935.39         67.6178
935.78         67.9184
936.17        68.50938
936.56        69.16933
936.96        69.50875
937.35        69.45309
937.74        69.09756
938.13         68.5188
938.53        67.84414
938.92        67.16296
939.31         66.5363
939.70        66.11369
940.09        66.13158
940.49          66.557
940.88        67.28289
941.27        68.21499
941.66        69.17719
942.05        70.00216
942.44        70.72711
942.84        70.90787
943.23        69.85368
943.62        67.67345
944.01        64.80863
944.40        62.21437
944.79        61.07859
945.18        61.55815
945.57        63.35464
945.97        65.78503
946.36         67.6669
946.75        68.32793
947.14        68.07716
947.53        67.37978
947.92        67.04647
948.31        67.31107
948.70        67.81859
949.09        68.38459
949.48        68.76069
949.87        68.83713
950.26        68.79873
950.65        68.55988
951.04        67.92364
951.43        66.94888
951.82        65.73138
952.21        64.65349
952.60        64.29684
952.99        64.75236
953.38        65.83923
953.77        67.15175
954.16        67.97653
954.55        68.06143
954.94        67.55935
955.33        66.73689
955.72        66.05637
956.11        65.68662
956.50        65.53237
956.89        65.42984
957.28        65.11694
957.66        64.56371
958.05         63.8781
958.44         63.3567
958.83         63.4323
959.22        64.16581
959.61        65.38417
960.00        66.67072
960.39        67.30836
960.78        67.08924
961.16        66.23214
961.55        65.08501
961.94        64.20238
962.33         63.7657
962.72        63.59772
963.11        63.64866
963.49        63.85299
963.88        64.10442
964.27        64.49216
964.66        64.83851
965.04        64.83658
965.43        64.39218
965.82        63.60271
966.21        62.78594
966.60        62.49586
966.98        62.87131
967.37        63.72389
967.76        64.73612
968.15        65.35454
968.53        65.43287
968.92        65.09937
969.31        64.57803
969.69        64.24229
970.08        64.18501
970.47        64.27995
970.86        64.46047
971.24         64.6223
971.63        64.73714
972.02        64.95496
972.40        65.22186
972.79        65.36988
973.17        65.44374
973.56        65.34273
973.95        65.45205
974.33        66.41336
974.72        68.23103
975.11        70.79926
975.49        73.40949
975.88        74.45191
976.26        73.46164
976.65        70.90776
977.04        67.81132
977.42        65.54926
977.81        64.47402
978.19        64.15062
978.58        64.25849
978.96        64.11002
979.35        63.53123
979.74        62.73439
980.12        61.94271
980.51        61.36455
980.89        61.17548
981.28         61.3035
981.66        61.60473
982.05            61.8
982.43         61.8443
982.82         61.7538
983.20        61.94612
983.59        63.08977
983.97        65.33247
984.35        68.46085
984.74        71.45914
985.12          72.715
985.51        71.60983
985.89        68.81208
986.28        65.52307
986.66        63.09199
987.04        61.95208
987.43        61.62885
987.81        61.97725
988.20         62.5764
988.58          63.259
988.96        64.22892
989.35        65.04015
989.73        65.07591
990.12        64.22826
990.50        62.56878
990.88        60.90762
991.27        60.50038
991.65        61.61179
992.03        64.09048
992.42        66.80847
992.80        67.71049
993.18        65.97435
993.56        62.51333
993.95        59.12395
994.33        57.58258
994.71        58.28466
995.10        60.66565
995.48        63.89077
995.86         65.6543
996.24        65.01585
996.63        62.80265
997.01        60.28682
997.39        59.14625
997.77        59.75485
998.15        61.50846
998.54        63.85655
998.92        65.84089
999.30        66.99371
999.68        67.64049
1000.06        67.68648
1000.45        66.94219
1000.83        65.74165
1001.21         64.1557
1001.59        62.74429
1001.97         62.3061
1002.35        62.95414
1002.73        64.44185
1003.12        66.53384
1003.50         68.7813
1003.88        70.77029
1004.26        72.59059
1004.64        73.74509
1005.02        73.53828
1005.40         71.8993
1005.78        68.87138
1006.16        65.52445
1006.54        63.69156
1006.92        63.87005
1007.30        65.79282
1007.69         68.1253
1008.07        68.28848
1008.45         65.7836
1008.83        61.82406
1009.21        58.14664
1009.59        56.54008
1009.97        57.17946
1010.35        59.62215
1010.73        62.97609
1011.11        65.08424
1011.49        64.90426
1011.86        62.84449
1012.24        60.50054
1012.62         60.3044
1013.00        63.00681
1013.38        68.32073
1013.76        74.57561
1014.14         77.1729
1014.52        74.67677
1014.90        69.53392
1015.28        64.68035
1015.66        62.66381
1016.04        63.63125
1016.41         67.0168
1016.79        72.01295
1017.17        76.88586
1017.55        80.00691
1017.93        81.64788
1018.31        81.00298
1018.69        77.40487
1019.06        71.80192
1019.44         65.6382
1019.82        60.59455
1020.20        57.86123
1020.58        57.13864
1020.95        58.15418
1021.33        60.17099
1021.71        61.35728
1022.09        60.85426
1022.46        58.85003
1022.84        56.95124
1023.22        57.15282
1023.60        60.02183
1023.97        65.90931
1024.35        72.66419
1024.73        73.44224
