SpectraSmart Spectrum 2.9.0.0
--------- Device Information -----------
Spectrum Name :  反射率_0
Saving Time :  2024/05/03 20:28:44
Spectro-Module Model Name : SE2030-DUVN
Spectro-Module Serial Number : OS361AC55029948
Wavelength Start : 200
Wavelength End : 1025
Wavelength Unit : Wavelength(nm)
Spectrum Unit : Reflectance(%)
-----------Spectrum Setting ------------
Integration Time : 20ms
Average : 10
Boxcar : 0
Background removal :  enabled
linearity correction :  enabled
SC :  disabled
Intensity correction :  disabled
DWT denoise :  enabled
savitzky-golay :  disabled
FFT :  disabled
Running average :  disabled
Kalman :  disabled
High pass :  disabled
---------------BEGIN--------------------
Wavelength(nm)             Reflectance(%)
200.29               0
200.75       -4.461124
201.21        1.689693
201.67       -31.48779
202.13        15.80882
202.58         26.4665
203.04        37.84959
203.50        48.86818
203.96        59.39447
204.42        73.98822
204.88        119.8268
205.34       -1443.682
205.80       -93.10242
206.26       -92.24501
206.72       -23866.36
207.18        100.0368
207.64        73.19028
208.10        80.06293
208.55        135.7343
209.01        699.1379
209.47        939.6288
209.93        153.5144
210.39        73.98518
210.85        53.01976
211.31        48.33451
211.77        51.38251
212.23        64.91695
212.69         100.462
213.14        115.4289
213.60        57.96691
214.06        25.94455
214.52        14.65541
214.98        11.72333
215.44        13.44742
215.90        25.81803
216.36       -172.8218
216.81       -40.07711
217.27       -48.89745
217.73       -98.63261
218.19       -383.5132
218.65       -7332.705
219.11       -447.5587
219.57       -79.39165
220.02       -19.63034
220.48       -37.94384
220.94        107.1196
221.40         56.8082
221.86        50.91819
222.32        51.26325
222.77        54.69177
223.23        62.27733
223.69        73.25877
224.15        76.24841
224.61        65.68509
225.06        51.43024
225.52        42.20015
225.98        40.25195
226.44        44.25077
226.90        53.53796
227.36        66.33628
227.81        74.46765
228.27        72.94575
228.73         65.9401
229.19        58.28664
229.65        53.72283
230.10         51.9854
230.56        51.80099
231.02        52.12162
231.48        52.21122
231.93        51.93795
232.39        51.75301
232.85        51.79615
233.31            52.3
233.77         53.2737
234.22        54.51561
234.68        55.88035
235.14        57.12398
235.60        58.17248
236.05        59.26645
236.51        60.13582
236.97        60.49504
237.43        60.31219
237.88        59.73302
238.34        59.51738
238.80        60.73973
239.26        64.06614
239.71        72.15962
240.17        84.56269
240.63        98.67376
241.08         104.839
241.54         98.4542
242.00        87.95208
242.46        84.83897
242.91        92.06892
243.37        111.1563
243.83        147.2175
244.28        185.9837
244.74        187.6741
245.20        153.7274
245.66        110.3067
246.11        79.56967
246.57        63.00998
247.03        53.89313
247.48        49.40286
247.94        46.51511
248.40         44.2684
248.85        43.40193
249.31        44.75674
249.77        48.51808
250.22        53.36345
250.68        57.82466
251.14         62.2319
251.59         68.5696
252.05        78.36933
252.51        93.31007
252.96        113.5944
253.42        129.0039
253.88        129.1732
254.33        118.0151
254.79          104.34
255.25        94.41455
255.70        88.73542
256.16        85.98302
256.62        85.34659
257.07        86.60802
257.53        89.35385
257.99        92.31682
258.44          93.893
258.90        93.02444
259.35        89.62617
259.81        85.59068
260.27        81.48005
260.72        77.92622
261.18        75.52814
261.63        73.57362
262.09        72.39017
262.55        71.80163
263.00        71.50443
263.46        71.52272
263.91        71.38207
264.37        70.81713
264.83        69.73412
265.28        68.28015
265.74        66.73396
266.19        65.11878
266.65        63.63366
267.11         62.1428
267.56        60.76401
268.02        59.79395
268.47        59.15496
268.93        58.80504
269.38        58.40677
269.84         57.4056
270.30         55.7779
270.75        53.75713
271.21        51.84767
271.66        50.62695
272.12        50.18584
272.57        50.22938
273.03        50.45272
273.48        50.38017
273.94        49.88353
274.39        49.14218
274.85        48.18819
275.31        46.93855
275.76        45.46625
276.22        43.88992
276.67        42.51522
277.13        41.92065
277.58        42.02304
278.04        42.64824
278.49        43.24503
278.95        43.01382
279.40        41.79557
279.86        40.04688
280.31        38.18241
280.77         36.8666
281.22        36.11167
281.68        35.75586
282.13        35.57595
282.59         35.3498
283.04        34.98078
283.50        34.59811
283.95        34.22978
284.41        33.95062
284.86        33.75207
285.32        33.62423
285.77        33.52283
286.22        33.47301
286.68        33.47589
287.13        33.47779
287.59        33.50203
288.04        33.50962
288.50        33.51808
288.95        33.51053
289.41        33.47073
289.86        33.31662
290.32        33.09015
290.77        32.81726
291.22        32.62489
291.68        32.67572
292.13        32.99504
292.59        33.58036
293.04        34.34468
293.50        35.14478
293.95        35.92522
294.40        36.72569
294.86        37.64379
295.31        38.83152
295.77        40.32228
296.22        42.03271
296.68        43.83562
297.13        45.50634
297.58        46.93718
298.04        48.21275
298.49        49.34336
298.95        50.43256
299.40        51.52358
299.85        52.62408
300.31        53.87458
300.76        55.44199
301.21        57.35322
301.67        59.56298
302.12        61.83557
302.58        63.83467
303.03        65.43816
303.48        66.75167
303.94        68.01489
304.39        69.49888
304.84         71.3166
305.30        73.36491
305.75        75.45182
306.20        77.33227
306.66        78.95042
307.11         80.3385
307.57        81.62269
308.02        82.84442
308.47        84.08493
308.93        85.32102
309.38        86.53282
309.83        87.79906
310.29        89.11889
310.74        90.45303
311.19        91.72063
311.65        92.76656
312.10        93.53069
312.55        94.05824
313.00        94.43287
313.46        94.80598
313.91        95.20209
314.36         95.6278
314.82        96.07285
315.27        96.48383
315.72        96.86871
316.18        97.25659
316.63        97.68472
317.08        98.22302
317.53        98.87691
317.99        99.59931
318.44         100.332
318.89        100.9209
319.35        101.3191
319.80        101.5617
320.25         101.717
320.70        101.9241
321.16        102.2012
321.61        102.5219
322.06        102.8187
322.51        102.9862
322.97        102.9951
323.42        102.9312
323.87        102.8201
324.32        102.7107
324.78        102.6273
325.23        102.5983
325.68        102.6772
326.13        102.9678
326.59        103.4481
327.04          104.13
327.49        104.8771
327.94         105.499
328.39        105.9234
328.85        106.1411
329.30        106.2642
329.75        106.3528
330.20        106.4493
330.66        106.5116
331.11        106.5979
331.56        106.6786
332.01        106.7731
332.46        106.9192
332.92        107.1192
333.37         107.488
333.82        107.9941
334.27        108.6002
334.72        109.2703
335.17        109.9492
335.63        110.5612
336.08        111.1556
336.53         111.634
336.98        111.9029
337.43        111.9672
337.88        111.8809
338.34         111.756
338.79        111.8021
339.24        112.0775
339.69         112.545
340.14        113.1713
340.59        113.8848
341.05        114.6316
341.50        115.4238
341.95        116.1945
342.40        116.8568
342.85        117.3831
343.30        117.7724
343.75        118.0617
344.20        118.3288
344.66        118.6253
345.11        118.9326
345.56        119.2426
346.01        119.5301
346.46        119.7954
346.91        120.0417
347.36        120.3364
347.81        120.7757
348.26        121.3638
348.72        122.0802
349.17        122.7463
349.62        123.1121
350.07        123.1317
350.52        122.8649
350.97        122.5414
351.42        122.5385
351.87        122.9117
352.32        123.5164
352.77        124.0757
353.22        124.1498
353.67        123.6523
354.13        122.7941
354.58        121.7535
355.03        120.8754
355.48        120.2864
355.93        119.9055
356.38        119.7168
356.83        119.6959
357.28        119.7879
357.73         119.967
358.18        120.1432
358.63        120.1629
359.08        119.9667
359.53        119.5753
359.98        118.9624
360.43        118.1177
360.88         117.076
361.33        115.8582
361.78         114.635
362.23        113.6534
362.68          112.97
363.13        112.5546
363.58        112.2058
364.03        111.5887
364.48        110.6409
364.93        109.4566
365.38        108.3078
365.83        107.6112
366.28        107.4346
366.73        107.6351
367.18        107.8693
367.63        107.5953
368.08        106.6855
368.53        105.3044
368.98        103.8154
369.43         102.762
369.88        102.2724
370.33        102.2067
370.78        102.2331
371.23        101.7995
371.68        100.7857
372.13        99.38542
372.58        98.00423
373.03        97.24335
373.48        97.20806
373.93         97.6776
374.38        98.23188
374.83        98.18949
375.28        97.37316
375.72        95.98997
376.17        94.46284
376.62        93.25928
377.07        92.50121
377.52        92.03292
377.97        91.69163
378.42        91.23578
378.87        90.60702
379.32        89.91479
379.77        89.26087
380.22        88.75576
380.67        88.40752
381.11        88.17288
381.56        87.92371
382.01         87.5445
382.46        87.01905
382.91        86.40546
383.36        85.80274
383.81        85.34246
384.26        85.04421
384.71        84.86106
385.15        84.70782
385.60         84.4831
386.05        84.14356
386.50        83.71396
386.95        83.24907
387.40        82.82951
387.85        82.47932
388.29        82.14893
388.74        81.84999
389.19        81.41385
389.64        80.82315
390.09        80.12327
390.54        79.46952
390.98        79.02962
391.43        78.87284
391.88        79.06548
392.33         79.3981
392.78        79.15403
393.23        78.48706
393.67        78.35803
394.12        78.72489
394.57        78.53648
395.02        77.85503
395.47         77.5177
395.91        77.54706
396.36        77.39084
396.81        77.07547
397.26         76.9041
397.71         76.8038
398.15        76.59949
398.60        76.37994
399.05        75.89435
399.50        75.33854
399.95        75.53059
400.39        76.26808
400.84        76.13347
401.29        75.21027
401.74        74.75134
402.18        74.82153
402.63        74.75122
403.08        74.60903
403.53        74.17608
403.97        74.50376
404.42        74.63298
404.87         74.7624
405.32        74.68853
405.76        74.38039
406.21        73.93316
406.66        73.43671
407.11        73.08708
407.55        72.96256
408.00        72.90007
408.45        72.86295
408.90        73.01596
409.34        73.17601
409.79        72.76224
410.24        71.96043
410.68        71.55225
411.13        71.60551
411.58        71.71649
412.03         71.7591
412.47        71.71363
412.92        71.51572
413.37        71.18911
413.81        70.85895
414.26        70.78686
414.71        70.97112
415.15        71.38614
415.60        71.78255
416.05         71.8191
416.49        71.41907
416.94        70.72361
417.39        70.01723
417.83        69.69971
418.28        69.86362
418.73        70.37769
419.17        71.03637
419.62        71.43163
420.07        71.43731
420.51        71.14644
420.96        70.74581
421.41        70.38555
421.85        70.09182
422.30        70.03371
422.74        70.05432
423.19        69.72169
423.64        69.15209
424.08        69.18544
424.53        69.74884
424.98        70.06103
425.42        70.06461
425.87        70.21128
426.31        70.50674
426.76        70.60582
427.21        70.57571
427.65        70.72028
428.10        70.92024
428.54        71.11349
428.99        70.90338
429.44        70.61172
429.88        70.23608
430.33        70.44507
430.77        70.94502
431.22        70.83018
431.66        70.17722
432.11        69.87026
432.56        69.97417
433.00        70.32735
433.45        70.70521
433.89         71.2179
434.34        68.76819
434.78        71.04282
435.23        70.86213
435.67        69.96929
436.12         69.3297
436.57        69.22294
437.01        70.28092
437.46        70.69683
437.90        70.47158
438.35        70.27982
438.79        70.58551
439.24        70.50877
439.68        70.19257
440.13        69.98847
440.57        69.96793
441.02        69.80116
441.46        69.51447
441.91         69.9607
442.35        70.73656
442.80        70.35284
443.24        69.12967
443.69        69.28042
444.13        70.60461
444.58         71.0381
445.02        70.48698
445.47        70.10206
445.91        70.02777
446.36         70.0426
446.80         70.1591
447.24        70.44064
447.69         70.7589
448.13        70.90678
448.58        70.84827
449.02        70.61507
449.47        70.32545
449.91        70.12556
450.36        70.07609
450.80        70.10344
451.25        70.16089
451.69        70.14247
452.13        70.03027
452.58        69.86695
453.02        69.68411
453.47        69.55595
453.91         69.4888
454.36        69.46732
454.80        69.46124
455.24        69.41638
455.69        69.33281
456.13        69.24277
456.58        69.20534
457.02        69.00581
457.46        69.10856
457.91        68.98084
458.35         68.7379
458.79        68.70947
459.24        68.81969
459.68        68.47004
460.13        67.78979
460.57        67.47694
461.01        67.64215
461.46        67.28088
461.90        67.25103
462.34        67.52555
462.79        67.12943
463.23        67.03693
463.68         66.9258
464.12        66.87215
464.56        66.85367
465.01        66.93661
465.45        67.05222
465.89        67.03431
466.34        66.88234
466.78        66.92426
467.22        67.25286
467.67        66.51433
468.11        66.81802
468.55        66.64963
468.99        66.61217
469.44        66.49766
469.88        66.32484
470.32        66.15714
470.77         66.0078
471.21        65.93877
471.65        65.93629
472.10        65.98044
472.54        66.03208
472.98        66.01164
473.42        65.89328
473.87        65.85477
474.31        65.81758
474.75         65.4091
475.20        64.81546
475.64        64.74401
476.08        65.14101
476.52        65.24291
476.97        64.99128
477.41        64.97861
477.85        65.13531
478.29        65.00861
478.74        65.21407
479.18        65.48263
479.62        65.57471
480.06        65.60166
480.50        65.37577
480.95        65.30943
481.39        65.48356
481.83        64.53855
482.27        64.66351
482.72        65.02139
483.16         64.6699
483.60        64.82033
484.04         65.1157
484.48        64.89629
484.93        64.17794
485.37        65.70463
485.81        66.14062
486.25        65.75758
486.69        68.52895
487.14        68.15102
487.58        64.45262
488.02        64.69241
488.46        66.07945
488.90        64.26413
489.34        64.81062
489.79        64.77615
490.23        64.59916
490.67        64.86541
491.11        65.08852
491.55        65.07425
491.99        64.79377
492.43        64.67017
492.88        64.73672
493.32        64.81833
493.76        64.85184
494.20        64.80634
494.64        64.66505
495.08        64.49531
495.52        64.36663
495.96        64.23116
496.41        64.15048
496.85        64.45934
497.29        64.99201
497.73         65.0076
498.17        64.56312
498.61         64.4808
499.05        64.74841
499.49        64.68109
499.93        64.31219
500.37        64.13174
500.82        64.15858
501.26        64.16517
501.70        64.14025
502.14        64.19041
502.58         64.2795
503.02        64.30471
503.46         64.2494
503.90        64.13644
504.34        64.00139
504.78        63.90138
505.22        63.83564
505.66        63.84314
506.10        63.90773
506.54        63.87028
506.98        63.68671
507.42        64.14651
507.86        63.49515
508.30        64.04605
508.74        63.61927
509.18        63.60757
509.62        63.53268
510.06        63.51291
510.50         63.5605
510.94        63.65079
511.38         63.7485
511.82        63.74553
512.26        63.62714
512.70        63.43372
513.14        63.21198
513.58         63.0351
514.02        62.92503
514.46        62.85298
514.90        62.82362
515.34        62.84277
515.78        62.90286
516.22        63.01309
516.66        63.11171
517.10         63.0975
517.54        62.95996
517.98        62.72547
518.42        62.50438
518.86        62.47689
519.30        62.67361
519.74        63.03377
520.18        63.42537
520.62        63.63076
521.06        63.59398
521.50        63.38487
521.93        63.10213
522.37        62.92052
522.81        62.88297
523.25        62.93141
523.69        63.02247
524.13        63.08826
524.57        63.10695
525.01        63.11727
525.45        63.11125
525.89        63.06841
526.32        62.99078
526.76        62.88506
527.20         62.8077
527.64        62.85877
528.08         63.0483
528.52        63.34141
528.96        63.63874
529.40        63.78273
529.83        63.72532
530.27         63.5225
530.71        63.26421
531.15        63.10072
531.59        63.07226
532.03        63.14723
532.46        63.23986
532.90        63.21408
533.34        63.05399
533.78        62.82327
534.22        62.62818
534.66        62.61985
535.09        62.80569
535.53        63.12304
535.97        63.47305
536.41         63.6534
536.85        63.60392
537.28        63.55547
537.72        63.50222
538.16         63.0461
538.60        62.42089
539.04         62.4827
539.47        63.09914
539.91        63.34838
540.35        63.16763
540.79        63.09862
541.22        63.14294
541.66        63.10591
542.10        63.00159
542.54        62.79278
542.97         62.5627
543.41        62.68618
543.85        63.06436
544.29        63.18162
544.72        63.01807
545.16        62.96924
545.60        63.02257
546.04        62.99359
546.47        62.87614
546.91        62.71319
547.35        62.56534
547.79        62.56923
548.22        62.71804
548.66        62.93282
549.10        63.16082
549.53        63.41565
549.97        63.62172
550.41        63.68517
550.84        63.57935
551.28        63.32092
551.72        62.98826
552.15        62.72241
552.59        62.59785
553.03         62.5575
553.46        62.56266
553.90        62.63065
554.34        62.71303
554.77        62.74528
555.21        62.76229
555.65        62.87086
556.08        63.06301
556.52        63.28472
556.96        63.45706
557.39        63.52073
557.83        63.47962
558.27        63.27124
558.70        62.98961
559.14        62.93953
559.57        63.08397
560.01        63.12601
560.45        63.04134
560.88         63.0118
561.32        63.04759
561.75        63.01838
562.19        62.99493
562.63        62.90535
563.06        62.81192
563.50        63.21852
563.93        63.90104
564.37        63.77917
564.80        63.00596
565.24        62.90432
565.68        63.40124
566.11         63.5088
566.55        63.23299
566.98        63.07633
567.42        63.06495
567.85        63.20928
568.29        63.09428
568.72        63.08958
569.16        63.15937
569.60        63.36834
570.03        63.38786
570.47        63.72414
570.90        64.30212
571.34        63.63361
571.77        64.80791
572.21        64.19929
572.64         64.5016
573.08        63.98013
573.51        64.30544
573.95        64.32338
574.38        64.30505
574.82        64.01319
575.25        65.14337
575.69         65.4095
576.12        64.98032
576.56        63.73991
576.99        64.15366
577.42        65.11524
577.86        64.65582
578.29        65.37395
578.73        65.30793
579.16        65.28783
579.60        64.90836
580.03        64.73178
580.47        64.75734
580.90        64.83021
581.33        64.51197
581.77        64.77364
582.20        66.39132
582.64        65.92688
583.07        65.88213
583.51        65.07237
583.94        64.52013
584.37        64.18609
584.81        64.31667
585.24        64.44887
585.68        65.46613
586.11        64.98752
586.54        65.65732
586.98        64.21201
587.41        64.20602
587.85        64.92175
588.28        65.22824
588.71        64.75393
589.15        64.24117
589.58        64.72492
590.01        63.95566
590.45        63.51845
590.88        63.98326
591.31        64.33653
591.75        64.72651
592.18        64.48228
592.61        63.90954
593.05        63.71132
593.48        65.33207
593.91        65.13693
594.35        65.06318
594.78        64.56316
595.21        64.40619
595.65        64.35521
596.08        64.32695
596.51        64.78853
596.94        64.47075
597.38        64.30396
597.81        63.81643
598.24        64.63536
598.68        64.74811
599.11        63.19936
599.54        65.12172
599.97         64.5235
600.41        64.44381
600.84        64.31251
601.27        64.59361
601.70        64.22534
602.14        64.29623
602.57        64.32296
603.00        64.57429
603.43        64.67014
603.87        64.58858
604.30        64.67252
604.73        64.53746
605.16        64.24758
605.60        63.77007
606.03        63.83311
606.46        64.30167
606.89        64.07955
607.32        64.40143
607.76        63.47821
608.19         64.2326
608.62        64.24816
609.05        64.20182
609.48        64.15681
609.92        64.38383
610.35        63.73288
610.78         65.2789
611.21        65.55879
611.64        65.25461
612.07        64.98088
612.50        64.82076
612.94        64.60325
613.37        64.36205
613.80        64.55644
614.23        64.43971
614.66        64.54049
615.09        64.62769
615.52        64.66933
615.96         64.6323
616.39        64.65032
616.82        64.64944
617.25        64.27034
617.68        64.84712
618.11        64.35797
618.54        63.47908
618.97         63.4067
619.40        64.15061
619.84        64.27795
620.27        64.40569
620.70        64.53017
621.13        64.82334
621.56        64.42307
621.99        63.51963
622.42         63.7793
622.85        64.54231
623.28        64.31046
623.71        64.11032
624.14        63.79113
624.57        63.45802
625.00         63.5561
625.43        63.40993
625.86        63.51934
626.29        63.64017
626.72        63.83849
627.15        63.93758
627.58        64.01148
628.01        63.96783
628.44        63.99542
628.87         64.1534
629.30        63.57998
629.73        63.45502
630.16        63.74847
630.59        63.35647
631.02        63.42062
631.45        63.50018
631.88        63.60115
632.31        63.68369
632.74        63.77321
633.17        63.85216
633.60        63.85178
634.03        63.76681
634.46        63.61721
634.89        63.43092
635.32         63.2578
635.75        63.11982
636.18         63.0071
636.61        62.93351
637.04         62.9216
637.47         62.9728
637.89        63.06878
638.32        63.14287
638.75        63.18519
639.18        63.19387
639.61        62.92133
640.04        62.88309
640.47        62.77085
640.90        62.74946
641.33        62.78893
641.76        62.88058
642.18        63.00958
642.61        63.13425
643.04        63.26374
643.47        63.38567
643.90        63.47873
644.33        63.53249
644.76        63.56002
645.18        63.56361
645.61        63.46606
646.04        63.26995
646.47        63.14748
646.90        63.19823
647.33        62.82849
647.75        63.23849
648.18        63.41941
648.61         63.6824
649.04        63.89612
649.47         64.0375
649.89        64.22405
650.32        64.34567
650.75        64.15803
651.18        63.77195
651.61         63.4817
652.03        63.39958
652.46        63.68893
652.89        64.13804
653.32        64.06013
653.74        63.73484
654.17        63.34299
654.60        63.22358
655.03        64.09607
655.46        63.53183
655.88        63.16691
656.31        66.56596
656.74        74.35353
657.16        70.27271
657.59        65.29518
658.02        65.21642
658.45        64.97231
658.87        65.02549
659.30        64.28455
659.73        63.38231
660.15        63.78867
660.58        63.53255
661.01        63.67944
661.44        63.48752
661.86        63.36289
662.29        63.27149
662.72        63.20604
663.14        63.19164
663.57        63.00725
664.00        62.76788
664.42        62.86993
664.85        63.27214
665.27        63.49565
665.70        63.48574
666.13        63.54203
666.55        63.65395
666.98         63.6007
667.41        63.43934
667.83         63.3642
668.26        63.39794
668.69        63.50874
669.11        63.60951
669.54        63.55422
669.96        63.32494
670.39        62.98254
670.82        62.69807
671.24        62.68555
671.67        62.97932
672.09        63.58745
672.52        64.32623
672.94        64.42355
673.37        64.55595
673.80        64.20892
674.22        63.79303
674.65        63.58684
675.07        63.68111
675.50        63.96047
675.92        64.29712
676.35        64.45808
676.77        64.39369
677.20        64.19195
677.62        63.94823
678.05        63.81107
678.47        63.81868
678.90        63.91428
679.32        64.05592
679.75        64.23703
680.17        64.43976
680.60        64.59028
681.02        64.63413
681.45        64.88741
681.87        64.66876
682.30        64.53127
682.72        64.34769
683.15         64.2505
683.57        64.27447
684.00        64.39009
684.42        64.53757
684.85        64.61857
685.27        64.60368
685.70         64.4611
686.12        64.23796
686.54        64.24688
686.97        64.41705
687.39        64.29973
687.82        63.91834
688.24        63.83162
688.66        63.91085
689.09        63.90508
689.51        63.79082
689.94        63.86444
690.36        64.15132
690.78        64.39056
691.21        64.45662
691.63         65.0885
692.06        64.62387
692.48        64.84972
692.90        65.19875
693.33        65.29404
693.75        65.12273
694.17        64.82275
694.60        64.50883
695.02        64.77245
695.44        64.72273
695.87        65.13562
696.29        65.57925
696.71        65.60233
697.14        65.22076
697.56        64.88409
697.98        64.72504
698.41        64.61819
698.83          64.575
699.25        64.74928
699.68        65.02602
700.10        65.19646
700.52        65.18668
700.94        65.06814
701.37        64.90397
701.79        64.81772
702.21        64.83065
702.64        64.90302
703.06        64.98508
703.48        65.00949
703.90        64.96277
704.33        64.87165
704.75        64.78173
705.17        64.74731
705.59         64.7872
706.01        64.88069
706.44         65.0013
706.86        65.13615
707.28        65.25403
707.70        65.35541
708.12        65.44964
708.55        65.54499
708.97        65.63259
709.39        65.70811
709.81        65.75483
710.23        65.76365
710.66        65.73569
711.08        65.68746
711.50        65.64119
711.92        65.65486
712.34        65.73803
712.76        65.86833
713.19        65.99648
713.61         66.0968
714.03        66.12429
714.45        66.09072
714.87        66.01183
715.29        65.91118
715.71        65.79752
716.13        65.66763
716.56        65.50882
716.98         65.3708
717.40        65.24934
717.82        65.15787
718.24         65.1087
718.66        65.11556
719.08        65.17429
719.50        65.26439
719.92        65.38572
720.34        65.53905
720.76        65.71612
721.19        65.90388
721.61        66.05153
722.03        66.07749
722.45        66.00098
722.87         65.6958
723.29         65.2729
723.71        65.35294
724.13        65.98265
724.55        65.56178
724.97        66.06046
725.39         66.0453
725.81        66.09988
726.23        66.00921
726.65        65.86272
727.07        65.85638
727.49        66.00331
727.91        66.26524
728.33        66.55906
728.75        66.74973
729.17        66.79671
729.59        66.73769
730.01        66.65628
730.43        66.68233
730.85         66.8426
731.27        67.09151
731.69        67.33372
732.10        67.42921
732.52        67.34555
732.94        67.13132
733.36        66.87904
733.78        66.74076
734.20        66.76619
734.62        66.91915
735.04        67.11945
735.46        67.23969
735.88        67.23809
736.30        67.14969
736.72        67.05254
737.13          67.022
737.55        67.02976
737.97        67.26814
738.39        67.61701
738.81        67.36649
739.23        66.71819
739.65        66.92928
740.06        67.78874
740.48        67.98032
740.90        67.43118
741.32        66.83134
741.74        66.46696
742.16        66.27187
742.57        66.35632
742.99        66.69456
743.41        67.16274
743.83        67.53935
744.25        67.74748
744.67        67.82434
745.08        67.83308
745.50        67.84022
745.92        67.88941
746.34        67.94691
746.75        67.96045
747.17        67.87794
747.59        67.68884
748.01        67.40716
748.42          67.135
748.84        67.02559
749.26        67.06723
749.68        67.25279
750.09        67.49454
750.51        67.37306
750.93        67.06175
751.35        67.46204
751.76        68.40975
752.18        68.72935
752.60        68.34075
753.01        67.88316
753.43        67.53976
753.85        67.36437
754.27        67.41615
754.68        67.64567
755.10         67.9633
755.52        68.22592
755.93        68.41517
756.35         68.6111
756.77        68.71251
757.18        68.76815
757.60        68.84087
758.02        68.31504
758.43         67.4776
758.85        68.54613
759.26        70.37526
759.68        70.50507
760.10        68.67136
760.51        68.72651
760.93        68.50798
761.34        68.46706
761.76        69.22848
762.18        68.95055
762.59        68.21254
763.01        68.08801
763.42        68.65327
763.84        68.80475
764.26        68.55126
764.67        68.35249
765.09        68.33599
765.50        68.72302
765.92        69.32278
766.33        69.12267
766.75        68.21655
767.16        67.99893
767.58        68.54248
768.00         68.9246
768.41        69.08025
768.83        69.59214
769.24        70.20912
769.66        69.98299
770.07        69.07748
770.49        68.45329
770.90        68.25965
771.32        68.35579
771.73        68.66104
772.15        68.87341
772.56        68.96748
772.97        69.15657
773.39        69.39842
773.80        69.56981
774.22        69.61279
774.63        69.59435
775.05        69.52261
775.46        69.47329
775.88        69.44932
776.29        69.45542
776.70        69.47169
777.12        69.47004
777.53        69.46733
777.95        69.46477
778.36        69.47311
778.77        69.46896
779.19        69.45616
779.60        69.44265
780.02        69.45905
780.43        69.54715
780.84        69.71348
781.26        69.95177
781.67        70.24616
782.09        70.39458
782.50        70.42224
782.91        70.57607
783.33          70.798
783.74        70.86098
784.15        70.71628
784.57        70.52006
784.98        70.35371
785.39         70.2796
785.81        70.32624
786.22        70.47962
786.63        70.65759
787.04        70.71982
787.46        70.65777
787.87        70.48608
788.28        70.30833
788.70        70.26897
789.11        70.37192
789.52        70.57391
789.93        70.80275
790.35        70.92963
790.76        70.95393
791.17         70.9308
791.58        70.87746
792.00        70.82806
792.41        70.83044
792.82        70.75616
793.23        70.71359
793.65        71.08552
794.06        71.79444
794.47        72.26816
794.88        72.34008
795.29        72.25847
795.71        71.97208
796.12        71.26653
796.53        70.39137
796.94        70.08159
797.35        70.43617
797.76        71.01855
798.18        71.56883
798.59        71.96471
799.00        72.06202
799.41        71.82084
799.82        71.41262
800.23        71.19111
800.64        71.23773
801.06         71.4025
801.47        71.64143
801.88        71.76639
802.29        71.71458
802.70         71.5528
803.11        71.34834
803.52         71.1877
803.93        71.10746
804.34        71.09155
804.75        71.10429
805.17        71.08205
805.58        71.03764
805.99        70.97325
806.40         70.9594
806.81        71.08766
807.22        71.36053
807.63        71.77381
808.04        72.21185
808.45        72.39907
808.86        72.26573
809.27         71.9122
809.68        71.48961
810.09        71.24548
810.50        71.26228
810.91        71.47603
811.32        71.77399
811.73        71.96301
812.14        71.97973
812.55        71.88099
812.96        71.73721
813.37        71.66618
813.78        71.70753
814.19        71.81892
814.60        71.93936
815.01        71.98866
815.42        71.94694
815.83        71.83289
816.24        71.71415
816.65        71.71099
817.05        71.85867
817.46        72.08995
817.87        72.31982
818.28        72.36842
818.69        72.20617
819.10        71.88322
819.51         71.5472
819.92        71.46738
820.33        71.70502
820.74        72.15076
821.14        72.63389
821.55         72.9187
821.96        72.93141
822.37        72.76598
822.78        72.47687
823.19        72.16369
823.60        71.89658
824.00        71.66425
824.41        71.52488
824.82        71.65745
825.23        72.07002
825.64        72.71066
826.04        73.42383
826.45        73.82854
826.86          73.855
827.27        73.59935
827.68        73.17535
828.08        72.81354
828.49        72.56461
828.90        72.38816
829.31        72.34309
829.72        72.52071
830.12        72.94623
830.53        73.55244
830.94        74.17371
831.35        74.45627
831.75        74.31753
832.16        73.77896
832.57        73.09573
832.97        72.66455
833.38        72.59525
833.79        72.78874
834.20        73.04306
834.60        73.02734
835.01        72.69269
835.42        72.15944
835.82        71.64563
836.23        71.44566
836.64        71.65192
837.04        72.18352
837.45        72.80479
837.86        73.23801
838.26        73.38608
838.67        73.28661
839.08        73.04803
839.48        72.82529
839.89        72.67186
840.29          72.509
840.70         72.3597
841.11        72.19765
841.51        72.04696
841.92        71.96574
842.33        71.91631
842.73        71.82779
843.14        71.65479
843.54        71.40639
843.95        71.29893
844.35        71.72605
844.76        72.67912
845.17        74.05405
845.57        75.40135
845.98         75.7865
846.38        75.06735
846.79        73.56264
847.19        71.85304
847.60        70.85786
848.00        70.79954
848.41         71.3681
848.81        72.35517
849.22        73.29227
849.62        74.02178
850.03        74.61634
850.43        74.97459
850.84        74.79225
851.24         74.1079
851.65        72.96206
852.05         71.7188
852.46        71.00927
852.86        70.96043
853.27         71.4174
853.67        72.07551
854.07        72.69442
854.48        73.13103
854.88         73.5515
855.29        73.75219
855.69         73.6015
856.10        72.99667
856.50        72.05085
856.90        71.09316
857.31        70.66431
857.71        70.90366
858.12        71.63832
858.52        72.62781
858.92        73.19904
859.33         73.1185
859.73         72.6112
860.13        71.90359
860.54        71.39664
860.94        71.25307
861.34         71.3196
861.75        71.46582
862.15        71.58677
862.55        71.57857
862.96        71.50655
863.36        71.38385
863.76        71.21996
864.17        71.02576
864.57        70.83407
864.97        70.61232
865.38        70.30378
865.78        69.95385
866.18        69.54758
866.58          69.252
866.99        69.34497
867.39         69.8731
867.79        70.70663
868.19        71.51955
868.60        71.78923
869.00        71.42327
869.40        70.59416
869.80        69.59677
870.21        68.96659
870.61        68.90748
871.01        69.21986
871.41        69.75372
871.81        70.28599
872.22        70.71001
872.62        71.16234
873.02        71.57718
873.42        71.80643
873.82        71.82421
874.22        71.63903
874.63        71.45143
875.03        71.55996
875.43        72.01498
875.83        72.69633
876.23        73.40287
876.63         73.7676
877.03        73.71117
877.44        73.43298
877.84        72.97776
878.24        72.44846
878.64        71.92336
879.04         71.3062
879.44        70.91102
879.84        71.20884
880.24        72.19925
880.64        73.77921
881.04        75.21722
881.44         75.2015
881.84        73.51324
882.24        70.67903
882.65        67.79871
883.05        66.32687
883.45        66.60928
883.85        68.22766
884.25        70.49396
884.65        72.11998
885.05        72.61754
885.45        72.33204
885.85        71.69833
886.25        71.39291
886.65        71.59355
887.05        72.02085
887.45        72.40412
887.85        72.35961
888.25        71.80463
888.65        70.96104
889.04         70.0632
889.44        69.44987
889.84        69.21628
890.24        69.28509
890.64        69.57041
891.04        69.93398
891.44         70.3026
891.84        70.68396
892.24        71.11002
892.64        71.62785
893.04        72.23976
893.44        72.93082
893.83         73.5688
894.23        73.86286
894.63         73.7905
895.03         73.3828
895.43        72.95336
895.83        73.00365
896.23        73.60869
896.63        74.62638
897.02         75.5728
897.42        75.65732
897.82        74.75774
898.22        73.17295
898.62        71.50185
899.01        70.56757
899.41        70.56883
899.81        71.29811
900.21        72.32638
900.61        72.83606
901.00          72.568
901.40        71.84171
901.80        71.14426
902.20        71.16609
902.59        72.05896
902.99        73.54579
903.39         75.1998
903.79        76.10748
904.18        75.94125
904.58        75.05148
904.98        73.92271
905.38        73.21321
905.77        73.06858
906.17        73.28692
906.57        73.70693
906.96        74.10876
907.36        74.34319
907.76        74.53271
908.15        74.63826
908.55        74.48972
908.95        74.11362
909.34        73.51608
909.74        72.90816
910.14        72.58654
910.53        72.61401
910.93        72.95439
911.33        73.41246
911.72        73.66758
912.12         73.6382
912.52        73.40674
912.91        73.19556
913.31        73.33505
913.70        73.90369
914.10        74.71476
914.49        75.52098
914.89        75.82671
915.29        75.53696
915.68        74.83869
916.08        73.96441
916.47        73.22731
916.87        72.77959
917.26        72.46935
917.66        72.37099
918.05        72.57996
918.45        73.03808
918.84         73.8101
919.24        74.49306
919.64        74.47785
920.03        73.66658
920.42        72.26154
920.82        70.90567
921.21         70.3761
921.61         70.8147
922.00        72.02621
922.40        73.51678
922.79        74.47881
923.19        74.58394
923.58        74.10305
923.98        73.42768
924.37        73.10062
924.77        73.27134
925.16        73.76352
925.55        74.37997
925.95        74.77663
926.34         74.8715
926.74         74.7758
927.13        74.55563
927.52        74.29163
927.92        74.02702
928.31        73.70251
928.70        73.39829
929.10        73.24119
929.49        73.27473
929.89        73.50349
930.28        73.78534
930.67         73.8314
931.07        73.58447
931.46        73.13277
931.85        72.76894
932.24        73.00184
932.64        73.89236
933.03        75.33694
933.42        76.85402
933.82         77.6541
934.21        77.55922
934.60        76.78912
934.99        75.81917
935.39        75.35547
935.78        75.56491
936.17        76.20258
936.56        76.98109
936.96        77.42488
937.35        77.41972
937.74        77.12801
938.13        76.58972
938.53        75.84521
938.92        74.97688
939.31        74.05569
939.70         73.3289
940.09        73.19318
940.49        73.64114
940.88        74.53629
941.27        75.66466
941.66        76.63088
942.05        77.21575
942.44        77.53384
942.84        77.29852
943.23        76.08381
943.62        74.04897
944.01        71.51559
944.40        69.31217
944.79        68.47769
945.18        69.13194
945.57        71.02821
945.97        73.46777
946.36        75.26737
946.75         75.7627
947.14        75.27054
947.53        74.33627
947.92        73.89777
948.31        74.21853
948.70        74.91969
949.09        75.76463
949.48        76.39708
949.87        76.66775
950.26        76.79311
950.65        76.68002
951.04        76.12743
951.43        75.19514
951.82        73.95209
952.21        72.84052
952.60        72.54403
952.99        73.16305
953.38         74.4994
953.77        76.01501
954.16        76.76725
954.55        76.46065
954.94        75.32021
955.33         73.8213
955.72        72.76472
956.11         72.4067
956.50        72.56828
956.89        72.89009
957.28        72.77398
957.66        72.11116
958.05        71.12643
958.44        70.28665
958.83        70.29945
959.22        71.29579
959.61        72.98273
960.00         74.8427
960.39        75.99141
960.78        76.12484
961.16        75.49972
961.55         74.4108
961.94        73.33212
962.33         72.4725
962.72        71.70721
963.11        71.13693
963.49        70.94905
963.88        71.11152
964.27        71.65414
964.66        72.34254
965.04        72.75134
965.43         72.7134
965.82        72.35056
966.21        71.88892
966.60        71.74293
966.98        72.02843
967.37        72.56359
967.76        73.18269
968.15        73.60064
968.53        73.74271
968.92        73.68131
969.31        73.48703
969.69        73.25207
970.08         73.0111
970.47        72.75669
970.86        72.58986
971.24        72.67808
971.63         73.0463
972.02        73.71102
972.40        74.54292
972.79        75.22175
973.17        75.71581
973.56        76.00063
973.95        76.31622
974.33        77.08539
974.72        78.28422
975.11        79.79907
975.49        81.35187
975.88        82.18904
976.26        82.06847
976.65        81.15939
977.04        79.70356
977.42        77.97531
977.81        76.19066
978.19        74.29861
978.58        72.59689
978.96        71.34191
979.35        70.61758
979.74        70.33839
980.12        70.38087
980.51         70.3726
980.89        70.28376
981.28        70.21032
981.66         70.1762
982.05         70.1504
982.43        70.18268
982.82        70.18354
983.20        70.44608
983.59        71.47055
983.97        73.38437
984.35        76.05675
984.74        78.64528
985.12        79.89029
985.51        79.24693
985.89        77.20414
986.28        74.75166
986.66        72.98044
987.04        72.26029
987.43         72.1634
987.81        72.50952
988.20        72.77892
988.58        72.85644
988.96        73.01025
989.35        72.99101
989.73        72.48288
990.12        71.46399
990.50        69.92928
990.88        68.61345
991.27        68.64497
991.65        70.23145
992.03        73.25954
992.42        76.45971
992.80        77.51495
993.18        75.51601
993.56        71.49679
993.95        67.50472
994.33        65.58469
994.71        66.18914
995.10        68.65755
995.48        72.17759
995.86        74.37482
996.24        74.22971
996.63        72.61416
997.01        70.61776
997.39        69.69559
997.77        70.21886
998.15        71.57759
998.54        73.53813
998.92        75.78307
999.30        77.98711
999.68        80.32579
1000.06        82.08112
1000.45        81.91263
1000.83        79.84772
1001.21        76.31593
1001.59        72.66785
1001.97        70.73872
1002.35        70.85005
1002.73        72.52695
1003.12        75.02493
1003.50        76.98062
1003.88        77.76688
1004.26        77.83788
1004.64        77.41176
1005.02        76.88961
1005.40        76.39544
1005.78        75.51962
1006.16         74.6119
1006.54        74.33838
1006.92        74.80047
1007.30        76.09108
1007.69          77.037
1008.07        75.55455
1008.45        71.59884
1008.83        66.35206
1009.21        61.94828
1009.59        60.61861
1009.97        62.52614
1010.35        67.26347
1010.73         73.4185
1011.11         77.3634
1011.49        77.30716
1011.86        73.81698
1012.24        69.45937
1012.62         68.3167
1013.00        71.63266
1013.38         78.9424
1013.76        87.65445
1014.14        90.75414
1014.52        86.26157
1014.90        78.03502
1015.28        70.64977
1015.66        68.08534
1016.04        70.57524
1016.41        77.23469
1016.79        86.82006
1017.17        95.93064
1017.55        101.5278
1017.93        103.9579
1018.31         102.256
1018.69         96.1926
1019.06        87.59799
1019.44        78.40278
1019.82        70.93583
1020.20        66.75278
1020.58        65.37309
1020.95        66.40905
1021.33        69.07159
1021.71        71.29164
1022.09        71.94954
1022.46        71.13087
1022.84        70.24636
1023.22         71.2261
1023.60        74.65582
1023.97        80.81098
1024.35        87.32946
1024.73        87.38063
