SpectraSmart Spectrum 2.9.0.0
--------- Device Information -----------
Spectrum Name :  反射率_0
Saving Time :  2024/05/03 20:21:30
Spectro-Module Model Name : SE2030-DUVN
Spectro-Module Serial Number : OS361AC55029948
Wavelength Start : 200
Wavelength End : 1025
Wavelength Unit : Wavelength(nm)
Spectrum Unit : Reflectance(%)
-----------Spectrum Setting ------------
Integration Time : 20ms
Average : 10
Boxcar : 0
Background removal :  enabled
linearity correction :  enabled
SC :  disabled
Intensity correction :  disabled
DWT denoise :  enabled
savitzky-golay :  disabled
FFT :  disabled
Running average :  disabled
Kalman :  disabled
High pass :  disabled
---------------BEGIN--------------------
Wavelength(nm)             Reflectance(%)
200.29               0
200.75        13.80666
201.21       0.4543621
201.67        1067.095
202.13        68.12646
202.58        50.48871
203.04         43.8606
203.50        41.21466
203.96        42.76017
204.42        50.75562
204.88        82.98979
205.34        -1110.92
205.80       -91.89788
206.26       -117.0136
206.72       -34607.44
207.18         148.218
207.64        104.7834
208.10        105.9494
208.55        153.0512
209.01        596.2153
209.47         576.764
209.93        77.28558
210.39         35.3403
210.85        26.01601
211.31        24.61769
211.77        27.02681
212.23        36.10396
212.69        60.37325
213.14        74.58521
213.60        39.13328
214.06        18.38974
214.52        11.47148
214.98        11.68375
215.44         18.6336
215.90        48.00447
216.36       -391.8676
216.81       -95.83821
217.27       -113.2954
217.73       -215.3172
218.19        -805.047
218.65       -15457.74
219.11       -989.9276
219.57       -201.5837
220.02       -70.05574
220.48       -89.00208
220.94        148.0425
221.40        69.57267
221.86        60.41941
222.32        59.11333
222.77        60.58723
223.23        65.28442
223.69        72.48587
224.15        74.31471
224.61        67.08856
225.06        57.32631
225.52        51.03007
225.98        49.63787
226.44        52.12927
226.90        57.69877
227.36        65.27673
227.81        70.02361
228.27        68.77186
228.73         64.2188
229.19        58.50064
229.65        53.09209
230.10        48.40752
230.56        44.57963
231.02        41.94226
231.48        41.11137
231.93        41.74525
232.39        43.41734
232.85        45.40171
233.31        46.73892
233.77        47.21738
234.22        47.08617
234.68        46.69733
235.14        46.64565
235.60         47.1369
236.05        48.05728
236.51         49.0941
236.97        49.79627
237.43        49.96468
237.88        49.94003
238.34        50.04194
238.80        50.60064
239.26        51.92546
239.71        56.25323
240.17        62.07767
240.63        71.35109
241.08        79.96606
241.54          83.925
242.00        84.99676
242.46        89.45457
242.91        100.9958
243.37         122.073
243.83        158.4971
244.28        199.8924
244.74        208.6039
245.20        182.1046
245.66        141.9406
246.11        108.1467
246.57        84.41254
247.03        66.78111
247.48        54.22745
247.94        44.62061
248.40        36.65768
248.85        29.66082
249.31        25.87331
249.77        29.37364
250.22        38.45483
250.68        49.05518
251.14        57.94854
251.59         64.0214
252.05        68.46982
252.51        72.37661
252.96        76.58089
253.42        81.26151
253.88        84.82402
254.33        85.39823
254.79        83.81611
255.25        80.69947
255.70        77.06753
256.16        74.41891
256.62        72.23517
257.07        70.11315
257.53         68.2783
257.99        66.15902
258.44        63.75372
258.90        61.75537
259.35        59.83262
259.81         58.3748
260.27        56.81326
260.72        54.63302
261.18        52.34573
261.63        49.99059
262.09        48.16944
262.55        47.13038
263.00        46.66978
263.46        46.59683
263.91        46.47538
264.37        45.99082
264.83        45.04707
265.28        43.80961
265.74        42.49516
266.19         41.1481
266.65        39.91605
267.11        38.72056
267.56        37.62555
268.02        36.80161
268.47        36.20892
268.93        35.82449
269.38        35.50511
269.84        35.01225
270.30        34.31644
270.75        33.47372
271.21         32.6811
271.66        32.13458
272.12        31.86253
272.57        31.75661
273.03        31.62939
273.48        31.22057
273.94        30.50041
274.39        29.57522
274.85        28.63848
275.31        27.87381
275.76        27.31231
276.22         26.9254
276.67        26.62077
277.13        26.37723
277.58        26.10884
278.04        25.83878
278.49        25.49681
278.95        25.04901
279.40        24.48568
279.86        23.90074
280.31        23.29734
280.77        22.77337
281.22        22.29082
281.68        21.87093
282.13        21.50321
282.59        21.23101
283.04        21.04451
283.50         20.9496
283.95        20.89981
284.41        20.84502
284.86        20.76305
285.32         20.6882
285.77        20.63497
286.22        20.67961
286.68        20.83157
287.13        21.02757
287.59        21.24034
288.04        21.39643
288.50        21.49264
288.95         21.5248
289.41        21.51436
289.86        21.45076
290.32        21.37114
290.77        21.28553
291.22        21.23088
291.68        21.24695
292.13        21.35238
292.59        21.57851
293.04        21.95138
293.50         22.5135
293.95        23.25132
294.40        24.14279
294.86        25.16197
295.31        26.28107
295.77        27.50011
296.22        28.82023
296.68        30.20899
297.13        31.59646
297.58        32.93459
298.04        34.23957
298.49        35.52413
298.95        36.87777
299.40        38.32012
299.85        39.85136
300.31         41.4982
300.76        43.25804
301.21        45.13326
301.67        47.12863
302.12        49.16642
302.58        51.14803
303.03        53.00755
303.48        54.76606
303.94        56.52141
304.39        58.35953
304.84        60.34721
305.30        62.44732
305.75        64.56228
306.20        66.57686
306.66        68.45945
307.11        70.19679
307.57        71.83954
308.02        73.34425
308.47         74.7704
308.93        76.12981
309.38         77.4599
309.83         78.9126
310.29        80.50243
310.74        82.16119
311.19        83.76189
311.65        85.08006
312.10         86.0323
312.55        86.67935
313.00        87.13216
313.46        87.58307
313.91        88.07587
314.36        88.61325
314.82        89.16279
315.27        89.63753
315.72        90.04427
316.18        90.42558
316.63        90.87498
317.08        91.54708
317.53        92.45669
317.99        93.52583
318.44        94.60781
318.89        95.40489
319.35        95.83484
319.80        95.97905
320.25         95.9858
320.70          96.124
321.16        96.45276
321.61        96.90646
322.06        97.38461
322.51        97.72478
322.97        97.87053
323.42        97.92166
323.87        97.89917
324.32        97.84151
324.78        97.77244
325.23        97.71434
325.68        97.72938
326.13        97.94087
326.59        98.34123
327.04        98.94943
327.49        99.63664
327.94        100.2163
328.39        100.6219
328.85        100.8489
329.30        101.0233
329.75        101.2323
330.20        101.5152
330.66        101.8155
331.11        102.1404
331.56        102.3862
332.01        102.5506
332.46        102.6847
332.92        102.8325
333.37        103.1816
333.82        103.7234
334.27        104.3974
334.72        105.1392
335.17        105.8417
335.63        106.4175
336.08        106.9419
336.53        107.3296
336.98        107.5043
337.43        107.4811
337.88        107.3002
338.34        107.1066
338.79        107.1611
339.24        107.5277
339.69        108.1656
340.14        108.9592
340.59        109.7011
341.05        110.3176
341.50        110.8605
341.95        111.3962
342.40        112.0533
342.85        112.8476
343.30        113.7085
343.75        114.5184
344.20        115.1053
344.66        115.4511
345.11        115.6044
345.56         115.686
346.01        115.8729
346.46         116.218
346.91        116.6665
347.36        117.1757
347.81        117.6724
348.26        118.1265
348.72        118.5763
349.17        118.9741
349.62         119.269
350.07        119.4535
350.52        119.5211
350.97        119.5527
351.42        119.6924
351.87        119.9515
352.32        120.2745
352.77        120.5302
353.22        120.5082
353.67        120.1787
354.13        119.6629
354.58        119.0457
355.03        118.5309
355.48        118.1891
355.93        117.9746
356.38        117.8763
356.83        117.8747
357.28        117.9306
357.73        118.0213
358.18        118.0809
358.63        118.0019
359.08        117.7478
359.53        117.3396
359.98        116.7713
360.43        116.0537
360.88        115.2134
361.33        114.2559
361.78        113.2944
362.23        112.4894
362.68        111.8746
363.13        111.4356
363.58        111.0157
364.03         110.359
364.48        109.4246
364.93        108.2844
365.38        107.1753
365.83        106.4569
366.28        106.1885
366.73        106.2564
367.18        106.3576
367.63        106.0104
368.08        105.1082
368.53        103.8007
368.98        102.4249
369.43        101.4857
369.88        101.0959
370.33        101.1178
370.78        101.2362
371.23        100.9251
371.68        100.0632
372.13        98.83073
372.58        97.58621
373.03        96.86393
373.48        96.76335
373.93        97.08762
374.38        97.49206
374.83        97.41933
375.28        96.72118
375.72        95.56567
376.17        94.29275
376.62        93.24992
377.07        92.53082
377.52        92.01068
377.97        91.58401
378.42        91.10435
378.87        90.53322
379.32        89.94412
379.77        89.38083
380.22        88.87148
380.67        88.41409
381.11        88.00343
381.56        87.56706
382.01        87.08385
382.46         86.5657
382.91        86.03296
383.36        85.55286
383.81        85.21188
384.26        85.00834
384.71        84.90798
385.15        84.80344
385.60        84.55637
386.05        84.12759
386.50        83.56087
386.95        82.96197
387.40        82.48984
387.85        82.18584
388.29        81.97688
388.74        81.84222
389.19        81.56481
389.64        81.11134
390.09        80.53753
390.54        79.99379
390.98        79.63831
391.43        79.52892
391.88        79.72599
392.33        80.02934
392.78         79.7036
393.23        78.90932
393.67         78.7219
394.12        79.07452
394.57        78.65421
395.02        77.63274
395.47        77.35568
395.91        77.77561
396.36        77.76935
396.81        77.32397
397.26        77.06322
397.71        76.94291
398.15        76.72083
398.60        76.50302
399.05        75.99494
399.50        75.41357
399.95        75.73904
400.39        76.71204
400.84        76.59812
401.29        75.51004
401.74        75.03117
402.18        75.25156
402.63        75.32533
403.08        75.27419
403.53        74.88985
403.97         75.2133
404.42        75.26379
404.87        75.31937
405.32        75.22893
405.76        74.95437
406.21        74.76857
406.66         74.6188
407.11        73.96693
407.55          73.071
408.00        73.03803
408.45        73.75552
408.90        73.94714
409.34        73.49703
409.79        73.12154
410.24        72.94021
410.68        72.81198
411.13        72.77264
411.58        72.85708
412.03         72.9425
412.47        72.83889
412.92        72.49319
413.37        71.97616
413.81        71.47547
414.26        71.34665
414.71        71.60136
415.15        72.18562
415.60        72.79153
416.05        72.96815
416.49        72.59931
416.94        71.85435
417.39        71.06696
417.83        70.71581
418.28          70.911
418.73         71.4882
419.17        72.21587
419.62        72.64384
420.07        72.63211
420.51        72.29808
420.96        71.83208
421.41        71.38274
421.85        70.99018
422.30        70.82954
422.74        70.77236
423.19        70.44122
423.64        69.94655
424.08        70.08318
424.53        70.76525
424.98        71.18019
425.42        71.24496
425.87        71.49749
426.31        71.91515
426.76        71.86833
427.21        71.51303
427.65        71.73743
428.10        72.37811
428.54        72.52525
428.99        72.21621
429.44        71.83121
429.88        71.49721
430.33        71.62954
430.77        71.99149
431.22        71.86035
431.66        71.29346
432.11        71.11784
432.56        71.34853
433.00        71.63784
433.45          71.812
433.89        72.32668
434.34        69.99229
434.78        72.19785
435.23        72.21493
435.67         70.6668
436.12        70.59326
436.57        70.62782
437.01        71.84735
437.46        72.66994
437.90        72.18732
438.35        71.81419
438.79        71.98935
439.24        71.83768
439.68        71.57575
440.13        71.46039
440.57         71.5576
441.02        71.60668
441.46        71.52279
441.91         71.9587
442.35        72.54811
442.80        71.89906
443.24        70.45106
443.69        70.71734
444.13         72.4169
444.58        73.01772
445.02        72.38842
445.47        71.95801
445.91        71.90443
446.36        71.93043
446.80        72.05771
447.24        72.36965
447.69        72.72402
448.13        72.89072
448.58        72.82912
449.02        72.57844
449.47        72.27415
449.91        72.07177
450.36        72.03413
450.80         72.1286
451.25        72.29105
451.69        72.27171
452.13        72.10275
452.58        72.09232
453.02        72.20967
453.47        72.20757
453.91        72.06223
454.36        71.92142
454.80        71.82585
455.24        71.70244
455.69        71.55866
456.13        71.57731
456.58        71.76001
457.02        71.24095
457.46        71.18582
457.91        70.98674
458.35        70.92535
458.79        70.97776
459.24        71.06152
459.68          70.724
460.13        70.11716
460.57        69.90599
461.01        70.19579
461.46        69.92017
461.90        70.24322
462.34        70.20724
462.79        69.42025
463.23        69.19595
463.68        69.31575
464.12         69.2868
464.56        69.07706
465.01        69.12292
465.45        69.32001
465.89        69.29521
466.34        69.10003
466.78        69.21738
467.22        69.55729
467.67        69.32943
468.11         69.1007
468.55        68.99059
468.99        69.14088
469.44        69.10415
469.88        68.88957
470.32         68.7356
470.77        68.66712
471.21        68.65216
471.65        68.67233
472.10        68.71658
472.54        68.77809
472.98        68.82916
473.42        68.84696
473.87        68.98697
474.31        69.07645
474.75        68.62428
475.20        67.84424
475.64        67.33635
476.08        67.55666
476.52        67.49378
476.97        67.24487
477.41        67.28105
477.85        67.60382
478.29         67.7878
478.74        67.70863
479.18        68.32384
479.62        68.14045
480.06         68.1853
480.50        68.00178
480.95        67.85095
481.39        67.78387
481.83        67.21849
482.27        67.28312
482.72        67.37621
483.16        67.40718
483.60        67.41423
484.04        67.74751
484.48        67.66727
484.93        67.22173
485.37        68.13333
485.81        68.58743
486.25        67.79353
486.69        69.91134
487.14        70.35905
487.58        67.13409
488.02        66.65767
488.46        68.66637
488.90         66.9319
489.34        67.16926
489.79        67.33029
490.23         67.4951
490.67        67.74088
491.11          67.592
491.55        67.48661
491.99        67.40405
492.43        67.33528
492.88        67.30009
493.32        67.34315
493.76         67.4351
494.20        67.45567
494.64        67.37354
495.08        67.40051
495.52         67.5183
495.96        67.21861
496.41        66.70322
496.85        67.07037
497.29        68.07236
497.73        68.24596
498.17        67.59982
498.61        67.27101
499.05        67.36081
499.49        67.32512
499.93        67.17306
500.37        67.13373
500.82        67.16548
501.26        67.15157
501.70        67.06627
502.14        66.93509
502.58        66.80759
503.02        66.69307
503.46        66.75045
503.90        66.82285
504.34        66.91318
504.78        66.95138
505.22        66.89906
505.66         66.8269
506.10        66.76849
506.54        66.62985
506.98        66.39041
507.42        66.76854
507.86        66.29508
508.30        66.55888
508.74        66.29372
509.18        66.22331
509.62         66.1327
510.06        66.12781
510.50        66.22545
510.94        66.39277
511.38        66.56307
511.82        66.60232
512.26        66.48908
512.70        66.27155
513.14        66.03224
513.58        65.90333
514.02        65.91159
514.46        65.99893
514.90        66.12561
515.34        66.22408
515.78        66.26854
516.22        66.30203
516.66        66.27744
517.10        66.11579
517.54        65.82674
517.98         65.4328
518.42         65.0957
518.86        65.06738
519.30        65.38081
519.74         65.9756
520.18        66.62872
520.62        66.90302
521.06        66.73782
521.50        66.39948
521.93        66.02196
522.37        65.70827
522.81        65.52681
523.25        65.48777
523.69        65.55537
524.13        65.63251
524.57         65.6929
525.01        65.78606
525.45        65.88177
525.89        65.92051
526.32        65.88914
526.76        65.79221
527.20        65.69861
527.64        65.73456
528.08        65.91737
528.52        66.20985
528.96        66.49255
529.40        66.57626
529.83        66.41463
530.27        66.08173
530.71        65.71513
531.15        65.53642
531.59        65.59409
532.03        65.82685
532.46        66.09364
532.90        66.16713
533.34         66.0079
533.78        65.71347
534.22        65.41866
534.66        65.31827
535.09        65.43617
535.53        65.69207
535.97        66.00606
536.41        66.20652
536.85        66.23088
537.28        66.30948
537.72        66.38048
538.16         65.9334
538.60        65.19836
539.04        65.10434
539.47        65.57046
539.91        65.73163
540.35        65.54845
540.79        65.55196
541.22        65.70925
541.66        65.76317
542.10         65.7041
542.54        65.50401
542.97        65.25887
543.41        65.37166
543.85        65.74921
544.29        65.85754
544.72        65.66095
545.16        65.56377
545.60        65.55603
546.04        65.41024
546.47        65.18182
546.91        65.09047
547.35        65.16021
547.79        65.33207
548.22        65.54537
548.66        65.73953
549.10         65.8811
549.53        66.05511
549.97          66.222
550.41        66.25528
550.84        66.12167
551.28        65.95574
551.72        65.81116
552.15        65.53065
552.59         65.1293
553.03        65.46238
553.46        65.05972
553.90        65.13237
554.34        65.19717
554.77        65.39793
555.21        65.37222
555.65        65.51787
556.08        65.70081
556.52        65.85316
556.96        65.91941
557.39        65.82202
557.83        65.63678
558.27        65.52226
558.70        65.50262
559.14         65.5298
559.57        65.56383
560.01         65.5612
560.45        65.53612
560.88        65.60311
561.32        65.76382
561.75        65.86588
562.19        65.92959
562.63        65.85825
563.06        65.70109
563.50        65.90048
563.93         66.3147
564.37        66.12568
564.80        65.47424
565.24        65.43233
565.68        65.89688
566.11        66.02453
566.55        65.81197
566.98        65.61268
567.42        65.51255
567.85        65.75121
568.29        65.87572
568.72        65.96815
569.16        65.96649
569.60        66.02542
570.03        66.09454
570.47        66.21697
570.90        66.42093
571.34         66.0587
571.77        66.62052
572.21        66.49604
572.64         66.7542
573.08        66.15756
573.51        66.69943
573.95        66.44549
574.38        66.35926
574.82        65.26972
575.25        67.06466
575.69        67.17247
576.12        66.94813
576.56        65.83748
576.99        66.10387
577.42        67.30672
577.86        66.62234
578.29         66.8306
578.73        66.94587
579.16        67.00023
579.60        66.88831
580.03        66.78736
580.47         66.6141
580.90        66.79581
581.33         66.3054
581.77        66.52919
582.20         67.6838
582.64        67.57299
583.07        67.50993
583.51         66.9606
583.94        66.59454
584.37        66.29909
584.81        66.29317
585.24        66.28159
585.68         67.3107
586.11        66.63388
586.54        66.79163
586.98         66.2374
587.41        65.72398
587.85        66.40507
588.28        66.93285
588.71        66.64899
589.15        66.43546
589.58        66.47642
590.01        65.99208
590.45        65.74109
590.88        66.37463
591.31         66.6697
591.75        66.74438
592.18        66.47915
592.61        66.08488
593.05        65.90445
593.48        66.90674
593.91        66.75929
594.35        66.91048
594.78        66.69328
595.21        66.52258
595.65        66.49004
596.08        66.50076
596.51        66.77932
596.94        66.76805
597.38        66.56392
597.81        65.90524
598.24        66.86679
598.68        66.58421
599.11        65.45346
599.54        67.09991
599.97        66.49569
600.41        66.59663
600.84        66.48946
601.27        66.70982
601.70        66.46674
602.14        66.57832
602.57         66.4363
603.00        66.66481
603.43         66.5955
603.87        66.38347
604.30        66.56303
604.73        66.54543
605.16        66.26974
605.60        66.06779
606.03        65.96667
606.46        66.10101
606.89        65.90886
607.32        66.36938
607.76        65.88008
608.19        66.17894
608.62        66.17841
609.05        66.12352
609.48        66.02228
609.92        66.10482
610.35        65.58235
610.78         66.7991
611.21        67.45306
611.64        66.95455
612.07        66.79523
612.50        66.71927
612.94        66.52439
613.37        66.23167
613.80        66.43771
614.23        66.21584
614.66        66.29094
615.09        66.37389
615.52         66.4407
615.96        66.46822
616.39        66.55006
616.82        66.57254
617.25         66.4848
617.68         66.7651
618.11        66.34438
618.54        65.61238
618.97        65.54056
619.40        66.14491
619.84        66.25768
620.27        66.34396
620.70        66.57928
621.13        67.05096
621.56        66.56577
621.99        65.95875
622.42        65.79128
622.85         66.3273
623.28        65.96778
623.71        65.96761
624.14        66.17614
624.57         65.1913
625.00        65.41145
625.43        65.62751
625.86        65.82868
626.29        66.13098
626.72        66.41872
627.15        66.39746
627.58        66.36983
628.01        66.23395
628.44        66.05189
628.87        65.83693
629.30        65.54251
629.73        65.85143
630.16        65.88403
630.59        65.71529
631.02        65.62763
631.45        65.63568
631.88        65.71455
632.31        65.85573
632.74        66.06074
633.17         66.2486
633.60        66.28878
634.03        66.15666
634.46        65.89424
634.89        65.58733
635.32        65.37789
635.75        65.30709
636.18        65.33213
636.61        65.41113
637.04        65.47926
637.47        65.51454
637.89         65.5266
638.32        65.48682
638.75        65.45087
639.18         65.4401
639.61        65.18027
640.04        65.18445
640.47        65.10176
640.90        65.09097
641.33        65.12751
641.76        65.21777
642.18        65.36875
642.61        65.54002
643.04        65.73299
643.47        65.89925
643.90        65.96397
644.33        65.90816
644.76        65.76087
645.18        65.58661
645.61        65.40384
646.04        65.24173
646.47        65.25525
646.90         65.4716
647.33        65.17474
647.75         65.5824
648.18        65.59747
648.61         65.6422
649.04        65.91813
649.47        66.34753
649.89        66.61088
650.32        66.57417
650.75        66.30511
651.18        65.93743
651.61        65.60524
652.03        65.48497
652.46        65.84299
652.89        66.36308
653.32         66.4798
653.74        66.32825
654.17        65.27976
654.60        65.10486
655.03        66.34793
655.46        65.96248
655.88        64.89618
656.31        68.46548
656.74        73.58846
657.16        69.80542
657.59        65.90753
658.02        66.39849
658.45        66.96552
658.87         67.0839
659.30        66.02697
659.73        65.50112
660.15        65.88724
660.58        65.33252
661.01        65.47314
661.44        65.49158
661.86        65.26711
662.29        64.85482
662.72        64.96293
663.14         65.5169
663.57        65.43655
664.00        64.85214
664.42        64.84031
664.85        65.37754
665.27        65.60857
665.70         65.4755
666.13        65.45255
666.55        65.53885
666.98        65.47137
667.41        65.30984
667.83        65.24805
668.26        65.30505
668.69        65.45795
669.11        65.60589
669.54        65.57433
669.96        65.34177
670.39        64.97405
670.82        64.66151
671.24        64.66073
671.67        65.01164
672.09        65.67586
672.52        66.44697
672.94        66.58039
673.37        66.73176
673.80        66.20569
674.22          65.483
674.65        65.09859
675.07        65.17613
675.50        65.47572
675.92         65.8428
676.35         66.0463
676.77        66.02103
677.20        65.85704
677.62        65.64758
678.05        65.53535
678.47        65.55592
678.90        65.65045
679.32        65.78422
679.75        65.95026
680.17        66.12647
680.60        66.28316
681.02        66.35542
681.45        66.51421
681.87        66.10998
682.30        66.04745
682.72        66.12778
683.15        65.99181
683.57        65.71875
684.00        65.78284
684.42        66.12305
684.85        66.27797
685.27        66.20773
685.70        66.07275
686.12         65.9203
686.54        65.97458
686.97         66.1612
687.39        66.06149
687.82        65.69325
688.24        65.54656
688.66        65.66193
689.09        65.53929
689.51        65.59756
689.94        65.67715
690.36        65.91833
690.78         66.1221
691.21        66.16676
691.63        66.75208
692.06        66.18922
692.48        66.40078
692.90        66.78305
693.33         66.8495
693.75         66.5817
694.17        66.17005
694.60        65.76955
695.02        66.02692
695.44        66.04349
695.87        66.58578
696.29         67.1582
696.71        67.23563
697.14        66.80245
697.56        66.29057
697.98        65.91436
698.41        65.70467
698.83        65.69618
699.25        65.98457
699.68        66.40369
700.10        66.67112
700.52        66.68497
700.94        66.54066
701.37        66.33224
701.79        66.23309
702.21        66.27811
702.64        66.40667
703.06        66.55364
703.48        66.62807
703.90        66.61231
704.33        66.55125
704.75         66.4873
705.17        66.46637
705.59        66.50159
706.01        66.56106
706.44        66.65352
706.86         66.7959
707.28        66.95338
707.70        67.20756
708.12        67.47292
708.55        67.39862
708.97        67.05955
709.39        66.97948
709.81        67.16022
710.23        67.17632
710.66        67.02145
711.08        66.98055
711.50        67.05709
711.92        67.13975
712.34        67.22144
712.76        67.32887
713.19        67.41825
713.61        67.47561
714.03        67.46527
714.45        67.38811
714.87        67.27715
715.29        67.18832
715.71        67.13258
716.13        67.09843
716.56        67.04138
716.98        66.95632
717.40        66.82318
717.82        66.66934
718.24        66.53938
718.66         66.5014
719.08        66.56505
719.50        66.69286
719.92        66.86044
720.34        67.02898
720.76        67.18059
721.19        67.31914
721.61        67.40996
722.03        67.39608
722.45        67.30643
722.87        67.00194
723.29        66.59222
723.71        66.70653
724.13        67.38707
724.55        66.99852
724.97        67.54158
725.39         67.5313
725.81        67.56164
726.23        67.42076
726.65        67.21071
727.07        67.15002
727.49        67.25652
727.91        67.48123
728.33        67.74732
728.75        67.92883
729.17        67.98482
729.59         67.9579
730.01        67.89717
730.43        67.87616
730.85        67.91661
731.27        67.98908
731.69        68.06641
732.10        68.11649
732.52        68.12513
732.94        68.10777
733.36        68.07266
733.78        68.02808
734.20        67.98828
734.62        67.96507
735.04        67.95904
735.46        67.96825
735.88        67.98555
736.30        68.00462
736.72        68.05788
737.13        68.15781
737.55        68.24875
737.97        68.50424
738.39        68.81955
738.81        68.60428
739.23        68.02436
739.65        68.11217
740.06        68.71548
740.48        68.79001
740.90        68.28236
741.32        67.79456
741.74        67.49416
742.16        67.38021
742.57        67.51937
742.99        67.88814
743.41        68.37048
743.83        68.76099
744.25        68.98798
744.67        69.07839
745.08        69.09863
745.50        69.12086
745.92        69.18967
746.34        69.27498
746.75        69.30925
747.17        69.21492
747.59        68.97712
748.01        68.61423
748.42        68.25931
748.84        68.11205
749.26        68.16871
749.68        68.42143
750.09        68.73746
750.51        68.59387
750.93         68.1706
751.35         68.4655
751.76        69.34789
752.18        69.64092
752.60        69.27762
753.01        68.90989
753.43        68.69102
753.85        68.60658
754.27        68.69767
754.68        68.93773
755.10        69.23689
755.52        69.45157
755.93        69.56866
756.35        69.66513
756.77        69.67213
757.18        69.68004
757.60        69.75908
758.02        69.32614
758.43        68.63892
758.85        69.69152
759.26        71.28831
759.68        71.43289
760.10        70.37265
760.51         69.6983
760.93          69.731
761.34        69.79735
761.76        69.82242
762.18        69.50018
762.59        68.97533
763.01        69.06828
763.42        69.76074
763.84        69.99132
764.26        69.73638
764.67        69.56212
765.09        69.57822
765.50        69.65337
765.92         69.7652
766.33        69.67613
766.75        69.41129
767.16        69.44507
767.58        69.78651
768.00        70.21765
768.41        70.61913
768.83        70.98955
769.24        71.15986
769.66        70.59809
770.07        69.57402
770.49        69.13606
770.90         69.3202
771.32        69.49762
771.73        69.59813
772.15        69.81841
772.56        70.14175
772.97        70.43776
773.39        70.63777
773.80         70.7769
774.22        70.80412
774.63        70.73758
775.05        70.60245
775.46        70.50936
775.88        70.46928
776.29        70.48854
776.70        70.53664
777.12        70.55958
777.53         70.5653
777.95        70.55946
778.36        70.55997
778.77        70.55322
779.19        70.55171
779.60        70.56424
780.02        70.60177
780.43         70.7107
780.84        70.91564
781.26        71.07925
781.67        71.21459
782.09        71.53265
782.50        72.02881
782.91        71.77011
783.33        72.07835
783.74          71.918
784.15        71.67595
784.57        71.28213
784.98        70.88117
785.39        70.70978
785.81        70.80453
786.22        71.11382
786.63        71.48573
787.04        71.66769
787.46         71.6209
787.87        71.39474
788.28        71.14109
788.70        71.07549
789.11         71.2218
789.52        71.51528
789.93        71.84916
790.35        72.03966
790.76        72.06597
791.17        71.99584
791.58        71.88515
792.00        71.80766
792.41        71.82026
792.82         71.8433
793.23        71.92188
793.65        72.19377
794.06        72.63339
794.47        73.02551
794.88        73.21411
795.29        73.19247
795.71        72.90804
796.12        72.29864
796.53        71.58478
796.94        71.36186
797.35        71.70243
797.76        72.20821
798.18        72.64053
798.59        72.91987
799.00        72.92597
799.41        72.60793
799.82        72.16099
800.23        71.97908
800.64        72.14338
801.06         72.4883
801.47        72.92882
801.88        73.19636
802.29        73.19935
802.70        73.02465
803.11        72.75181
803.52         72.4941
803.93        72.30199
804.34        72.14833
804.75        72.03571
805.17        71.94843
805.58        71.90539
805.99        71.94888
806.40        72.07568
806.81        72.12884
807.22        72.14616
807.63        72.42487
808.04        72.86675
808.45        72.99425
808.86        72.74532
809.27         72.3638
809.68        71.98914
810.09        71.77132
810.50        71.78032
810.91          71.979
811.32        72.27584
811.73        72.50922
812.14        72.62386
812.55        72.66587
812.96        72.66451
813.37        72.67229
813.78        72.70943
814.19        72.74303
814.60        72.77715
815.01        72.83185
815.42        72.90717
815.83        73.00378
816.24        73.09702
816.65        73.13116
817.05        73.09685
817.46        72.98351
817.87        72.85244
818.28        72.74095
818.69        72.66486
819.10        72.61339
819.51        72.60622
819.92        72.67629
820.33        72.81516
820.74        72.99756
821.14        73.16576
821.55        73.25384
821.96        73.23692
822.37        73.14989
822.78        73.01126
823.19        72.85905
823.60        72.72762
824.00        72.62868
824.41        72.59272
824.82        72.74912
825.23        73.10249
825.64        73.60739
826.04        74.16201
826.45        74.48793
826.86        74.54245
827.27        74.39001
827.68        74.10275
828.08        73.83598
828.49        73.61166
828.90        73.41576
829.31        73.30083
829.72        73.34735
830.12        73.59002
830.53        73.96176
830.94        74.35506
831.35        74.52134
831.75        74.40594
832.16        74.00766
832.57        73.51048
832.97        73.18803
833.38         73.1171
833.79        73.23452
834.20        73.39121
834.60         73.3394
835.01        73.05688
835.42        72.64202
835.82        72.28359
836.23        72.23154
836.64        72.56413
837.04        73.20846
837.45        73.95582
837.86         74.5758
838.26         74.9638
838.67        75.11648
839.08        75.07109
839.48        74.87692
839.89        74.57562
840.29        74.14738
840.70        73.67175
841.11        73.20486
841.51        72.80608
841.92        72.50584
842.33        72.32398
842.73        72.27877
843.14        72.32916
843.54        72.47115
843.95        72.75693
844.35        73.31959
844.76        74.09263
845.17        75.01354
845.57         75.8503
845.98        76.06969
846.38        75.62251
846.79        74.69609
847.19        73.57985
847.60        72.74886
848.00         72.3394
848.41        72.19647
848.81        72.36292
849.22        72.78872
849.62        73.44878
850.03        74.29019
850.43        75.05746
850.84        75.18097
851.24         74.5959
851.65        73.42659
852.05        72.07889
852.46        71.24626
852.86        71.09616
853.27        71.45047
853.67        72.01901
854.07        72.59354
854.48        73.03293
854.88         73.4961
855.29        73.78592
855.69        73.76727
856.10        73.31302
856.50        72.52029
856.90        71.65812
857.31        71.18174
857.71        71.22406
858.12          71.648
858.52        72.28251
858.92        72.59025
859.33        72.40111
859.73        71.91019
860.13        71.34497
860.54        71.09888
860.94        71.30289
861.34        71.79015
861.75        72.33667
862.15        72.67982
862.55        72.67703
862.96        72.43683
863.36        72.04903
863.76         71.6635
864.17        71.34219
864.57        71.07646
864.97        70.84517
865.38        70.60438
865.78        70.38288
866.18        70.17028
866.58        70.04118
866.99        70.10603
867.39        70.38556
867.79        70.80965
868.19        71.18652
868.60        71.20341
869.00        70.82532
869.40        70.16896
869.80        69.46037
870.21        69.10664
870.61        69.25068
871.01        69.71503
871.41        70.35823
871.81        70.97704
872.22        71.47024
872.62        71.95558
873.02        72.34897
873.42        72.48441
873.82        72.34435
874.22        71.96591
874.63        71.59114
875.03        71.56582
875.43        71.95316
875.83        72.62389
876.23        73.36445
876.63        73.78268
877.03        73.78236
877.44        73.55984
877.84        73.14735
878.24        72.63144
878.64        72.08652
879.04        71.42153
879.44        70.95761
879.84         71.1748
880.24        72.08495
880.64        73.59753
881.04        75.00137
881.44         75.0161
881.84        73.42962
882.24        70.74799
882.65        68.06461
883.05        66.83463
883.45        67.38997
883.85        69.29704
884.25        71.81161
884.65        73.54537
885.05        73.98476
885.45         73.5158
885.85         72.6301
886.25        72.08847
886.65        72.10638
887.05        72.39282
887.45        72.70147
887.85         72.6845
888.25        72.24792
888.65        71.58522
889.04        70.87253
889.44        70.35748
889.84        70.10893
890.24        70.07872
890.64        70.18104
891.04        70.28619
891.44        70.35375
891.84        70.40678
892.24        70.56104
892.64        70.99159
893.04        71.71533
893.44        72.66944
893.83        73.62988
894.23        74.14214
894.63        74.12298
895.03        73.64693
895.43        73.04693
895.83        72.85973
896.23        73.20153
896.63        73.93964
897.02        74.65786
897.42        74.67932
897.82        73.89333
898.22         72.5415
898.62        71.16843
899.01        70.51958
899.41        70.76041
899.81        71.70776
900.21        72.84892
900.61        73.22646
901.00        72.58266
901.40         71.3026
901.80        70.07161
902.20        69.83645
902.59        70.78935
902.99        72.60822
903.39        74.71596
903.79        75.87552
904.18        75.65692
904.58        74.52171
904.98        73.13604
905.38        72.41376
905.77        72.55059
906.17        73.24684
906.57        74.22645
906.96        75.08654
907.36         75.5952
907.76        75.90885
908.15        76.03267
908.55        75.86552
908.95        75.47018
909.34        74.85532
909.74        74.17341
910.14        73.63882
910.53        73.31786
910.93        73.19685
911.33        73.27357
911.72         73.5285
912.12        73.91594
912.52        74.42602
912.91        74.94925
913.31        75.28408
913.70        75.40538
914.10          75.286
914.49        75.05956
914.89        74.89288
915.29        74.86777
915.68        74.94607
916.08        75.03874
916.47        74.94511
916.87        74.66285
917.26        74.21413
917.66        73.79723
918.05         73.6841
918.45        73.88895
918.84        74.39748
919.24        74.85676
919.64        74.77801
920.03        74.07277
920.42        72.91862
920.82        71.82674
921.21        71.36694
921.61        71.64896
922.00        72.54149
922.40        73.63976
922.79        74.32332
923.19        74.33907
923.58        73.89261
923.98        73.35403
924.37        73.23713
924.77        73.66455
925.16        74.47699
925.55        75.38344
925.95         75.8639
926.34        75.79099
926.74        75.30933
927.13        74.64333
927.52        74.11787
927.92        73.83743
928.31         73.7066
928.70        73.65253
929.10        73.53826
929.49        73.35764
929.89        73.19597
930.28        73.13267
930.67        73.23571
931.07        73.50068
931.46        73.86636
931.85        74.33947
932.24        74.97379
932.64        75.69952
933.03        76.54914
933.42        77.23085
933.82        77.30151
934.21        76.73399
934.60        75.67228
934.99         74.5569
935.39        74.02579
935.78        74.21101
936.17        74.91038
936.56        75.80986
936.96        76.36526
937.35         76.4356
937.74        76.17155
938.13        75.63486
938.53        74.91902
938.92        74.12317
939.31        73.31249
939.70        72.70177
940.09        72.64225
940.49        73.11871
940.88        73.99451
941.27        75.13108
941.66        76.26017
942.05        77.18002
942.44        77.96931
942.84        78.15916
943.23        77.02698
943.62        74.69682
944.01        71.61546
944.40        68.86182
944.79        67.79611
945.18        68.59303
945.57         70.9287
945.97        73.93999
946.36        76.09097
946.75        76.58128
947.14        75.82995
947.53        74.56269
947.92        74.00365
948.31        74.48843
948.70        75.52877
949.09        76.75737
949.48        77.61497
949.87        77.86971
950.26        77.78971
950.65        77.34082
951.04        76.41346
951.43        75.11598
951.82        73.52129
952.21        72.04289
952.60        71.30756
952.99        71.43375
953.38        72.28085
953.77        73.44495
954.16        74.19482
954.55        74.28086
954.94        73.84371
955.33        73.20895
955.72        72.93814
956.11        73.17883
956.50        73.76507
956.89        74.33813
957.28        74.33171
957.66        73.65187
958.05         72.5021
958.44        71.36756
958.83        70.99448
959.22        71.54638
959.61        72.76784
960.00        74.18543
960.39        74.96819
960.78        74.84882
961.16        74.09493
961.55        73.00869
961.94        72.05501
962.33        71.42707
962.72        70.99067
963.11         70.7879
963.49        70.92445
963.88        71.32671
964.27        71.99553
964.66         72.7495
965.04         73.2682
965.43        73.39951
965.82        73.25438
966.21         72.9157
966.60        72.55647
966.98        72.28669
967.37         72.0426
967.76        71.93772
968.15        72.14029
968.53        72.66543
968.92        73.40126
969.31        74.18158
969.69        74.69315
970.08        74.80181
970.47        74.61803
970.86        74.19524
971.24        73.63603
971.63        73.03165
972.02        72.42999
972.40        72.04223
972.79        72.16224
973.17        72.90256
973.56        74.06856
973.95        75.51323
974.33        77.03909
974.72        78.44387
975.11        79.76277
975.49        80.84779
975.88        81.26151
976.26        80.92006
976.65        79.87148
977.04        78.38065
977.42        76.76667
977.81        75.22041
978.19         73.7122
978.58        72.39362
978.96        71.26893
979.35        70.37524
979.74        69.67528
980.12        69.23788
980.51        69.03138
980.89         69.1091
981.28         69.4781
981.66        69.92568
982.05         70.0106
982.43        69.67976
982.82        68.98489
983.20         68.4853
983.59        69.06828
983.97        70.97058
984.35        73.98373
984.74        77.09566
985.12        78.67934
985.51        78.05825
985.89        75.82692
986.28        73.19093
986.66        71.55732
987.04        71.34243
987.43        71.99757
987.81        73.11994
988.20        73.75797
988.58        73.65224
988.96        73.24425
989.35        72.46416
989.73        71.28307
990.12        69.79812
990.50         67.9107
990.88         66.4266
991.27        66.57946
991.65        68.56048
992.03        72.27529
992.42        76.18262
992.80        77.34174
993.18        74.70232
993.56        69.57108
993.95        64.47404
994.33        62.01851
994.71        62.74268
995.10        65.86065
995.48        70.41313
995.86        73.61736
996.24        74.16821
996.63        72.98248
997.01        71.20827
997.39        70.43024
997.77        71.07243
998.15        72.45844
998.54        74.28607
998.92        76.16883
999.30        77.76991
999.68         79.2962
1000.06        80.22665
1000.45         79.5537
1000.83        77.41791
1001.21         74.2226
1001.59        71.00658
1001.97        69.13515
1002.35        68.87483
1002.73        69.87952
1003.12         71.7962
1003.50         73.9944
1003.88        75.99683
1004.26        77.91637
1004.64        79.46524
1005.02         80.2841
1005.40        80.26392
1005.78        79.20974
1006.16        77.60644
1006.54        76.37345
1006.92        75.76508
1007.30        75.78149
1007.69        75.57189
1008.07        73.68471
1008.45        70.17551
1008.83        65.99026
1009.21        62.68008
1009.59        61.80659
1009.97        63.45261
1010.35        67.33395
1010.73        72.31848
1011.11        75.50826
1011.49        75.47733
1011.86        72.65133
1012.24        69.15195
1012.62        68.36184
1013.00        71.30967
1013.38        77.60187
1013.76         85.1163
1014.14        88.02523
1014.52        84.58281
1014.90        77.94092
1015.28        71.78937
1015.66        69.30505
1016.04        70.63889
1016.41        75.02334
1016.79        81.43368
1017.17        87.49599
1017.55        91.08897
1017.93        92.63462
1018.31        91.22496
1018.69         86.2587
1019.06        79.07751
1019.44        71.35642
1019.82        65.26878
1020.20        62.41195
1020.58        62.38359
1020.95        64.84707
1021.33        68.64501
1021.71        70.73405
1022.09        69.75082
1022.46         66.3127
1022.84        62.78207
1023.22        62.15195
1023.60        65.22134
1023.97        72.07797
1024.35        80.65659
1024.73        83.63896
