SpectraSmart Spectrum 2.9.0.0
--------- Device Information -----------
Spectrum Name :  反射率_0
Saving Time :  2024/05/03 20:29:04
Spectro-Module Model Name : SE2030-DUVN
Spectro-Module Serial Number : OS361AC55029948
Wavelength Start : 200
Wavelength End : 1025
Wavelength Unit : Wavelength(nm)
Spectrum Unit : Reflectance(%)
-----------Spectrum Setting ------------
Integration Time : 20ms
Average : 10
Boxcar : 0
Background removal :  enabled
linearity correction :  enabled
SC :  disabled
Intensity correction :  disabled
DWT denoise :  enabled
savitzky-golay :  disabled
FFT :  disabled
Running average :  disabled
Kalman :  disabled
High pass :  disabled
---------------BEGIN--------------------
Wavelength(nm)             Reflectance(%)
200.29               0
200.75       -49.52034
201.21       -101.6614
201.67        3283.205
202.13        121.8899
202.58        76.29239
203.04        63.31546
203.50        58.80569
203.96        57.37698
204.42        58.01705
204.88        66.61104
205.34       -365.2605
205.80        -16.1456
206.26       -68.49495
206.72       -38340.54
207.18        214.8548
207.64        167.8453
208.10        173.8852
208.55        244.3773
209.01        881.6276
209.47        808.3978
209.93        118.1654
210.39        62.23653
210.85         51.4917
211.31        53.37667
211.77        64.14128
212.23        94.52373
212.69        176.3821
213.14        243.8318
213.60        145.8856
214.06        75.27385
214.52        47.12705
214.98        40.62072
215.44         48.8894
215.90        97.12468
216.36       -612.0748
216.81       -114.3168
217.27       -107.9862
217.73        -175.214
218.19       -607.7076
218.65        -11928.5
219.11       -864.7208
219.57       -231.3899
220.02       -137.3801
220.48       -252.6958
220.94        323.7642
221.40        111.6671
221.86        79.93301
222.32        70.18767
222.77        66.91177
223.23        66.94514
223.69        69.55396
224.15        71.80618
224.61        71.47169
225.06        70.06406
225.52        70.13725
225.98        72.82654
226.44        78.39742
226.90        86.61514
227.36        96.59917
227.81        103.3366
228.27         102.871
228.73         97.8767
229.19         90.8297
229.65        83.54043
230.10         76.6323
230.56        70.66278
231.02        66.06998
231.48        63.56797
231.93         62.8265
232.39        63.52325
232.85        64.75917
233.31        65.43909
233.77        65.34048
234.22         64.6584
234.68        64.16595
235.14        65.17945
235.60        68.04031
236.05        72.60149
236.51        77.40842
236.97        79.67439
237.43        78.52097
237.88        74.95352
238.34        71.19966
238.80        70.00905
239.26        72.32773
239.71        80.23677
240.17        93.72009
240.63        109.1135
241.08        115.7496
241.54        109.2062
242.00        98.20635
242.46        94.40904
242.91        100.7463
243.37        118.0215
243.83        150.9051
244.28         186.806
244.74        189.5276
245.20        160.5819
245.66         123.016
246.11        96.50726
246.57        82.48407
247.03        74.08727
247.48        69.34702
247.94        66.33607
248.40        63.88025
248.85        62.52324
249.31        61.40749
249.77        58.42001
250.22        54.50246
250.68        51.41656
251.14        50.44898
251.59        53.29858
252.05        61.01241
252.51        75.12722
252.96        98.15117
253.42        124.7992
253.88        142.5643
254.33        147.4207
254.79        141.0084
255.25        127.8104
255.70        114.0262
256.16        103.1967
256.62        96.08561
257.07        93.07925
257.53        93.29378
257.99        94.68124
258.44        95.69914
258.90        95.47436
259.35         93.4915
259.81        91.20722
260.27        88.61465
260.72        85.73734
261.18        83.32827
261.63        81.01758
262.09        79.37805
262.55        78.42365
263.00        77.87739
263.46         77.6515
263.91        77.40151
264.37         77.0912
264.83        76.55933
265.28        75.84468
265.74        74.86584
266.19        73.11861
266.65        70.83917
267.11        68.13402
267.56         65.5487
268.02        63.98904
268.47        63.47237
268.93        63.74425
269.38        64.19207
269.84        63.78011
270.30        62.31984
270.75        60.20377
271.21        58.04959
271.66        56.58146
272.12        55.95325
272.57        55.79415
273.03        55.84492
273.48        55.72931
273.94        55.31628
274.39        54.74441
274.85        53.94199
275.31        52.65063
275.76        50.92358
276.22        48.97412
276.67        47.17235
277.13        46.18992
277.58          45.968
278.04        46.31554
278.49        46.71957
278.95        46.45329
279.40        45.34923
279.86        43.82571
280.31        42.20949
280.77        41.07195
281.22        40.39744
281.68        40.05251
282.13        39.82709
282.59        39.53773
283.04        39.09385
283.50        38.61335
283.95        38.12846
284.41        37.72945
284.86         37.4115
285.32        37.18452
285.77        36.98197
286.22        36.79778
286.68        36.63556
287.13        36.44292
287.59        36.30785
288.04        36.27641
288.50        36.37074
288.95        36.54335
289.41        36.66953
289.86        36.49488
290.32        36.04201
290.77        35.39848
291.22         34.8321
291.68        34.70654
292.13        35.07679
292.59        35.86898
293.04        36.87373
293.50        37.75163
293.95        38.39327
294.40          38.904
294.86        39.47542
295.31        40.38874
295.77        41.71778
296.22        43.35215
296.68        45.11305
297.13        46.69526
297.58        47.97904
298.04        49.08053
298.49        50.09463
298.95         51.2453
299.40        52.57906
299.85        54.04694
300.31         55.6596
300.76        57.38642
301.21         59.2187
301.67        61.18225
302.12        63.15731
302.58        64.99424
303.03        66.61326
303.48        68.04635
303.94        69.47189
304.39        71.07195
304.84        72.92916
305.30        74.97668
305.75        77.00802
306.20         78.7513
306.66        80.16839
307.11        81.31143
307.57        82.37342
308.02        83.49535
308.47        84.77547
308.93        86.15688
309.38        87.57328
309.83        89.02798
310.29        90.49358
310.74         91.9507
311.19        93.31325
311.65        94.42019
312.10        95.21431
312.55        95.73311
313.00        96.09305
313.46        96.50294
313.91        96.99364
314.36        97.55645
314.82        98.13322
315.27        98.59051
315.72        98.92258
316.18         99.1896
316.63        99.47912
317.08        99.93967
317.53         100.602
317.99        101.4001
318.44        102.2506
318.89        102.9539
319.35        103.4455
319.80        103.7707
320.25        104.0115
320.70        104.3298
321.16        104.7458
321.61        105.2211
322.06        105.6594
322.51        105.9133
322.97        105.9434
323.42        105.8481
323.87        105.6882
324.32        105.5709
324.78        105.5327
325.23        105.5829
325.68        105.7417
326.13        106.0559
326.59        106.4908
327.04        107.0896
327.49        107.7352
327.94        108.2677
328.39        108.6334
328.85        108.8119
329.30        108.9497
329.75        109.1582
330.20          109.48
330.66        109.8532
331.11        110.2556
331.56        110.5234
332.01        110.6382
332.46        110.6621
332.92        110.6757
333.37        110.9377
333.82        111.4632
334.27        112.1911
334.72        113.0127
335.17        113.7441
335.63        114.2776
336.08        114.7009
336.53         115.016
336.98        115.2958
337.43        115.5665
337.88        115.8051
338.34        115.9859
338.79        116.1004
339.24        116.1613
339.69        116.2321
340.14        116.3722
340.59        116.6571
341.05        117.1069
341.50        117.6965
341.95        118.4263
342.40        119.3124
342.85        120.3098
343.30        121.3699
343.75        122.3404
344.20        122.9887
344.66        123.2902
345.11        123.3077
345.56        123.1886
346.01        123.1664
346.46        123.3216
346.91        123.5872
347.36        123.9735
347.81        124.4834
348.26        125.0876
348.72        125.8073
349.17        126.4758
349.62        126.8472
350.07        126.8828
350.52        126.6391
350.97        126.3361
351.42        126.3483
351.87        126.7283
352.32        127.3186
352.77          127.88
353.22        128.0321
353.67         127.686
354.13        127.0334
354.58        126.1479
355.03        125.2155
355.48        124.3477
355.93        123.5254
356.38        122.8812
356.83        122.6216
357.28        122.7473
357.73        123.1691
358.18        123.6745
358.63        123.9029
359.08        123.7387
359.53        123.2691
359.98        122.5537
360.43        121.7189
360.88        120.8276
361.33        119.8306
361.78        118.8396
362.23        118.0229
362.68        117.4042
363.13        116.9789
363.58        116.5417
364.03        115.7495
364.48        114.5555
364.93        113.0686
365.38        111.6056
365.83        110.6499
366.28        110.2927
366.73        110.3871
367.18        110.5785
367.63        110.2965
368.08        109.4018
368.53        108.0638
368.98        106.6392
369.43        105.6631
369.88        105.2548
370.33        105.2583
370.78        105.3343
371.23        104.9292
371.68        103.9125
372.13        102.4697
372.58         100.997
373.03        100.0773
373.48        99.82619
373.93        100.0577
374.38        100.3686
374.83        100.1062
375.28        99.11741
375.72        97.59745
376.17        96.03321
376.62        94.97961
377.07        94.55006
377.52        94.55647
377.97        94.67146
378.42        94.38386
378.87        93.58537
379.32         92.4712
379.77        91.35388
380.22        90.65147
380.67        90.43329
381.11        90.57162
381.56        90.76096
382.01        90.57794
382.46        89.92298
382.91        88.95624
383.36        87.95583
383.81        87.31278
384.26         87.1002
384.71        87.18348
385.15        87.32776
385.60        87.19727
386.05        86.69846
386.50        85.95004
386.95        85.14873
387.40        84.58062
387.85        84.31445
388.29        84.22066
388.74        84.20821
389.19        83.96808
389.64         83.4417
390.09         82.7062
390.54        81.97797
390.98        81.51695
391.43        81.41717
391.88        81.72184
392.33        82.13438
392.78        81.82779
393.23        80.96548
393.67        80.50959
394.12        80.54624
394.57        80.36163
395.02        79.96677
395.47        79.77464
395.91        79.75578
396.36        79.60129
396.81        79.32242
397.26        79.04311
397.71        78.74416
398.15        78.45119
398.60        78.28324
399.05        77.86118
399.50        77.34432
399.95        77.68581
400.39        78.60477
400.84        78.24811
401.29        76.83998
401.74        76.36911
402.18        76.87913
402.63        77.02751
403.08        76.82058
403.53        76.39908
403.97        76.83093
404.42        76.91151
404.87        76.87819
405.32        76.68204
405.76        76.31596
406.21        75.83306
406.66        75.31392
407.11        74.95685
407.55        74.83131
408.00         74.7455
408.45        74.68384
408.90        74.89362
409.34        75.18223
409.79        74.87546
410.24        74.14632
410.68        73.81728
411.13        73.94839
411.58        74.10613
412.03        74.14434
412.47        74.02576
412.92        73.69175
413.37        73.18976
413.81        72.68202
414.26        72.47678
414.71        72.58249
415.15        72.96399
415.60        73.37372
416.05        73.47004
416.49        73.16506
416.94        72.59331
417.39        72.00456
417.83        71.75176
418.28        71.91843
418.73        72.37794
419.17        72.95576
419.62        73.30344
420.07        73.31261
420.51        73.05872
420.96        72.69895
421.41        72.34432
421.85        72.01747
422.30        71.88566
422.74        71.81919
423.19         71.4921
423.64        70.99715
424.08         71.0063
424.53        71.47782
424.98        71.83079
425.42        72.01764
425.87         72.3777
426.31        72.85207
426.76        73.01602
427.21        72.91006
427.65        72.90789
428.10        72.96559
428.54        72.87975
428.99         72.7269
429.44        72.40345
429.88        72.01583
430.33        72.28645
430.77        72.86379
431.22        72.65005
431.66        71.76022
432.11        71.35683
432.56        71.51349
433.00        71.85387
433.45        72.21477
433.89        72.81712
434.34        70.33675
434.78         72.9561
435.23        72.79914
435.67        70.91795
436.12        71.19833
436.57         71.2216
437.01        72.43882
437.46        72.95016
437.90        72.76876
438.35         72.1426
438.79        72.39039
439.24        72.18595
439.68        71.91074
440.13        71.97717
440.57        72.35461
441.02        72.11298
441.46        71.34522
441.91        71.85714
442.35        73.20374
442.80        72.30582
443.24        71.10312
443.69        71.12399
444.13         72.6226
444.58        73.11745
445.02        72.51151
445.47        72.12379
445.91         72.0823
446.36         72.1141
446.80         72.2279
447.24        72.49673
447.69        72.80241
448.13        72.95914
448.58        72.93393
449.02        72.74718
449.47        72.50324
449.91        72.32714
450.36        72.27687
450.80        72.28652
451.25        72.32085
451.69        72.29363
452.13        72.18912
452.58        72.03527
453.02        71.86459
453.47        71.75624
453.91        71.72058
454.36         71.7412
454.80        71.73283
455.24        71.67863
455.69         71.6003
456.13        71.28217
456.58        70.82628
457.02        71.17529
457.46        71.21609
457.91         71.2506
458.35        70.93557
458.79        70.91814
459.24        71.09306
459.68          70.717
460.13        69.95161
460.57        69.57279
461.01        69.69566
461.46        69.63371
461.90        69.18888
462.34         70.0508
462.79        69.00883
463.23        69.01685
463.68        69.11677
464.12        69.10731
464.56        68.95769
465.01        68.92099
465.45         68.9628
465.89        68.94782
466.34        68.88504
466.78        68.88528
467.22        69.00678
467.67        68.65599
468.11        68.83537
468.55        68.65837
468.99         68.4582
469.44        68.32203
469.88        68.28307
470.32        68.28387
470.77        68.28412
471.21         68.2839
471.65        68.24209
472.10        68.14989
472.54        68.04204
472.98        67.92496
473.42        67.79159
473.87        67.88573
474.31        68.02658
474.75         67.4871
475.20        66.53608
475.64        66.36532
476.08        66.92567
476.52          67.113
476.97        66.86276
477.41         66.9152
477.85        67.28313
478.29        67.29017
478.74        67.19093
479.18        67.57225
479.62        67.49489
480.06          67.506
480.50        67.28875
480.95        67.15668
481.39        67.13347
481.83        66.59129
482.27        66.69073
482.72        66.66355
483.16        66.64885
483.60        66.77975
484.04        67.07825
484.48        67.04948
484.93        66.66313
485.37        67.84656
485.81        67.99349
486.25        67.61711
486.69        70.77733
487.14        70.27782
487.58        66.99835
488.02        66.52235
488.46        67.63711
488.90        66.31375
489.34        66.73677
489.79         66.9805
490.23        67.16255
490.67        67.27248
491.11        67.03226
491.55        66.95618
491.99        67.00962
492.43        66.94768
492.88        66.78477
493.32        66.74943
493.76         66.8429
494.20        66.88627
494.64        66.84215
495.08         66.9535
495.52        67.18408
495.96        66.90495
496.41        66.31958
496.85        66.75678
497.29        67.90313
497.73        67.85836
498.17        66.74024
498.61         66.3211
499.05        66.68968
499.49        66.77518
499.93        66.52027
500.37        66.36575
500.82        66.33943
501.26         66.1728
501.70        66.30051
502.14        66.27335
502.58        66.22472
503.02        66.21922
503.46         66.2584
503.90        66.29856
504.34        66.30825
504.78        66.26688
505.22        66.17053
505.66        66.02168
506.10        65.84929
506.54        65.77095
506.98        65.81538
507.42        65.82465
507.86        65.72514
508.30         66.1029
508.74        65.77115
509.18        65.70016
509.62        65.59895
510.06        65.59429
510.50         65.6948
510.94        65.87293
511.38        66.06484
511.82         66.1412
512.26        66.08155
512.70        65.90622
513.14        65.64992
513.58        65.50206
514.02        65.51473
514.46        65.28519
514.90        65.12029
515.34        65.47285
515.78        65.12766
516.22        65.15701
516.66        65.14976
517.10        65.09315
517.54        64.97755
517.98        64.82921
518.42        64.73182
518.86        64.78687
519.30        65.00859
519.74        65.35217
520.18        65.71062
520.62        65.91052
521.06        65.90492
521.50        65.74391
521.93        65.50251
522.37        65.32154
522.81        65.23757
523.25        65.21097
523.69        65.21351
524.13        65.19978
524.57        65.15705
525.01        65.11509
525.45        65.07598
525.89        65.03578
526.32        64.99722
526.76        64.96361
527.20        64.95708
527.64        65.04019
528.08        65.21748
528.52        65.41453
528.96        65.58134
529.40        65.76354
529.83        65.86997
530.27        65.66119
530.71        65.25128
531.15        65.06458
531.59        65.14809
532.03        65.31028
532.46        65.45111
532.90        65.48303
533.34        65.38211
533.78        65.19591
534.22        65.02198
534.66        65.00105
535.09        65.14085
535.53        65.38467
535.97        65.65427
536.41        65.77847
536.85        65.70551
537.28        65.66593
537.72        65.63264
538.16        65.15702
538.60        64.47466
539.04        64.48693
539.47        65.07272
539.91        65.30605
540.35        65.12902
540.79        65.08677
541.22        65.17902
541.66        65.20438
542.10         65.1705
542.54        65.03384
542.97        64.86008
543.41        65.01825
543.85        65.40616
544.29        65.46696
544.72        65.20428
545.16        65.15092
545.60        65.27213
546.04        65.16535
546.47        64.86246
546.91        64.70496
547.35        64.72269
547.79        64.73973
548.22        64.75964
548.66        64.95766
549.10        65.26789
549.53         65.5108
549.97         65.6285
550.41        65.67839
550.84        65.64321
551.28         65.4725
551.72        65.21861
552.15        65.00313
552.59        64.89085
553.03        64.82896
553.46        64.79787
553.90        64.84566
554.34        64.92993
554.77         64.9782
555.21        65.00487
555.65        65.08514
556.08        65.20615
556.52        65.33001
556.96        65.41386
557.39        65.43967
557.83        65.42869
558.27        65.33279
558.70        65.19396
559.14        65.20766
559.57        65.31322
560.01        65.25574
560.45        65.06856
560.88        64.98917
561.32        65.05056
561.75        65.16394
562.19        65.32993
562.63        65.25574
563.06        65.01726
563.50        65.35381
563.93        66.05598
564.37        65.89156
564.80        65.03507
565.24        64.93347
565.68        65.49755
566.11        65.65961
566.55        65.41824
566.98        65.26677
567.42        65.26106
567.85        65.51804
568.29        65.55287
568.72        65.59968
569.16        65.62867
569.60         65.6651
570.03        65.65564
570.47        66.04041
570.90        66.31954
571.34        65.76312
571.77        66.83334
572.21        66.29852
572.64        66.72054
573.08        66.11357
573.51         66.6385
573.95        66.51982
574.38        66.65002
574.82        65.49203
575.25        67.30701
575.69        67.77635
576.12        67.09622
576.56          66.068
576.99         66.4767
577.42        67.22636
577.86        66.70358
578.29         67.2224
578.73         67.1329
579.16        67.24248
579.60         67.1844
580.03        67.04251
580.47        66.65971
580.90        67.21669
581.33        66.31824
581.77        66.65821
582.20        68.15324
582.64        68.15962
583.07        68.07596
583.51        67.24136
583.94        66.44914
584.37        66.12059
584.81        66.49379
585.24        66.71913
585.68        67.71812
586.11        67.07383
586.54        67.36081
586.98        66.30655
587.41        66.21295
587.85        66.98272
588.28        67.06403
588.71        66.86736
589.15        66.23844
589.58        66.82283
590.01         65.7758
590.45        65.78497
590.88        66.22768
591.31         66.4992
591.75        66.53779
592.18        66.29504
592.61        66.01594
593.05         66.0488
593.48        67.39993
593.91        67.18496
594.35        67.16548
594.78        66.78392
595.21        66.56501
595.65        66.42557
596.08        66.32204
596.51        66.69054
596.94        66.57901
597.38        66.53246
597.81        66.22723
598.24        66.62948
598.68         66.5334
599.11        65.74234
599.54        67.30357
599.97         66.7738
600.41        66.55994
600.84           66.35
601.27        66.57452
601.70        66.44651
602.14         66.4014
602.57         66.4094
603.00        66.56473
603.43        66.64069
603.87        66.64208
604.30         66.6814
604.73        66.76296
605.16        66.47497
605.60        65.71823
606.03        65.77812
606.46        66.50676
606.89        66.00999
607.32        66.40758
607.76        65.69127
608.19        66.33118
608.62        66.50616
609.05        66.62172
609.48        66.45349
609.92        66.35369
610.35        65.47899
610.78        67.53814
611.21        67.61749
611.64        67.38477
612.07        67.04881
612.50        66.92813
612.94        66.74879
613.37        66.55646
613.80         66.4991
614.23         66.4644
614.66        66.47757
615.09         66.5064
615.52        66.56564
615.96        66.63414
616.39        66.68756
616.82        66.72543
617.25        66.57807
617.68        66.87788
618.11        66.45827
618.54        65.73819
618.97        65.71711
619.40        66.37518
619.84        66.40118
620.27        66.58655
620.70        66.67117
621.13         66.8889
621.56        66.46162
621.99        65.59632
622.42        65.82094
622.85        67.03328
623.28        66.74663
623.71        66.22852
624.14         66.5081
624.57        65.75271
625.00        65.38853
625.43        65.88522
625.86        65.98174
626.29        65.76702
626.72        66.89035
627.15        66.25594
627.58        66.32357
628.01        66.20994
628.44        66.08646
628.87        65.96373
629.30        65.85083
629.73        65.78512
630.16        65.74418
630.59        65.73375
631.02        65.75713
631.45        65.81381
631.88        65.89697
632.31        65.99392
632.74        66.09615
633.17        66.16544
633.60        66.14403
634.03         66.0252
634.46        65.83234
634.89        65.61449
635.32        65.45239
635.75        65.37014
636.18        65.34416
636.61        65.35827
637.04        65.38647
637.47        65.41975
637.89        65.45789
638.32        65.45251
638.75        65.42931
639.18        65.40106
639.61        65.09942
640.04        65.06557
640.47         64.9926
640.90        65.04581
641.33        65.18975
641.76        65.38026
642.18         65.5422
642.61        65.62025
643.04        65.64187
643.47        65.63338
643.90        65.64021
644.33        65.67167
644.76         65.7218
645.18        65.77412
645.61         65.7157
646.04        65.53754
646.47        65.43255
646.90        65.49878
647.33         65.1114
647.75        65.51584
648.18           65.66
648.61        65.88963
649.04        66.11691
649.47        66.30772
649.89        66.55973
650.32          66.744
650.75        66.51521
651.18        66.01639
651.61         65.7981
652.03        65.92963
652.46          66.156
652.89        66.28857
653.32        66.19341
653.74        66.18136
654.17        65.63839
654.60        65.44093
655.03        66.59814
655.46        65.86054
655.88          65.272
656.31        69.41844
656.74        76.28972
657.16        72.11355
657.59         67.1966
658.02        67.13643
658.45        67.66811
658.87        67.82132
659.30        66.73145
659.73        66.25624
660.15        66.12741
660.58        65.55527
661.01        65.63377
661.44        65.77689
661.86        65.66201
662.29        65.29115
662.72        65.36442
663.14        65.82951
663.57        65.76727
664.00        65.28637
664.42        65.27988
664.85        65.71916
665.27        65.85724
665.70        65.67044
666.13        65.63151
666.55         65.7477
666.98        65.75934
667.41        65.68713
667.83         65.6593
668.26        65.67974
668.69        65.74168
669.11         65.7906
669.54        65.72065
669.96        65.52335
670.39         65.2655
670.82        65.08694
671.24        65.09651
671.67        65.34469
672.09        65.98129
672.52        66.80569
672.94        66.90456
673.37        66.96593
673.80        66.47903
674.22        65.90224
674.65        65.59204
675.07        65.65878
675.50        65.95152
675.92        66.32498
676.35        66.53061
676.77        66.50568
677.20        66.33456
677.62        66.12067
678.05        66.02663
678.47        66.09058
678.90        66.25111
679.32        66.43621
679.75        66.59618
680.17        66.70738
680.60        66.70737
681.02        66.59936
681.45        66.78807
681.87        66.58871
682.30        66.59303
682.72        66.59441
683.15        66.49921
683.57        66.36484
684.00        66.43179
684.42        66.65905
684.85         66.7691
685.27        66.73429
685.70        66.63729
686.12        66.50705
686.54        66.55297
686.97        66.70361
687.39        66.56603
687.82        66.24678
688.24        66.05931
688.66        66.05694
689.09        66.00652
689.51        65.93832
689.94        66.05906
690.36        66.39129
690.78        66.73541
691.21        66.91094
691.63        67.56181
692.06        66.95626
692.48        67.01003
692.90        67.20614
693.33         67.2417
693.75        67.12601
694.17        67.00393
694.60        66.91512
695.02        67.26944
695.44        67.13214
695.87         67.5136
696.29        67.99097
696.71        67.94251
697.14        67.43295
697.56        67.15206
697.98        67.17827
698.41        67.12839
698.83        66.99852
699.25        67.06676
699.68        67.26365
700.10         67.4108
700.52         67.4496
700.94        67.43729
701.37         67.3887
701.79        67.35181
702.21        67.32977
702.64        67.30846
703.06        67.27881
703.48        67.23857
703.90        67.19361
704.33        67.14936
704.75        67.13204
705.17        67.16549
705.59         67.2544
706.01        67.38468
706.44        67.53006
706.86        67.67791
707.28        67.79673
707.70        67.88527
708.12        67.95037
708.55        67.99818
708.97        68.02232
709.39        68.02245
709.81        67.99761
710.23        67.96585
710.66        67.93492
711.08        67.91348
711.50        67.90536
711.92        67.93893
712.34        68.01524
712.76        68.12093
713.19        68.21319
713.61        68.28076
714.03        68.28503
714.45        68.23365
714.87        68.14809
715.29        68.06104
715.71        67.98122
716.13        67.90376
716.56        67.80254
716.98        67.70557
717.40        67.59988
717.82        67.50165
718.24        67.43517
718.66        67.43533
719.08         67.5035
719.50        67.61465
719.92        67.75525
720.34        67.90417
720.76        68.05073
721.19        68.19108
721.61        68.29578
722.03        68.31688
722.45        68.28168
722.87        68.04609
723.29        67.69875
723.71        67.84222
724.13        68.51047
724.55        68.05437
724.97        68.54469
725.39        68.48463
725.81        68.47977
726.23        68.40173
726.65        68.35574
727.07        68.06891
727.49        68.34452
727.91         68.5111
728.33        68.74047
728.75        68.90763
729.17        68.98361
729.59        68.99184
730.01        68.97163
730.43        69.00519
730.85        69.10711
731.27        69.24513
731.69        69.37418
732.10        69.43408
732.52        69.40641
732.94         69.3139
733.36        69.18816
733.78        69.07979
734.20        69.01491
734.62         68.9938
735.04        68.99937
735.46        68.99944
735.88        68.98079
736.30        68.95326
736.72        68.95765
737.13        69.01939
737.55        69.09198
737.97        69.34273
738.39        69.67965
738.81        69.54567
739.23        69.11129
739.65        69.34694
740.06        70.05966
740.48        70.26389
740.90        69.91682
741.32        69.21902
741.74        69.03339
742.16        68.81965
742.57        68.86189
742.99        69.11523
743.41        69.49213
743.83        69.81481
744.25        70.01321
744.67        70.12335
745.08        70.17724
745.50        70.18693
745.92        70.18365
746.34        70.14806
746.75        70.06815
747.17        69.95448
747.59        69.81161
748.01        69.63614
748.42        69.47731
748.84        69.42229
749.26        69.44514
749.68        69.50723
750.09        69.59393
750.51        69.52556
750.93        69.43685
751.35        69.92943
751.76        70.82841
752.18         71.1691
752.60         70.8683
753.01        70.42371
753.43          70.034
753.85        69.84632
754.27        69.92505
754.68        70.19646
755.10        70.54565
755.52          70.757
755.93        70.85722
756.35        70.91978
756.77        70.88284
757.18        70.83042
757.60        70.83259
758.02        70.28754
758.43        69.51677
758.85        70.67461
759.26        72.31054
759.68        72.96216
760.10        72.17793
760.51        71.52491
760.93        71.27701
761.34        71.21438
761.76        71.47288
762.18        71.25486
762.59         70.7267
763.01        70.71699
763.42        71.21268
763.84        71.39187
764.26        71.23512
764.67        70.83359
765.09        70.45469
765.50        70.82852
765.92        71.72291
766.33        71.71827
766.75        70.84642
767.16        70.58778
767.58        71.04357
768.00        71.45938
768.41        71.75858
768.83        72.20911
769.24        72.59927
769.66        72.39286
770.07        71.69403
770.49        71.02443
770.90        70.56931
771.32        70.58971
771.73        71.02188
772.15        71.30535
772.56          71.408
772.97        71.67997
773.39        72.05063
773.80        72.28193
774.22        72.29834
774.63        72.20248
775.05        72.02459
775.46        71.88165
775.88        71.79377
776.29        71.75024
776.70        71.74669
777.12        71.78362
777.53        71.87489
777.95        72.00987
778.36        72.15371
778.77        72.20546
779.19        72.15865
779.60        72.04762
780.02        71.94498
780.43        71.99211
780.84        72.22263
781.26        72.50681
781.67        72.82847
782.09        73.20309
782.50         73.5292
782.91        73.56804
783.33        73.33621
783.74        73.15759
784.15        73.03457
784.57          72.857
784.98        72.67677
785.39        72.41563
785.81        72.46779
786.22        72.51449
786.63        72.61281
787.04        72.68377
787.46        72.73064
787.87        72.68243
788.28        72.59769
788.70        72.82516
789.11        72.93092
789.52        73.22648
789.93        73.49909
790.35        73.60849
790.76        73.55678
791.17        73.39737
791.58        73.21241
792.00        73.15208
792.41         73.2692
792.82        73.36143
793.23        73.47324
793.65        73.89939
794.06        74.55345
794.47        74.94256
794.88         74.9343
795.29        74.77473
795.71        74.42574
796.12        73.69337
796.53        72.83275
796.94        72.57158
797.35        73.00114
797.76        73.67922
798.18        74.31768
798.59          74.757
799.00        74.83993
799.41        74.52977
799.82        74.02287
800.23        73.71893
800.64        73.71599
801.06         73.8568
801.47         74.0934
801.88         74.2249
802.29         74.1808
802.70        74.03114
803.11        73.86689
803.52        73.75948
803.93        73.73653
804.34        73.87637
804.75        74.12349
805.17        73.87187
805.58        73.95522
805.99        73.68552
806.40         73.4585
806.81         73.5807
807.22         74.0333
807.63        74.53062
808.04        74.92024
808.45        75.09238
808.86        74.96696
809.27        74.53223
809.68        73.95052
810.09        73.55653
810.50        73.45532
810.91        73.56592
811.32        73.79407
811.73        73.97612
812.14        74.05265
812.55        74.07401
812.96         74.0932
813.37        74.18824
813.78        74.37328
814.19        74.60384
814.60        74.80312
815.01        74.87494
815.42        74.80277
815.83        74.61085
816.24        74.39207
816.65        74.31978
817.05         74.4512
817.46        74.70737
817.87        74.99306
818.28        75.10652
818.69        75.00648
819.10        74.74747
819.51        74.45812
819.92        74.37421
820.33        74.54996
820.74         74.8837
821.14        75.23241
821.55        75.40514
821.96        75.33958
822.37        75.12213
822.78        74.79684
823.19        74.44022
823.60        74.12149
824.00        73.85014
824.41        73.69181
824.82        73.83647
825.23        74.29621
825.64        75.00507
826.04        75.82412
826.45        76.40003
826.86        76.65324
827.27          76.657
827.68        76.45219
828.08        76.15636
828.49        75.79268
828.90        75.35373
829.31        74.97679
829.72        74.88175
830.12        75.14429
830.53        75.68375
830.94         76.2969
831.35        76.55447
831.75        76.35299
832.16        75.73148
832.57        75.01065
832.97        74.68484
833.38        74.86769
833.79        75.41529
834.20        75.99939
834.60        76.09952
835.01        75.64056
835.42        74.81218
835.82        73.97758
836.23        73.66711
836.64         74.0372
837.04        74.93504
837.45        76.01878
837.86        76.82243
838.26        77.16457
838.67        77.12077
839.08        76.82043
839.48        76.45541
839.89        76.11394
840.29        75.72114
840.70        75.32256
841.11        74.93062
841.51        74.58389
841.92        74.33009
842.33        74.18392
842.73         74.1468
843.14        74.17698
843.54        74.27784
843.95        74.51436
844.35         75.0422
844.76        75.81006
845.17        76.76154
845.57        77.67843
845.98        78.04504
846.38        77.79781
846.79        77.08377
847.19        76.17677
847.60        75.53634
848.00        75.28534
848.41        75.28375
848.81        75.49874
849.22        75.75368
849.62        76.02264
850.03        76.29573
850.43        76.52173
850.84        76.46834
851.24        76.15684
851.65        75.62222
852.05        75.03045
852.46        74.65768
852.86        74.55093
853.27        74.65522
853.67        74.87244
854.07        75.26912
854.48        75.75897
854.88        76.42323
855.29        76.93732
855.69         76.9377
856.10        76.22832
856.50        75.01505
856.90        73.72531
857.31        73.03161
857.71        73.11944
858.12        73.77931
858.52        74.75095
858.92        75.32667
859.33        75.25806
859.73        74.78281
860.13        74.14698
860.54        73.77955
860.94        73.83442
861.34        74.12721
861.75        74.46166
862.15        74.63305
862.55        74.52048
862.96        74.23921
863.36        73.86092
863.76        73.49019
864.17        73.17733
864.57        72.92455
864.97        72.73263
865.38        72.59261
865.78        72.53828
866.18         72.5412
866.58        72.63106
866.99        72.84965
867.39        73.18672
867.79        73.56593
868.19        73.84689
868.60        73.79893
869.00        73.40962
869.40            72.8
869.80        72.10098
870.21         71.5593
870.61        71.31645
871.01        71.26736
871.41        71.48283
871.81        72.06346
872.22        72.95808
872.62        74.20288
873.02        75.47342
873.42        76.13702
873.82        76.01048
874.22        75.24987
874.63         74.3419
875.03        74.00554
875.43         74.4024
875.83        75.29881
876.23        76.31931
876.63         76.8051
877.03        76.59087
877.44        75.97193
877.84         75.1537
878.24        74.48189
878.64         74.0826
879.04        73.76517
879.44        73.66812
879.84        74.01772
880.24        74.77675
880.64        75.93344
881.04        76.92793
881.44        76.75439
881.84        75.27606
882.24        72.89417
882.65        70.55746
883.05        69.51561
883.45        70.05435
883.85        71.81445
884.25        74.11299
884.65        75.66914
885.05        76.02041
885.45        75.51466
885.85        74.64871
886.25        74.19741
886.65        74.36326
887.05        74.85223
887.45         75.3663
887.85         75.4607
888.25        75.02187
888.65        74.27765
889.04         73.4456
889.44        72.84608
889.84        72.56956
890.24        72.53506
890.64         72.6755
891.04        72.89162
891.44        73.12885
891.84        73.40033
892.24        73.72927
892.64        74.14068
893.04        74.63677
893.44        75.21362
893.83        75.77185
894.23        76.07105
894.63        76.09303
895.03        75.84033
895.43         75.5739
895.83        75.71622
896.23        76.32063
896.63        77.27087
897.02        78.10976
897.42        78.08993
897.82        77.11923
898.22        75.49895
898.62        73.83201
899.01        72.95322
899.41        73.04906
899.81        73.87465
900.21        75.01104
900.61        75.65128
901.00        75.50629
901.40        74.89555
901.80        74.17801
902.20        73.85371
902.59        74.06819
902.99        74.60184
903.39        75.28151
903.79        75.72512
904.18        75.77386
904.58        75.58355
904.98        75.34863
905.38        75.32636
905.77        75.56456
906.17        75.99519
906.57        76.46947
906.96        76.79766
907.36        76.86262
907.76        76.72601
908.15        76.52972
908.55        76.42401
908.95        76.48525
909.34          76.657
909.74        76.78991
910.14         76.6118
910.53        76.09664
910.93        75.37745
911.33        74.71427
911.72        74.53399
912.12        74.92017
912.52        75.71944
912.91        76.67558
913.31        77.35526
913.70        77.64793
914.10        77.60179
914.49        77.37051
914.89        77.14019
915.29        77.01609
915.68        76.94421
916.08        76.86494
916.47        76.63904
916.87        76.28725
917.26        75.83223
917.66        75.46846
918.05        75.45008
918.45        75.78115
918.84        76.44785
919.24        77.07856
919.64         77.1514
920.03        76.55084
920.42        75.44041
920.82        74.33554
921.21         73.8147
921.61        73.99399
922.00        74.74851
922.40        75.66666
922.79        76.13238
923.19        75.91312
923.58        75.23115
923.98          74.508
924.37        74.31525
924.77        74.78551
925.16        75.76086
925.55        76.88118
925.95        77.49227
926.34        77.42975
926.74        76.85952
927.13        76.11625
927.52        75.70545
927.92        75.75006
928.31        76.07845
928.70        76.46487
929.10        76.52283
929.49         76.1888
929.89        75.64226
930.28        75.08867
930.67         74.7985
931.07        74.84103
931.46        75.10129
931.85        75.57609
932.24        76.29262
932.64        77.16364
933.03        78.25729
933.42        79.20988
933.82        79.44464
934.21        78.89975
934.60        77.71834
934.99        76.47958
935.39        76.05071
935.78        76.60078
936.17         77.8728
936.56        79.32891
936.96        80.04141
937.35        79.78847
937.74        78.83997
938.13        77.56614
938.53        76.55199
938.92         75.9994
939.31        75.81232
939.70        75.91078
940.09        76.19311
940.49        76.53648
940.88        76.95285
941.27        77.51515
941.66        78.33896
942.05        79.35069
942.44        80.48589
942.84         81.1511
943.23        80.41077
943.62        78.30194
944.01        75.36534
944.40        72.65218
944.79        71.47719
945.18        72.02222
945.57        73.91988
945.97        76.47057
946.36        78.50523
946.75        79.31055
947.14        79.22007
947.53        78.57999
947.92          78.008
948.31        77.72841
948.70        77.44247
949.09         77.2304
949.48        77.29523
949.87        77.62997
950.26        78.28208
950.65        78.85558
951.04        78.63909
951.43        77.55488
951.82        75.85879
952.21        74.16254
952.60        73.39737
952.99        73.75602
953.38        74.95098
953.77        76.46694
954.16         77.4147
954.55        77.47845
954.94        76.87022
955.33        75.93887
955.72         75.2619
956.11        75.03703
956.50        75.13369
956.89        75.27374
957.28        75.01934
957.66        74.31412
958.05         73.3228
958.44         72.5214
958.83        72.62787
959.22        73.76489
959.61        75.67216
960.00        77.72682
960.39        78.84755
960.78        78.70724
961.16        77.62119
961.55        76.10673
961.94        74.99558
962.33         74.5567
962.72        74.54153
963.11        74.80331
963.49        75.12115
963.88        75.34695
964.27        75.63474
964.66         75.9057
965.04        76.00703
965.43        75.86269
965.82        75.49536
966.21        75.10272
966.60        75.05372
966.98        75.43682
967.37        76.12341
967.76        76.85681
968.15        77.18463
968.53        77.01211
968.92        76.43017
969.31        75.72189
969.69        75.35019
970.08        75.41597
970.47        75.79913
970.86        76.29552
971.24        76.57192
971.63        76.54532
972.02        76.40408
972.40        76.30045
972.79        76.41587
973.17        76.87674
973.56        77.47471
973.95        78.30882
974.33        79.59231
974.72        81.21944
975.11        83.18991
975.49        85.09529
975.88        85.89407
976.26        85.31693
976.65        83.60503
977.04        81.40877
977.42         79.5953
977.81        78.43221
978.19         77.6518
978.58        77.12335
978.96        76.42667
979.35        75.47903
979.74         74.4012
980.12         73.3825
980.51        72.57195
980.89         72.1437
981.28        72.09104
981.66        72.27632
982.05        72.37864
982.43         72.3616
982.82        72.22005
983.20        72.46249
983.59        73.91028
983.97        76.74448
984.35         80.7412
984.74        84.65126
985.12         86.4228
985.51        85.27508
985.89        81.98981
986.28        78.14628
986.66         75.6191
987.04        74.95006
987.43         75.5049
987.81        76.83929
988.20        77.86075
988.58        78.22501
988.96         78.3864
989.35        78.22214
989.73         77.6161
990.12        76.61591
990.50        75.07635
990.88        73.78019
991.27         73.9667
991.65        75.84766
992.03        79.34198
992.42        82.94421
992.80        83.85524
993.18         81.0795
993.56         75.9008
993.95        70.82771
994.33        68.40746
994.71        69.14783
995.10        72.24085
995.48        76.66106
995.86        79.47566
996.24        79.39114
996.63        77.45947
997.01        74.93065
997.39        73.48148
997.77         73.5674
998.15        74.49693
998.54        76.11852
998.92        78.29994
999.30        80.76155
999.68        83.66921
1000.06        86.14746
1000.45        86.51641
1000.83        84.66267
1001.21        81.05474
1001.59        77.17809
1001.97        75.07619
1002.35        75.13593
1002.73        76.86277
1003.12        79.40169
1003.50        81.21458
1003.88        81.63991
1004.26        81.17701
1004.64         80.3314
1005.02         79.9375
1005.40        80.18358
1005.78        80.54313
1006.16        80.84875
1006.54        80.92343
1006.92        80.61503
1007.30        80.13302
1007.69        78.95596
1008.07        76.34022
1008.45        72.62705
1008.83        68.56945
1009.21        65.38963
1009.59         64.2533
1009.97        65.21358
1010.35        68.10989
1010.73        72.24165
1011.11        75.66051
1011.49        77.24059
1011.86        76.99689
1012.24        76.26352
1012.62        77.38368
1013.00        81.07299
1013.38        87.10461
1013.76        93.26797
1014.14        94.04542
1014.52        88.42384
1014.90        79.86455
1015.28        72.43704
1015.66        69.50851
1016.04         71.1189
1016.41        76.53574
1016.79         84.6012
1017.17        92.27732
1017.55        96.92173
1017.93        98.90862
1018.31        97.30972
1018.69        91.79802
1019.06        84.00556
1019.44         75.6934
1019.82        69.13443
1020.20         66.0016
1020.58        65.85011
1020.95        68.26532
1021.33        72.27598
1021.71        75.14922
1022.09        75.48117
1022.46        73.73644
1022.84        71.55365
1023.22        71.03694
1023.60        72.75571
1023.97         76.5602
1024.35        81.01601
1024.73        82.03391
