SpectraSmart Spectrum 2.9.0.0
--------- Device Information -----------
Spectrum Name :  反射率_0
Saving Time :  2024/05/03 20:11:21
Spectro-Module Model Name : SE2030-DUVN
Spectro-Module Serial Number : OS361AC55029948
Wavelength Start : 200
Wavelength End : 1025
Wavelength Unit : Wavelength(nm)
Spectrum Unit : Reflectance(%)
-----------Spectrum Setting ------------
Integration Time : 20ms
Average : 10
Boxcar : 0
Background removal :  enabled
linearity correction :  enabled
SC :  disabled
Intensity correction :  disabled
DWT denoise :  enabled
savitzky-golay :  disabled
FFT :  disabled
Running average :  disabled
Kalman :  disabled
High pass :  disabled
---------------BEGIN--------------------
Wavelength(nm)             Reflectance(%)
200.29               0
200.75        23.44379
201.21         36.1856
201.67       -819.1522
202.13       -23.27167
202.58       -13.77285
203.04       -12.47403
203.50       -13.05705
203.96       -13.74754
204.42       -14.23466
204.88       -16.18179
205.34        24.68237
205.80       -18.97969
206.26       -39.00932
206.72       -12155.46
207.18        50.39708
207.64        37.62316
208.10        44.84956
208.55        83.91777
209.01        461.6596
209.47        610.1069
209.93        91.20275
210.39        40.04086
210.85        26.53079
211.31        22.66039
211.77        22.57179
212.23        25.95164
212.69        35.85393
213.14        40.65825
213.60        23.25003
214.06        14.59428
214.52        11.64933
214.98        10.49655
215.44        9.947135
215.90        8.732365
216.36      -0.3146574
216.81       -6.586523
217.27        -26.4649
217.73       -84.28708
218.19       -403.8525
218.65       -8604.631
219.11       -569.8216
219.57       -115.9849
220.02       -38.03719
220.48       -48.54908
220.94        89.44554
221.40        43.02453
221.86        38.02604
222.32        38.84513
222.77        42.68227
223.23        51.07726
223.69        63.30134
224.15        66.74318
224.61        55.26514
225.06        39.75777
225.52        29.81958
225.98        28.32377
226.44        33.86289
226.90         45.6776
227.36        61.73902
227.81        72.17526
228.27        70.83789
228.73        62.86141
229.19        53.68664
229.65        47.47979
230.10        44.36676
230.56        43.05435
231.02        43.00528
231.48        44.07244
231.93         45.9114
232.39        48.53748
232.85        51.56598
233.31        54.43265
233.77        56.99647
234.22        59.33538
234.68        61.52687
235.14        63.73424
235.60         66.0415
236.05        68.53738
236.51        70.90402
236.97        72.73209
237.43        73.81715
237.88        74.27388
238.34        74.90997
238.80        77.06534
239.26        81.72539
239.71        91.48147
240.17         107.414
240.63        126.0509
241.08        136.5262
241.54        132.1036
242.00        121.8069
242.46        119.7021
242.91         129.906
243.37        154.0873
243.83        198.0483
244.28        242.8522
244.74        238.9046
245.20        191.5019
245.66        133.8652
246.11        91.76846
246.57        66.89661
247.03        52.03722
247.48        45.20989
247.94        44.28226
248.40        47.72783
248.85        55.56873
249.31        66.73573
249.77        75.71129
250.22        79.63232
250.68        80.35126
251.14        80.87199
251.59         85.1821
252.05        95.07301
252.51        111.8599
252.96        137.0996
253.42        161.5346
253.88         171.725
254.33        167.8089
254.79        155.9602
255.25        142.2298
255.70        130.5895
256.16        122.6767
256.62        118.1398
257.07        116.8752
257.53        118.3317
257.99        120.6058
258.44        122.2035
258.90        122.4295
259.35        120.6529
259.81         118.518
260.27        115.8556
260.72        112.5521
261.18        109.6029
261.63         106.578
262.09         104.393
262.55        103.2039
263.00        102.6297
263.46        102.5163
263.91        102.2173
264.37         101.422
264.83        99.95879
265.28        98.04755
265.74        95.87278
266.19        93.14633
266.65        90.20105
267.11        87.03372
267.56        84.12489
268.02        82.32985
268.47        81.60576
268.93        81.71759
269.38        82.01745
269.84        81.41555
270.30        79.71791
270.75        77.32062
271.21        74.87399
271.66        73.12341
272.12        72.23251
272.57        71.80145
273.03        71.58932
273.48        71.24552
273.94          70.655
274.39         69.9504
274.85        69.01443
275.31        67.48884
275.76        65.41287
276.22        63.05347
276.67        60.85892
277.13        59.65561
277.58        59.36602
278.04        59.76206
278.49        60.18946
278.95        59.72561
279.40        58.18005
279.86        56.09315
280.31        53.93028
280.77        52.47945
281.22        51.71148
281.68          51.424
282.13        51.28516
282.59         50.9616
283.04        50.32415
283.50        49.57905
283.95        48.80648
284.41        48.18715
284.86         47.7372
285.32        47.44603
285.77        47.26206
286.22        47.21951
286.68        47.31227
287.13        47.45288
287.59        47.65889
288.04         47.8511
288.50        48.03682
288.95        48.18549
289.41        48.24231
289.86        48.05256
290.32        47.67126
290.77        47.14934
291.22        46.70272
291.68        46.61501
292.13        46.92688
292.59         47.6056
293.04        48.51252
293.50        49.41954
293.95        50.23684
294.40        51.02786
294.86         51.9095
295.31        53.04706
295.77        54.48576
296.22        56.13099
296.68        57.85466
297.13         59.4417
297.58        60.78443
298.04        61.97398
298.49        63.01662
298.95        64.02577
299.40        65.02992
299.85        66.03402
300.31        67.16421
300.76        68.55732
301.21        70.23981
301.67        72.17945
302.12        74.14671
302.58        75.83467
303.03        77.12474
303.48        78.12007
303.94         79.0773
304.39        80.26654
304.84        81.80244
305.30        83.58511
305.75        85.38998
306.20        86.93269
306.66        88.16879
307.11        89.15096
307.57        90.06813
308.02        91.03318
308.47        92.14467
308.93        93.35641
309.38        94.59843
309.83        95.88046
310.29        97.18043
310.74         98.4715
311.19        99.69662
311.65        100.7417
312.10        101.5482
312.55        102.1347
313.00        102.5583
313.46        102.9348
313.91        103.2795
314.36        103.6235
314.82        103.9644
315.27        104.2587
315.72        104.5257
316.18        104.7878
316.63        105.1168
317.08        105.6385
317.53        106.3604
317.99        107.2178
318.44        108.0805
318.89         108.667
319.35        108.9081
319.80        108.8869
320.25         108.757
320.70        108.7962
321.16        109.0571
321.61        109.4657
322.06        109.9099
322.51        110.2104
322.97        110.2987
323.42        110.2792
323.87        110.1538
324.32        109.9348
324.78        109.6488
325.23        109.3405
325.68        109.1148
326.13        109.1658
326.59        109.5055
327.04        110.1401
327.49        110.9153
327.94         111.602
328.39         112.107
328.85         112.419
329.30        112.6512
329.75        112.8571
330.20        113.0661
330.66        113.2197
331.11        113.3421
331.56        113.3527
332.01        113.2667
332.46        113.1419
332.92        113.0407
333.37        113.1845
333.82        113.5765
334.27         114.166
334.72        114.8757
335.17        115.5696
335.63        116.1445
336.08        116.6717
336.53        117.0813
336.98        117.3329
337.43        117.4331
337.88        117.3957
338.34        117.2906
338.79        117.2682
339.24        117.3738
339.69        117.6094
340.14        117.9493
340.59        118.3321
341.05        118.7288
341.50        119.1544
341.95        119.6286
342.40        120.1978
342.85        120.8476
343.30        121.5348
343.75        122.1458
344.20        122.5144
344.66        122.6315
345.11        122.5383
345.56        122.3739
346.01        122.3466
346.46        122.5168
346.91        122.8278
347.36        123.2176
347.81          123.58
348.26        123.8764
348.72        124.1497
349.17        124.3751
349.62        124.5404
350.07        124.6421
350.52        124.6587
350.97        124.6272
351.42        124.6243
351.87        124.6468
352.32        124.6546
352.77        124.5702
353.22        124.2714
353.67        123.7467
354.13        123.0905
354.58        122.3253
355.03        121.5584
355.48        120.8441
355.93        120.1773
356.38        119.6079
356.83        119.2083
357.28         118.966
357.73        118.8316
358.18        118.7074
358.63        118.4352
359.08        117.9612
359.53        117.3213
359.98        116.5258
360.43        115.6074
360.88         114.596
361.33        113.4856
361.78        112.3632
362.23        111.3546
362.68         110.484
363.13        109.7415
363.58        109.0102
364.03        108.0971
364.48        106.9802
364.93        105.7307
365.38        104.5227
365.83        103.6145
366.28        103.0498
366.73        102.7371
367.18        102.4921
367.63        102.0273
368.08        101.2668
368.53        100.2935
368.98        99.25969
369.43        98.38666
369.88        97.72522
370.33        97.21285
370.78        96.71878
371.23        96.04344
371.68        95.15358
372.13        94.12577
372.58        93.14043
373.03        92.45033
373.48        92.08939
373.93        91.96751
374.38        91.86298
374.83        91.42682
375.28        90.57887
375.72        89.40183
376.17        88.19422
376.62        87.25393
377.07        86.64305
377.52        86.27201
377.97        85.95273
378.42        85.39675
378.87         84.5639
379.32        83.57486
379.77        82.65012
380.22        82.08087
380.67        81.89908
381.11        82.01118
381.56         82.1595
382.01        81.98843
382.46          81.413
382.91        80.56314
383.36        79.65833
383.81         79.0102
384.26        78.68476
384.71        78.58225
385.15        78.54626
385.60        78.36153
386.05        77.96027
386.50        77.41658
386.95        76.85117
387.40        76.43692
387.85        76.20972
388.29        76.07413
388.74        75.97655
389.19        75.67734
389.64        75.13825
390.09        74.42417
390.54        73.71252
390.98        73.21454
391.43        73.01422
391.88        73.15721
392.33        73.42735
392.78        73.14561
393.23        72.45913
393.67        72.22742
394.12        72.44034
394.57        72.28444
395.02        71.76816
395.47        71.38388
395.91        71.20831
396.36        71.06107
396.81        70.98027
397.26        71.06039
397.71        71.13944
398.15        70.99657
398.60        70.70221
399.05        70.02628
399.50         69.2426
399.95        69.30671
400.39        70.01919
400.84         69.8596
401.29        68.91218
401.74        68.49868
402.18        68.68007
402.63        68.74949
403.08        68.71441
403.53        68.33879
403.97         68.5661
404.42        68.49922
404.87        68.41545
405.32         68.2407
405.76         67.9695
406.21         67.7934
406.66        67.62929
407.11         67.1253
407.55        66.45837
408.00        66.14011
408.45         66.2444
408.90        66.63684
409.34         67.1406
409.79        66.96517
410.24        66.28989
410.68        66.04655
411.13        66.28559
411.58        66.43515
412.03        66.37622
412.47         66.2299
412.92        65.96332
413.37        65.55982
413.81        65.16501
414.26        65.06535
414.71        65.26515
415.15        65.74148
415.60        66.23708
416.05        66.37266
416.49        66.05484
416.94        65.42551
417.39        64.77404
417.83        64.51702
418.28         64.7454
418.73        65.31155
419.17        65.99837
419.62        66.38597
420.07        66.35023
420.51        66.00552
420.96        65.53169
421.41        65.09057
421.85        64.72702
422.30         64.5499
422.74        64.46302
423.19        64.25454
423.64        63.97869
424.08        64.12166
424.53        64.61586
424.98        64.97292
425.42        65.13761
425.87        65.40639
426.31        65.75596
426.76        65.79797
427.21        65.62651
427.65        65.76168
428.10         66.1017
428.54        66.18452
428.99        65.96854
429.44        65.69408
429.88        65.42755
430.33        65.56196
430.77        65.90724
431.22        65.87594
431.66        65.51688
432.11         65.5319
432.56        65.86451
433.00        66.14589
433.45        66.25205
433.89        66.55267
434.34         64.1983
434.78        66.62249
435.23        66.95578
435.67        65.49435
436.12        65.28199
436.57        65.14613
437.01        66.22394
437.46        66.79663
437.90        66.95467
438.35        65.66872
438.79        66.56671
439.24        66.32622
439.68        65.96529
440.13        65.86385
440.57        66.05209
441.02         65.8683
441.46        65.39047
441.91        66.03284
442.35         67.2636
442.80        66.93641
443.24        65.42158
443.69        65.47399
444.13        66.91209
444.58        67.34644
445.02         66.6848
445.47        66.26409
445.91        66.23913
446.36        66.28249
446.80        66.39384
447.24        66.83188
447.69        67.13739
448.13        67.33504
448.58         67.2899
449.02        67.04757
449.47        66.73277
449.91        66.51483
450.36        66.46416
450.80        66.49885
451.25        66.57996
451.69        66.61557
452.13        66.58392
452.58        66.51934
453.02        66.43008
453.47        66.35351
453.91        66.28957
454.36        66.22548
454.80        66.12823
455.24        66.03098
455.69        65.96172
456.13        65.78492
456.58        65.51765
457.02        65.73901
457.46        65.49522
457.91        65.48914
458.35        65.37312
458.79        65.44653
459.24        65.63938
459.68        65.27936
460.13        64.47455
460.57        64.56444
461.01        64.57314
461.46        64.15981
461.90        64.26131
462.34        64.51454
462.79        64.19311
463.23        63.94235
463.68        63.90075
464.12        63.82017
464.56        63.79099
465.01        63.91835
465.45        64.10191
465.89         63.9968
466.34        63.66437
466.78        63.74825
467.22        64.30809
467.67        63.69617
468.11        63.90846
468.55        63.79095
468.99        63.91545
469.44        63.90739
469.88         63.7754
470.32        63.65656
470.77        63.54616
471.21        63.44953
471.65        63.35794
472.10        63.27078
472.54        63.18768
472.98         63.1207
473.42        63.07951
473.87        63.10129
474.31        63.07121
474.75        62.87996
475.20        62.64893
475.64        62.09163
476.08        62.29464
476.52        62.25957
476.97        62.31394
477.41        62.39211
477.85        62.37346
478.29        63.07129
478.74        62.55828
479.18         62.6401
479.62        62.76813
480.06         62.7254
480.50        62.47598
480.95        62.36271
481.39        62.43989
481.83        61.96568
482.27        61.90494
482.72        62.28363
483.16        62.00795
483.60        62.11455
484.04        62.25381
484.48        62.04756
484.93         61.5463
485.37        62.32517
485.81         62.8545
486.25        62.49601
486.69        63.72573
487.14        63.90526
487.58        61.44371
488.02        61.54167
488.46        62.88472
488.90        61.06711
489.34        62.32546
489.79        62.39897
490.23        62.04208
490.67        61.98241
491.11        61.93866
491.55        61.96041
491.99        61.94867
492.43        61.87281
492.88        61.72514
493.32        61.61487
493.76        61.57695
494.20        61.53519
494.64        61.46735
495.08        61.60202
495.52        61.87085
495.96        61.57125
496.41        60.91569
496.85        61.29879
497.29        62.43575
497.73        62.46365
498.17        61.47209
498.61         61.1098
499.05        61.44658
499.49         61.5183
499.93         61.2802
500.37        61.07858
500.82         60.9424
501.26        60.89299
501.70        60.92619
502.14        60.95533
502.58         60.9558
503.02        60.95143
503.46        60.93464
503.90        60.88657
504.34        60.81782
504.78        60.75791
505.22         60.7054
505.66        60.66879
506.10        60.65317
506.54        60.62789
506.98        60.58226
507.42         60.8072
507.86         60.5359
508.30        60.82533
508.74        60.46418
509.18        60.29272
509.62        60.10348
510.06        60.08307
510.50        60.25524
510.94        60.57096
511.38        60.90389
511.82        61.01686
512.26        60.86161
512.70        60.51698
513.14         60.1162
513.58        59.86981
514.02        59.83101
514.46        59.92606
514.90        60.08441
515.34        60.18901
515.78        60.20162
516.22        60.17842
516.66        60.11704
517.10        60.00639
517.54        59.86362
517.98        59.68377
518.42        59.55112
518.86        59.60772
519.30        59.86609
519.74        60.27449
520.18        60.69891
520.62        60.91636
521.06        60.87027
521.50        60.62993
521.93        60.29462
522.37        60.04224
522.81        59.92413
523.25        59.88999
523.69         59.9134
524.13        59.95066
524.57        59.98262
525.01        60.03577
525.45        60.08975
525.89        60.10323
526.32        60.06776
526.76        59.99499
527.20        59.92693
527.64        59.94188
528.08        60.05348
528.52         60.2375
528.96        60.43283
529.40        60.54357
529.83        60.53411
530.27        60.43834
530.71        60.31025
531.15        60.24333
531.59        60.25828
532.03        60.33527
532.46        60.39866
532.90        60.33081
533.34        60.12483
533.78        59.84078
534.22        59.58436
534.66        59.50616
535.09         59.6173
535.53        59.86092
535.97        60.15131
536.41        60.30669
536.85        60.27029
537.28        60.25679
537.72        60.24712
538.16        59.84039
538.60        59.25352
539.04        59.30754
539.47         59.8852
539.91        60.12622
540.35        59.97462
540.79        59.93444
541.22        60.00933
541.66        60.02022
542.10        59.97271
542.54        59.82339
542.97        59.63087
543.41        59.71907
543.85         59.9961
544.29        59.99626
544.72        59.71722
545.16        59.56932
545.60        59.55073
546.04        59.43573
546.47        59.26033
546.91        59.19568
547.35        59.25324
547.79        59.40864
548.22        59.59338
548.66        59.69251
549.10        59.69714
549.53        59.77451
549.97        59.90643
550.41        59.94238
550.84        59.87491
551.28        59.80576
551.72        59.72707
552.15        59.58142
552.59        59.40587
553.03        59.20916
553.46        59.05727
553.90        59.03588
554.34        59.11049
554.77        59.34312
555.21        59.72306
555.65        59.44962
556.08        59.81517
556.52        59.75712
556.96        59.68365
557.39         59.6381
557.83        59.66236
558.27        59.64102
558.70        59.57783
559.14        59.66433
559.57        59.82964
560.01        59.81627
560.45        59.65495
560.88        59.60923
561.32        59.70229
561.75        59.75581
562.19         59.7902
562.63         59.7136
563.06        59.57112
563.50        59.78522
563.93        60.21278
564.37        60.07021
564.80        59.47527
565.24        59.40854
565.68        59.79184
566.11        59.88105
566.55        59.67808
566.98        59.51252
567.42        59.43384
567.85        59.59225
568.29        59.56479
568.72        59.55882
569.16        59.53514
569.60         59.5657
570.03        59.62092
570.47         59.8037
570.90        60.08539
571.34        59.67453
571.77        60.44184
572.21        59.87897
572.64        59.81427
573.08        59.60362
573.51        60.29322
573.95         60.1857
574.38        59.76138
574.82        59.22778
575.25        60.50756
575.69        60.57287
576.12        60.18721
576.56        59.78086
576.99        59.62182
577.42         61.0261
577.86         59.9802
578.29        60.02348
578.73        60.00061
579.16           60.23
579.60        60.62644
580.03        60.14962
580.47        60.36443
580.90        60.13132
581.33        59.56843
581.77        59.91111
582.20        60.59999
582.64        60.79161
583.07        60.67561
583.51        60.22655
583.94        59.83513
584.37        59.72627
584.81        60.04467
585.24        60.01372
585.68        60.60109
586.11         60.0449
586.54         59.9978
586.98        59.46628
587.41        59.34078
587.85        60.20656
588.28        60.32166
588.71        60.17069
589.15        59.99444
589.58        60.20832
590.01        59.78913
590.45        59.30062
590.88        59.66319
591.31        59.89334
591.75        60.19743
592.18        59.97123
592.61        59.42749
593.05        59.45692
593.48        60.81585
593.91        60.50195
594.35        60.53949
594.78        60.14693
595.21        59.94802
595.65        59.77586
596.08        59.59876
596.51        60.03813
596.94        60.16597
597.38        60.11706
597.81        59.48342
598.24        60.48706
598.68        60.04797
599.11        59.16189
599.54         60.4167
599.97        59.86103
600.41        60.19511
600.84        60.12177
601.27        60.21157
601.70        59.68564
602.14        59.55227
602.57        59.55673
603.00        59.89608
603.43        59.92825
603.87        59.66381
604.30        59.74463
604.73        59.83884
605.16        59.65981
605.60        59.34077
606.03        59.48746
606.46        60.06494
606.89        59.47161
607.32        59.67299
607.76         59.0115
608.19        59.45333
608.62        59.51537
609.05        59.49262
609.48        59.50299
609.92        59.75846
610.35         59.0285
610.78        60.13646
611.21        60.69069
611.64        60.13144
612.07        60.11759
612.50        59.99804
612.94        59.87523
613.37        59.64622
613.80        59.87812
614.23        59.69907
614.66        59.77432
615.09         59.8437
615.52        59.87703
615.96         59.8353
616.39        59.83804
616.82        59.82248
617.25         59.4393
617.68        59.62923
618.11        59.27773
618.54        58.85323
618.97        58.94044
619.40        59.48598
619.84        59.82426
620.27        59.86764
620.70        59.91351
621.13        59.97075
621.56        59.59994
621.99        59.01607
622.42        59.10899
622.85        59.79472
623.28        59.66533
623.71        59.41117
624.14        59.14945
624.57          59.062
625.00        58.77387
625.43        59.11423
625.86        59.21948
626.29        59.19209
626.72        59.85834
627.15        59.51384
627.58        59.52097
628.01        59.37516
628.44        59.27989
628.87         59.1526
629.30         59.0481
629.73        58.86631
630.16        59.40105
630.59        58.95264
631.02        58.99518
631.45        59.05447
631.88         59.0773
632.31         59.0301
632.74        59.28643
633.17        59.20862
633.60        59.24121
634.03        59.19144
634.46        59.09506
634.89        58.96387
635.32         58.8321
635.75        58.72209
636.18        58.62045
636.61         58.5507
637.04        58.55175
637.47        58.62841
637.89        58.75718
638.32        58.86699
638.75        58.93428
639.18        58.95295
639.61         58.6966
640.04        58.65097
640.47        58.53654
640.90        58.50885
641.33        58.53534
641.76        58.60765
642.18        58.71111
642.61        58.80776
643.04        58.91187
643.47        59.00546
643.90        59.05739
644.33        59.05833
644.76        59.02162
645.18        58.97321
645.61        58.88046
646.04        58.74835
646.47        58.72139
646.90        58.85239
647.33        58.52225
647.75        58.83861
648.18        58.88798
648.61        58.99599
649.04        59.11235
649.47        59.22907
649.89        59.39244
650.32        59.51252
650.75        59.43402
651.18        59.22951
651.61        59.08369
652.03        59.04311
652.46         59.2513
652.89         59.5433
653.32        59.26565
653.74         58.7032
654.17        58.56434
654.60        58.72629
655.03        59.59758
655.46        59.05992
655.88        58.58959
656.31        60.67364
656.74        64.62206
657.16        61.85215
657.59        58.81086
658.02        59.57249
658.45        59.94972
658.87        59.85914
659.30        59.01032
659.73        58.41119
660.15         58.9847
660.58         58.5143
661.01        58.70467
661.44        58.72548
661.86        58.60701
662.29        58.37278
662.72        58.44286
663.14        58.77743
663.57        58.63751
664.00        58.14911
664.42        58.12125
664.85        58.53474
665.27         58.7132
665.70        58.61747
666.13        58.64297
666.55        58.78391
666.98        58.81284
667.41        58.74022
667.83        58.66953
668.26        58.60834
668.69        58.55756
669.11        58.49554
669.54        58.36626
669.96        58.17282
670.39        57.96854
670.82        57.87009
671.24        57.88181
671.67        58.22802
672.09        58.74467
672.52        59.34985
672.94        59.41401
673.37        59.55282
673.80        59.16736
674.22        58.65369
674.65        58.40227
675.07         58.5069
675.50        58.79563
675.92         59.1376
676.35        59.32363
676.77        59.29844
677.20        59.13662
677.62        58.93029
678.05        58.81844
678.47        58.83136
678.90        58.94215
679.32        59.10474
679.75        59.22601
680.17        59.26888
680.60        59.47395
681.02        59.31462
681.45        59.52108
681.87        59.32683
682.30        59.33363
682.72        59.34068
683.15        59.17052
683.57        58.90449
684.00        58.88865
684.42        59.08938
684.85         59.1622
685.27         59.0836
685.70        58.97858
686.12        58.88366
686.54        58.99229
686.97        59.23894
687.39        59.21659
687.82        58.91357
688.24        58.80224
688.66         58.9398
689.09         58.4652
689.51        58.53918
689.94        58.50084
690.36        58.71597
690.78        58.96955
691.21        59.12007
691.63         59.7242
692.06        59.23879
692.48        59.40242
692.90        59.69994
693.33        59.72726
693.75        59.48252
694.17        59.16663
694.60        58.87234
695.02        59.05161
695.44        58.93821
695.87        59.33614
696.29        59.85343
696.71        60.13903
697.14        60.07878
697.56        59.65728
697.98        59.10387
698.41        58.85667
698.83        58.95721
699.25        59.24173
699.68        59.55322
700.10        59.75604
700.52        59.76392
700.94        59.62806
701.37        59.43095
701.79        59.32671
702.21        59.34388
702.64        59.43392
703.06        59.53424
703.48        59.55415
703.90        59.47726
704.33        59.34612
704.75        59.21209
705.17        59.13827
705.59        59.14742
706.01        59.21037
706.44        59.31724
706.86        59.47961
707.28        59.66625
707.70        59.87094
708.12        60.05301
708.55        60.14604
708.97        60.13097
709.39        60.02229
709.81        59.87373
710.23        59.79971
710.66        59.83299
711.08        59.95337
711.50        60.09924
711.92         60.1941
712.34        60.21418
712.76        60.17528
713.19        60.10183
713.61        60.08931
714.03        60.13081
714.45        60.19948
714.87        60.24638
715.29        60.19837
715.71        60.04242
716.13        59.80925
716.56        59.54259
716.98        59.36987
717.40        59.30752
717.82        59.34982
718.24        59.46444
718.66        59.50439
719.08        59.59167
719.50        59.61667
719.92        59.64188
720.34        59.69321
720.76        59.78024
721.19        59.88059
721.61        59.96371
722.03         59.9867
722.45        59.96827
722.87        59.78507
723.29         59.5036
723.71        59.63245
724.13         60.1985
724.55        59.75459
724.97        60.12154
725.39        60.03578
725.81        60.04576
726.23        59.94859
726.65        59.81348
727.07        59.80006
727.49        59.91322
727.91        60.11879
728.33        60.36074
728.75        60.54615
729.17        60.64129
729.59        60.67381
730.01        60.66758
730.43        60.65969
730.85        60.66523
731.27        60.66919
731.69        60.67088
732.10        60.67827
732.52        60.68723
732.94        60.69875
733.36        60.70412
733.78        60.68473
734.20         60.6447
734.62        60.60114
735.04         60.5587
735.46         60.5355
735.88        60.53381
736.30        60.50482
736.72        60.48229
737.13        60.59871
737.55        60.76717
737.97        60.87923
738.39        60.90315
738.81        60.70565
739.23        60.41983
739.65        60.60013
740.06        61.10402
740.48        61.23818
740.90        60.95063
741.32        60.64818
741.74        60.44666
742.16        60.35071
742.57        60.41365
742.99        60.61638
743.41         60.8987
743.83        61.14581
744.25        61.31448
744.67        61.41895
745.08        61.49102
745.50        61.54209
745.92        61.59644
746.34        61.64362
746.75        61.64584
747.17        61.56592
747.59        61.39458
748.01        61.14097
748.42        60.90172
748.84        60.79598
749.26         60.8078
749.68        61.04716
750.09        61.26476
750.51        61.12297
750.93        60.75719
751.35        61.11164
751.76         62.0474
752.18         62.3891
752.60        62.05348
753.01        61.72695
753.43        61.56154
753.85        61.29722
754.27        61.37962
754.68        61.46094
755.10         61.6115
755.52        61.73916
755.93        61.84582
756.35        62.00024
756.77        62.09376
757.18        62.09283
757.60        62.02682
758.02        61.48363
758.43        60.81658
758.85        61.48425
759.26           63.16
759.68        63.61055
760.10        62.75913
760.51        62.07953
760.93        61.84085
761.34         61.9635
761.76        62.33665
762.18        62.21827
762.59        61.70178
763.01        61.73806
763.42          62.298
763.84         62.4077
764.26        62.07946
764.67        61.63171
765.09         61.2794
765.50        61.53351
765.92        62.17669
766.33        61.92863
766.75        60.94075
767.16        60.80421
767.58        61.59663
768.00        62.47262
768.41        63.13379
768.83        63.43597
769.24        63.30114
769.66        62.69711
770.07        61.89797
770.49        61.59478
770.90        61.76696
771.32        61.80357
771.73        61.69781
772.15        61.84649
772.56        62.25101
772.97        62.64319
773.39        62.91248
773.80         63.0934
774.22        63.12278
774.63        63.00932
775.05        62.80591
775.46        62.67041
775.88        62.62841
776.29        62.66638
776.70        62.74902
777.12        62.81437
777.53        62.85913
777.95        62.89433
778.36        62.91802
778.77        62.88844
779.19        62.81469
779.60         62.7144
780.02        62.62822
780.43        62.65067
780.84        62.80806
781.26        62.97532
781.67        63.15631
782.09        63.47152
782.50        63.84269
782.91        63.79123
783.33        63.67069
783.74        63.52774
784.15        63.46997
784.57        63.32131
784.98         63.1366
785.39        63.07353
785.81         63.1482
786.22        63.32617
786.63        63.52694
787.04        63.61227
787.46        63.56958
787.87        63.41553
788.28        63.25257
788.70        63.21917
789.11         63.3236
789.52        63.53905
789.93        63.78486
790.35        63.89686
790.76        63.87552
791.17        63.82015
791.58         63.7707
792.00        63.73579
792.41        63.76289
792.82        63.81022
793.23        63.89073
793.65        64.16032
794.06        64.60755
794.47        64.86241
794.88        64.77693
795.29        65.17098
795.71         64.5975
796.12        64.18298
796.53        63.66246
796.94         63.3571
797.35        63.37304
797.76        63.76706
798.18        64.34073
798.59        64.64809
799.00        64.56647
799.41        64.26118
799.82         63.9164
800.23         63.7951
800.64        63.96442
801.06        64.30224
801.47         64.7066
801.88        64.89342
802.29        64.78024
802.70        64.46188
803.11        64.06185
803.52        63.76785
803.93        63.64516
804.34        63.64241
804.75         63.7241
805.17        63.80416
805.58        63.86829
805.99        63.98615
806.40        64.15135
806.81        64.18014
807.22        64.13315
807.63        64.36313
808.04        64.78589
808.45        64.90696
808.86        64.66888
809.27        64.33553
809.68        64.03366
810.09        63.86976
810.50        63.90026
810.91        64.10313
811.32        64.36909
811.73        64.50877
812.14         64.4691
812.55         64.3028
812.96        64.10031
813.37        64.02225
813.78         64.1151
814.19        64.31715
814.60        64.55195
815.01        64.71727
815.42        64.78273
815.83        64.77459
816.24        64.72881
816.65        64.70849
817.05         64.7402
817.46         64.7765
817.87        64.80007
818.28         64.7393
818.69        64.58397
819.10        64.35488
819.51        64.13602
819.92        64.07593
820.33        64.20413
820.74        64.46281
821.14        64.73019
821.55        64.83843
821.96        64.74203
822.37         64.5129
822.78        64.22549
823.19         64.0152
823.60        63.94503
824.00        63.98404
824.41        64.12782
824.82        64.44104
825.23        64.90001
825.64        65.47613
826.04        66.04885
826.45        66.32219
826.86        66.25404
827.27         65.9147
827.68        65.43119
828.08        65.04965
828.49        64.82384
828.90        64.72698
829.31         64.7576
829.72        64.89989
830.12         65.1571
830.53        65.48677
830.94        65.83809
831.35        66.06668
831.75        66.13757
832.16        66.01733
832.57        65.78687
832.97        65.56825
833.38        65.40357
833.79          65.271
834.20         65.1405
834.60        64.94816
835.01         64.7123
835.42        64.48803
835.82        64.33202
836.23        64.28376
836.64        64.36964
837.04        64.56632
837.45        64.84401
837.86        65.26605
838.26         65.8086
838.67        66.39733
839.08        66.84447
839.48        66.84048
839.89        66.34947
840.29        65.46568
840.70        64.50613
841.11        63.89896
841.51        63.77662
841.92        64.04195
842.33        64.48731
842.73        64.74576
843.14        64.66445
843.54        64.36046
843.95        64.06673
844.35        64.18808
844.76        64.75684
845.17        65.64317
845.57        66.53535
845.98          66.779
846.38         66.2765
846.79        65.26155
847.19        64.10212
847.60        63.37719
848.00        63.23191
848.41        63.46402
848.81        63.98245
849.22        64.53255
849.62        65.03942
850.03        65.52512
850.43        65.89188
850.84        65.85725
851.24         65.4345
851.65        64.67039
852.05        63.83657
852.46        63.40025
852.86        63.44234
853.27        63.82963
853.67        64.34107
854.07         64.8402
854.48        65.21349
854.88        65.58556
855.29         65.7308
855.69        65.44727
856.10        64.63657
856.50        63.45313
856.90        62.26291
857.31        61.63315
857.71        61.71445
858.12        62.33979
858.52        63.27893
858.92        63.89963
859.33        63.97096
859.73        63.68837
860.13        63.24531
860.54        62.99104
860.94        63.06045
861.34         63.3036
861.75        63.57597
862.15        63.74835
862.55        63.72683
862.96        63.59348
863.36        63.40157
863.76        63.23148
864.17        63.11116
864.57        63.04567
864.97        62.99012
865.38        62.86636
865.78        62.69553
866.18        62.46424
866.58        62.27772
866.99        62.31364
867.39        62.60194
867.79        63.05135
868.19        63.44427
868.60        63.42268
869.00        62.94434
869.40         62.1613
869.80        61.29719
870.21        60.75409
870.61        60.69388
871.01        60.94395
871.41        61.44071
871.81        62.09581
872.22        62.82146
872.62        63.69915
873.02        64.51132
873.42        64.83337
873.82        64.57218
874.22        63.84245
874.63        63.04429
875.03        62.77168
875.43        63.14534
875.83        63.96444
876.23        64.92675
876.63        65.48816
877.03        65.49928
877.44        65.20814
877.84        64.69151
878.24        64.10141
878.64        63.53744
879.04        62.88621
879.44        62.44213
879.84        62.65485
880.24         63.5267
880.64        64.96803
881.04        66.30708
881.44        66.32883
881.84        64.82417
882.24         62.2714
882.65        59.66931
883.05        58.34747
883.45        58.61578
883.85        60.08369
884.25        62.12057
884.65        63.54881
885.05        63.92957
885.45        63.59606
885.85        62.94075
886.25        62.56846
886.65        62.64833
887.05        62.93116
887.45        63.22364
887.85        63.26122
888.25        62.97208
888.65        62.51665
889.04        62.01289
889.44        61.62788
889.84         61.4129
890.24        61.33175
890.64        61.37447
891.04        61.53222
891.44        61.78286
891.84        62.11483
892.24        62.51208
892.64        62.94557
893.04         63.3999
893.44        63.87732
893.83        64.33121
894.23        64.61399
894.63        64.72143
895.03        64.64332
895.43        64.52437
895.83        64.60251
896.23        64.91476
896.63        65.41153
897.02        65.83231
897.42        65.74817
897.82        65.10939
898.22        64.07494
898.62        63.03597
899.01        62.52855
899.41        62.67466
899.81        63.34843
900.21        64.19379
900.61        64.53381
901.00        64.17282
901.40        63.37933
901.80        62.61481
902.20        62.52987
902.59        63.26517
902.99        64.58481
903.39        66.08939
903.79        66.91782
904.18        66.76133
904.58        65.93209
904.98        64.90448
905.38         64.3264
905.77        64.33521
906.17        64.74192
906.57        65.31586
906.96        65.71902
907.36        65.78719
907.76        65.65376
908.15        65.44046
908.55        65.25945
908.95        65.18568
909.34        65.14654
909.74        65.09242
910.14        64.92347
910.53         64.6355
910.93        64.32116
911.33        64.06441
911.72        64.00147
912.12        64.15794
912.52        64.46018
912.91        64.88548
913.31         65.3743
913.70        65.89708
914.10        66.40449
914.49        66.78284
914.89        66.77748
915.29        66.37529
915.68        65.66289
916.08        64.86144
916.47        64.27271
916.87        64.01862
917.26        63.98422
917.66        64.11961
918.05        64.32332
918.45        64.51842
918.84        64.79733
919.24        64.98831
919.64        64.90027
920.03        64.51064
920.42        63.84926
920.82        63.23751
921.21        63.03041
921.61        63.29347
922.00         63.9793
922.40        64.75526
922.79        65.11615
923.19        64.88317
923.58        64.22422
923.98        63.54626
924.37        63.42006
924.77        63.96279
925.16        65.02431
925.55        66.19804
925.95        66.73902
926.34        66.46245
926.74        65.57471
927.13        64.49716
927.52        63.86026
927.92        63.81949
928.31        64.17442
928.70        64.65395
929.10        64.79143
929.49        64.49498
929.89        63.97256
930.28        63.45292
930.67        63.24392
931.07        63.42754
931.46        63.86667
931.85        64.53546
932.24        65.43437
932.64         66.4594
933.03        67.65466
933.42        68.67626
933.82        68.97595
934.21        68.48852
934.60        67.36514
934.99        66.10139
935.39        65.43982
935.78        65.54137
936.17        66.18308
936.56        67.01748
936.96        67.43878
937.35         67.2965
937.74        66.78191
938.13        66.00526
938.53        65.13065
938.92        64.26756
939.31        63.43715
939.70        62.82502
940.09        62.73409
940.49        63.14367
940.88        63.95738
941.27        64.99316
941.66        65.90508
942.05         66.5022
942.44        66.87364
942.84        66.77142
943.23        65.82876
943.62        64.17273
944.01        62.06158
944.40        60.20875
944.79        59.51204
945.18        60.07753
945.57        61.70622
945.97        63.76411
946.36        65.18111
946.75         65.3867
947.14        64.67914
947.53        63.63305
947.92        63.21149
948.31        63.66097
948.70        64.60176
949.09        65.69365
949.48        66.39794
949.87        66.51406
950.26        66.28883
950.65        65.74059
951.04        64.86556
951.43        63.78064
951.82        62.51096
952.21        61.39998
952.60        60.97406
952.99        61.30324
953.38        62.24712
953.77        63.39313
954.16        63.99844
954.55        63.83504
954.94        63.09249
955.33        62.10049
955.72        61.42454
956.11        61.25056
956.50        61.42237
956.89        61.76117
957.28        61.97761
957.66        61.98914
958.05        61.89126
958.44        61.82022
958.83        61.96623
959.22        62.35168
959.61        62.85738
960.00        63.32006
960.39        63.48108
960.78        63.27001
961.16        62.80585
961.55        62.18244
961.94         61.5215
962.33        60.91364
962.72        60.34309
963.11        59.97377
963.49        60.08572
963.88        60.65971
964.27        61.62616
964.66        62.69374
965.04        63.37603
965.43        63.48767
965.82        63.19193
966.21        62.69801
966.60        62.38712
966.98        62.39727
967.37        62.56704
967.76          62.875
968.15        63.27121
968.53         63.7126
968.92        64.20254
969.31        64.59008
969.69        64.59052
970.08        64.14005
970.47        63.33564
970.86        62.46091
971.24        61.98537
971.63        62.03377
972.02        62.53256
972.40        63.28268
972.79         63.8599
973.17        64.18939
973.56        64.31415
973.95        64.47124
974.33        65.04591
974.72        66.02835
975.11        67.29816
975.49        68.63601
975.88        69.47088
976.26        69.58937
976.65        69.09407
977.04          68.117
977.42        66.80157
977.81        65.30157
978.19        63.58442
978.58        61.96085
978.96        60.72435
979.35        59.97403
979.74        59.63639
980.12        59.54986
980.51        59.28579
980.89        58.82834
981.28        58.33076
981.66        57.96056
982.05        57.94915
982.43        58.37116
982.82        59.01246
983.20        59.97508
983.59        61.48824
983.97        63.57633
984.35        66.16463
984.74         68.3829
985.12         68.9352
985.51        67.39145
985.89        64.34607
986.28        61.00768
986.66        58.72512
987.04         57.9103
987.43        58.15686
987.81        59.18238
988.20        60.26768
988.58         61.1332
988.96        61.99921
989.35         62.6677
989.73           62.96
990.12         62.8136
990.50        62.11118
990.88        61.30993
991.27         61.1696
991.65        61.83724
992.03         63.2809
992.42        64.61992
992.80        64.41687
993.18        62.20665
993.56        58.80224
993.95        55.71942
994.33        54.36954
994.71        55.04163
995.10        57.22838
995.48        60.29517
995.86         62.3391
996.24         62.4861
996.63        61.38345
997.01        59.76225
997.39        58.59372
997.77         58.1758
998.15        58.08911
998.54        58.47239
998.92         59.6422
999.30        61.56684
999.68        64.28815
1000.06         66.9174
1000.45        67.72284
1000.83         66.4866
1001.21         63.6885
1001.59        60.65052
1001.97        59.20989
1002.35        59.72941
1002.73         61.7233
1003.12        64.43262
1003.50        66.48042
1003.88        67.23705
1004.26        67.11113
1004.64         66.5052
1005.02         66.0859
1005.40        66.03307
1005.78        65.96574
1006.16        65.76235
1006.54        65.29665
1006.92        64.48707
1007.30        63.51358
1007.69        62.19189
1008.07        60.28966
1008.45        58.07756
1008.83        55.91704
1009.21        54.36572
1009.59         53.9387
1009.97        54.64133
1010.35        56.40956
1010.73        58.87595
1011.11         60.9886
1011.49        62.09528
1011.86        62.12463
1012.24        61.81662
1012.62         62.4359
1013.00        64.37158
1013.38        67.51912
1013.76        70.64944
1014.14        70.74607
1014.52        67.37328
1014.90        62.51558
1015.28        58.46996
1015.66        57.16087
1016.04        58.62347
1016.41        62.50675
1016.79        68.08215
1017.17        73.56995
1017.55        77.26784
1017.93        79.34126
1018.31         78.7913
1018.69        74.81883
1019.06        68.53343
1019.44        61.57135
1019.82        55.99622
1020.20        53.32311
1020.58        53.21922
1020.95        55.33701
1021.33        58.71094
1021.71        60.73698
1022.09        60.18295
1022.46        57.50589
1022.84        54.69203
1023.22        54.22591
1023.60        56.81122
1023.97        62.62555
1024.35        69.77011
1024.73        71.73803
