SpectraSmart Spectrum 2.9.0.0
--------- Device Information -----------
Spectrum Name :  反射率_0
Saving Time :  2024/05/03 19:59:37
Spectro-Module Model Name : SE2030-DUVN
Spectro-Module Serial Number : OS361AC55029948
Wavelength Start : 200
Wavelength End : 1025
Wavelength Unit : Wavelength(nm)
Spectrum Unit : Reflectance(%)
-----------Spectrum Setting ------------
Integration Time : 20ms
Average : 10
Boxcar : 0
Background removal :  enabled
linearity correction :  enabled
SC :  disabled
Intensity correction :  disabled
DWT denoise :  enabled
savitzky-golay :  disabled
FFT :  disabled
Running average :  disabled
Kalman :  disabled
High pass :  disabled
---------------BEGIN--------------------
Wavelength(nm)             Reflectance(%)
200.29               0
200.75       -23.42202
201.21        -63.9136
201.67         2617.88
202.13        112.5694
202.58           75.12
203.04        63.27273
203.50        58.58021
203.96        57.47079
204.42        59.64128
204.88        74.93644
205.34       -498.9834
205.80       0.5659893
206.26        12.22986
206.72       -1212.411
207.18        31.57378
207.64        38.44295
208.10        57.16669
208.55        128.0022
209.01        791.4242
209.47        1024.749
209.93        132.0876
210.39        43.49706
210.85        21.34986
211.31        19.21515
211.77        28.97623
212.23        58.61803
212.69        141.6114
213.14        220.0343
213.60        129.3593
214.06        59.59349
214.52        29.95205
214.98        19.36354
215.44        18.03326
215.90        29.53632
216.36       -189.5597
216.81       -47.01056
217.27       -62.21018
217.73       -133.3155
218.19        -557.064
218.65       -12176.86
219.11       -938.0679
219.57       -261.3201
220.02        -153.688
220.48       -252.8944
220.94        278.7068
221.40        84.62846
221.86         56.0558
222.32        47.76212
222.77        45.59283
223.23        47.02283
223.69        51.38746
224.15        54.00467
224.61        51.72649
225.06        47.87001
225.52        45.58008
225.98        45.82586
226.44        48.32237
226.90         52.3802
227.36        57.60765
227.81         61.5857
228.27        62.06323
228.73         60.4033
229.19        57.05191
229.65         52.2165
230.10        46.74043
230.56        41.58384
231.02        37.80631
231.48        36.73016
231.93        37.93757
232.39        40.56671
232.85        43.55492
233.31        45.47105
233.77        46.01407
234.22        45.67611
234.68        44.88172
235.14        44.32086
235.60        44.29744
236.05        44.61327
236.51        45.28045
236.97        46.49391
237.43        48.04743
237.88        49.87709
238.34        51.67274
238.80        53.09726
239.26         54.2729
239.71        57.23958
240.17         59.5401
240.63        62.13144
241.08        62.31543
241.54        59.22898
242.00        56.45974
242.46        58.28865
242.91         66.4843
243.37        83.46519
243.83        114.1877
244.28        148.9903
244.74        156.1616
245.20        134.0066
245.66        99.29057
246.11        68.28635
246.57        44.98108
247.03        26.34003
247.48        15.35422
247.94        14.44343
248.40        22.39958
248.85        38.02165
249.31        57.19473
249.77        67.21354
250.22        64.69711
250.68        56.07145
251.14        48.07641
251.59        46.45642
252.05        52.08886
252.51        65.08215
252.96        85.28007
253.42         101.966
253.88         103.714
254.33         94.2037
254.79        82.25746
255.25        74.26285
255.70        70.25774
256.16        68.55384
256.62        67.93072
257.07        67.82632
257.53        68.27082
257.99        68.71661
258.44        68.59399
258.90        67.86426
259.35        66.23521
259.81        64.51852
260.27        62.62733
260.72         60.5418
261.18        58.74996
261.63        57.00063
262.09        55.68017
262.55        54.77251
263.00         54.0868
263.46        53.59298
263.91        53.01233
264.37        52.27757
264.83        51.32234
265.28        50.21594
265.74        49.04875
266.19        47.67239
266.65        46.22994
267.11        44.70511
267.56        43.28121
268.02        42.30425
268.47        41.74728
268.93        41.52679
269.38         41.3741
269.84        40.84159
270.30        39.87309
270.75        38.63067
271.21        37.44059
271.66        36.66837
272.12        36.37113
272.57        36.34094
273.03        36.37508
273.48        36.18511
273.94        35.69499
274.39         35.0249
274.85        34.20656
275.31         33.1791
275.76        32.00475
276.22        30.79494
276.67        29.75032
277.13         29.2493
277.58        29.23433
278.04        29.58249
278.49        29.96817
278.95        29.93116
279.40        29.34753
279.86         28.4796
280.31         27.4925
280.77        26.70695
281.22         26.1211
281.68        25.67515
282.13        25.32026
282.59        25.06362
283.04        24.87315
283.50        24.78735
283.95        24.73046
284.41        24.60873
284.86        24.39504
285.32        24.13425
285.77        23.89373
286.22        23.84167
286.68        23.99936
287.13        24.26859
287.59        24.55692
288.04        24.68469
288.50         24.6403
288.95        24.46524
289.41        24.24428
289.86        24.06261
290.32        23.98286
290.77        23.96957
291.22        24.03809
291.68        24.19938
292.13        24.45135
292.59        24.83618
293.04        25.33601
293.50        25.92132
293.95        26.57118
294.40        27.28526
294.86        28.11622
295.31        29.15396
295.77        30.42025
296.22        31.88036
296.68        33.43111
297.13         34.8805
297.58        36.14956
298.04         37.3022
298.49        38.39907
298.95        39.60627
299.40        40.95677
299.85        42.41093
300.31        43.98934
300.76        45.68126
301.21        47.47961
301.67        49.40424
302.12        51.32504
302.58        53.06419
303.03        54.55977
303.48        55.86878
303.94        57.20621
304.39        58.82047
304.84        60.80228
305.30        63.06857
305.75        65.39159
306.20        67.45309
306.66        69.18024
307.11        70.61714
307.57         71.9536
308.02         73.3541
308.47         74.9067
308.93        76.54491
309.38        78.15371
309.83        79.65428
310.29        81.02151
310.74        82.27808
311.19         83.4446
311.65        84.52838
312.10        85.50812
312.55        86.36459
313.00        87.11372
313.46        87.80377
313.91        88.42848
314.36        89.03178
314.82        89.60163
315.27        90.08151
315.72        90.49057
316.18        90.85254
316.63        91.26431
317.08        91.89311
317.53        92.76292
317.99        93.81041
318.44        94.88946
318.89        95.69556
319.35         96.1463
319.80        96.31851
320.25        96.38329
320.70        96.64591
321.16        97.16364
321.61        97.85641
322.06        98.55605
322.51        98.99096
322.97        99.08161
323.42        98.95746
323.87        98.72881
324.32        98.58198
324.78         98.5783
325.23        98.70227
325.68        98.93394
326.13        99.25496
326.59        99.62154
327.04        100.1022
327.49        100.6404
327.94        101.1697
328.39        101.6587
328.85        102.0566
329.30        102.4435
329.75          102.83
330.20        103.2199
330.66        103.5743
331.11        103.8963
331.56        104.0757
332.01        104.1148
332.46        104.0616
332.92        103.9935
333.37        104.1574
333.82         104.573
334.27        105.1956
334.72         105.932
335.17        106.6145
335.63         107.144
336.08        107.6007
336.53        107.9812
336.98         108.345
337.43        108.7114
337.88        109.0586
338.34         109.356
338.79        109.5882
339.24        109.7649
339.69        109.9414
340.14         110.181
340.59        110.5724
341.05        111.1287
341.50        111.8085
341.95        112.5941
342.40        113.4718
342.85        114.3979
343.30        115.3559
343.75         116.196
344.20        116.6876
344.66        116.8243
345.11        116.6715
345.56        116.4598
346.01        116.5455
346.46         117.015
346.91        117.7575
347.36        118.6241
347.81        119.3687
348.26        119.9043
348.72        120.3071
349.17        120.5816
349.62        120.7626
350.07        120.8737
350.52          120.89
350.97        120.8533
351.42        120.8505
351.87        120.8903
352.32        120.9427
352.77        120.9649
353.22        120.8784
353.67        120.6693
354.13        120.4109
354.58        120.0585
355.03        119.6153
355.48        119.1166
355.93        118.5884
356.38        118.1426
356.83        117.9559
357.28        118.0372
357.73        118.2923
358.18        118.5822
358.63         118.681
359.08        118.5051
359.53         118.113
359.98         117.498
360.43        116.6673
360.88        115.6623
361.33        114.4891
361.78        113.3066
362.23        112.3523
362.68        111.6749
363.13        111.2404
363.58        110.8571
364.03        110.2038
364.48        109.2243
364.93        108.0217
365.38        106.8389
365.83        106.0449
366.28        105.7076
366.73        105.6977
367.18        105.7561
367.63        105.4771
368.08        104.7531
368.53        103.7037
368.98        102.5611
369.43        101.6682
369.88        101.1077
370.33          100.79
370.78        100.5093
371.23        99.93406
371.68        99.00456
372.13        97.84759
372.58        96.74054
373.03        96.08626
373.48        95.94518
373.93        96.16296
374.38        96.43307
374.83        96.26151
375.28        95.51925
375.72        94.34352
376.17        93.05699
376.62        91.98646
377.07        91.22333
377.52        90.66775
377.97         90.2104
378.42        89.69427
378.87        89.08722
379.32        88.45935
379.77        87.90241
380.22        87.51886
380.67        87.30817
381.11        87.23852
381.56        87.14086
382.01        86.82343
382.46        86.25624
382.91        85.51402
383.36        84.77357
383.81        84.28761
384.26        84.09327
384.71        84.10513
385.15        84.15154
385.60        83.98708
386.05        83.54426
386.50        82.91325
386.95        82.22888
387.40        81.69125
387.85        81.35365
388.29        81.11478
388.74        80.96429
389.19        80.70827
389.64        80.30794
390.09        79.81615
390.54        79.32833
390.98        78.91805
391.43        78.64297
391.88          78.591
392.33        78.64999
392.78        78.25927
393.23        77.58064
393.67        77.53162
394.12        78.00586
394.57        77.76389
395.02        76.91648
395.47        76.62543
395.91        76.88821
396.36        76.81966
396.81        76.43951
397.26        76.25755
397.71        76.18541
398.15        75.99205
398.60        75.77981
399.05        75.16824
399.50        74.45039
399.95        74.90354
400.39         76.1891
400.84        76.08576
401.29        74.70323
401.74        74.05072
402.18        74.23646
402.63         74.1636
403.08        73.88198
403.53        73.37167
403.97        73.67191
404.42        73.76607
404.87         73.9014
405.32        73.91587
405.76        73.76716
406.21        73.65545
406.66         73.5174
407.11        73.04729
407.55        72.42263
408.00        72.12561
408.45        72.19151
408.90        72.44727
409.34        72.65915
409.79        72.28741
410.24        71.52016
410.68        71.20746
411.13        71.40697
411.58         71.6217
412.03        71.69307
412.47        71.62047
412.92        71.34219
413.37        70.87213
413.81        70.40283
414.26        70.29779
414.71        70.57063
415.15        71.17388
415.60        71.79247
416.05        71.95395
416.49        71.54227
416.94        70.73955
417.39        69.89825
417.83        69.52197
418.28        69.72343
418.73        70.32693
419.17        71.08815
419.62        71.53461
420.07        71.51995
420.51        71.17329
420.96        70.67807
421.41         70.1833
421.85        69.73481
422.30        69.48302
422.74        69.34025
423.19        69.03526
423.64        68.66769
424.08        68.91328
424.53        69.64661
424.98        70.11429
425.42        70.22557
425.87        70.37522
426.31        70.62012
426.76        70.69487
427.21        70.69355
427.65        70.99251
428.10        71.41003
428.54         71.4684
428.99        71.20441
429.44        70.65675
429.88        70.02331
430.33        70.12183
430.77        70.65411
431.22        70.49344
431.66        69.73598
432.11        69.51653
432.56        69.83707
433.00        70.26429
433.45        70.58509
433.89        70.90749
434.34         68.2226
434.78        70.76862
435.23        71.10965
435.67        69.74387
436.12        69.47758
436.57        69.26617
437.01        70.27726
437.46        70.74094
437.90        70.73479
438.35        69.84579
438.79        70.51796
439.24        70.38027
439.68        70.14948
440.13        70.14673
440.57        70.39629
441.02        70.29949
441.46        69.87276
441.91        70.34603
442.35        71.31766
442.80        70.70691
443.24        69.48222
443.69        69.65468
444.13        71.15887
444.58        71.68031
445.02        71.08223
445.47        70.53255
445.91         70.2329
446.36        70.12371
446.80        70.24144
447.24        70.55793
447.69        70.93839
448.13        71.20188
448.58        71.29726
449.02        71.24239
449.47        71.11359
449.91        70.99313
450.36        70.93254
450.80        70.87634
451.25        70.82648
451.69        70.75926
452.13        70.67516
452.58        70.58836
453.02        70.50062
453.47        70.43525
453.91        70.38371
454.36        70.36389
454.80        70.36205
455.24        70.26714
455.69        70.06291
456.13         69.9366
456.58        70.04464
457.02        69.47752
457.46        69.98653
457.91        70.13219
458.35        69.70801
458.79        69.69049
459.24        69.80647
459.68        69.32931
460.13        68.45138
460.57        68.09674
461.01        68.40627
461.46        68.08208
461.90        68.50842
462.34        68.53076
462.79        68.06357
463.23        67.68075
463.68        67.36958
464.12        67.29119
464.56        67.41435
465.01        67.60965
465.45        67.75584
465.89        67.88283
466.34        67.94336
466.78        67.90878
467.22        67.88058
467.67        67.38733
468.11        67.51017
468.55        67.45035
468.99        67.46417
469.44        67.37795
469.88        67.19579
470.32        67.00053
470.77        66.82717
471.21        66.73921
471.65        66.72625
472.10         66.7587
472.54        66.80842
472.98        66.79752
473.42        66.69672
473.87        66.73312
474.31        66.77789
474.75        66.27963
475.20        65.47283
475.64        65.30432
476.08        65.72861
476.52        65.86295
476.97        65.65376
477.41        65.67454
477.85        65.91743
478.29         66.0461
478.74        65.75209
479.18        66.18475
479.62        66.21062
480.06        66.24576
480.50         65.8858
480.95        65.89198
481.39        66.38635
481.83        64.98808
482.27        65.37257
482.72        65.84868
483.16        65.32469
483.60         65.4651
484.04        65.72192
484.48        65.57394
484.93        65.01057
485.37        66.21085
485.81        66.57628
486.25        66.25416
486.69         68.2401
487.14         68.0278
487.58        65.44384
488.02        65.24798
488.46          66.098
488.90        64.96921
489.34         65.2923
489.79        65.37962
490.23         65.6818
490.67         65.9037
491.11        65.84867
491.55        65.70274
491.99         65.4803
492.43        65.28345
492.88        65.13895
493.32        65.05116
493.76        65.02503
494.20        64.99697
494.64        64.93935
495.08        65.08829
495.52        65.37221
495.96        65.09496
496.41        64.47652
496.85        64.85431
497.29        65.96919
497.73        66.13945
498.17         65.3873
498.61        65.01424
499.05        65.11918
499.49        65.08907
499.93        64.90483
500.37        64.72654
500.82        64.55905
501.26        64.47835
501.70        64.48462
502.14         64.4479
502.58        64.37798
503.02        64.42937
503.46        64.61514
503.90         64.5676
504.34        64.85486
504.78        64.75503
505.22        64.46508
505.66        64.26844
506.10        64.23615
506.54         64.1144
506.98        63.87602
507.42        64.38145
507.86        64.12469
508.30        64.41542
508.74        64.21999
509.18         64.0918
509.62        63.92026
510.06        63.85295
510.50        63.92466
510.94        64.08106
511.38        64.24488
511.82        64.27734
512.26        64.15262
512.70        63.91835
513.14        63.64138
513.58        63.48927
514.02        63.50351
514.46        63.50828
514.90        63.43172
515.34        63.81143
515.78        63.61697
516.22        63.66928
516.66        63.63276
517.10        63.63338
517.54        63.41945
517.98        63.20777
518.42        63.04551
518.86        63.11085
519.30        63.42293
519.74        63.92163
520.18        64.42879
520.62        64.64504
521.06        64.50193
521.50        64.09338
521.93        63.58424
522.37        63.25626
522.81        63.18107
523.25        63.27518
523.69        63.44632
524.13        63.54559
524.57        63.53054
525.01        63.46619
525.45        63.38392
525.89        63.32457
526.32        63.30254
526.76        63.29705
527.20        63.32462
527.64        63.43248
528.08        63.61631
528.52        63.84488
528.96        64.04857
529.40        64.15085
529.83        64.10277
530.27        63.87309
530.71         63.5548
531.15        63.37209
531.59        63.36429
532.03        63.45084
532.46        63.55551
532.90         63.5755
533.34        63.49139
533.78        63.35679
534.22        63.23335
534.66        63.20774
535.09        63.28177
535.53        63.41257
535.97        63.57417
536.41        63.68407
536.85        63.70655
537.28        63.83577
537.72        63.98191
538.16        63.60426
538.60        62.90969
539.04        62.81445
539.47        63.25217
539.91        63.40369
540.35        63.23595
540.79        63.25039
541.22        63.41718
541.66        63.49335
542.10        63.46833
542.54        63.31676
542.97         63.1139
543.41        63.22149
543.85        63.54508
544.29        63.57474
544.72        63.30777
545.16        63.17768
545.60        63.17988
546.04        63.09628
546.47        62.93916
546.91        62.81209
547.35         62.7439
547.79        62.80211
548.22        62.94832
548.66        63.04387
549.10        63.08511
549.53        63.27758
549.97        63.55314
550.41        63.63288
550.84        63.46292
551.28        63.26016
551.72        63.11312
552.15        62.80919
552.59        62.35546
553.03        62.77666
553.46        62.53988
553.90        62.28988
554.34        62.67846
554.77        62.74408
555.21        62.81288
555.65        62.91854
556.08        63.06276
556.52        63.18143
556.96        63.23679
557.39        63.25834
557.83        63.26411
558.27        63.17027
558.70        63.01481
559.14        63.02032
559.57         63.1304
560.01         63.0545
560.45        62.83982
560.88        62.81178
561.32        62.98739
561.75        63.11432
562.19        63.18871
562.63        63.16399
563.06        63.06049
563.50        63.17429
563.93        63.42261
564.37        63.27354
564.80        62.83064
565.24        62.85413
565.68        63.23151
566.11        63.32814
566.55        63.14307
566.98        62.88236
567.42        62.66094
567.85        62.89723
568.29        63.10526
568.72         63.1975
569.16        63.10931
569.60        63.17145
570.03        63.35614
570.47        63.49836
570.90        63.58471
571.34        63.46714
571.77        64.16955
572.21        63.70411
572.64        63.92809
573.08        63.59446
573.51        64.11044
573.95        63.87979
574.38         63.5677
574.82        62.98538
575.25        64.27943
575.69        64.82735
576.12        63.91586
576.56        63.29597
576.99        63.71267
577.42        64.63037
577.86        64.03024
578.29        64.45046
578.73        64.43459
579.16        64.47756
579.60        64.28619
580.03        64.10281
580.47        63.85392
580.90        64.24171
581.33        63.57732
581.77        63.89349
582.20        65.27946
582.64        64.92579
583.07        65.09135
583.51        64.44047
583.94        63.92503
584.37          63.598
584.81        63.65194
585.24        63.66283
585.68        64.60654
586.11        64.02243
586.54        64.60582
586.98        63.79019
587.41        63.47818
587.85        64.14165
588.28        64.31074
588.71        64.03414
589.15        63.70009
589.58        63.91663
590.01        63.51949
590.45          63.132
590.88        63.33701
591.31         63.6601
591.75        64.18026
592.18        63.86462
592.61        62.96814
593.05        63.30111
593.48        64.42717
593.91        64.52508
594.35        64.38679
594.78        63.77742
595.21        63.52566
595.65        63.46445
596.08        63.55048
596.51        64.15903
596.94        63.58862
597.38        63.45145
597.81        63.20868
598.24        63.82122
598.68        63.69696
599.11         62.7458
599.54        64.13354
599.97        63.46121
600.41        63.71973
600.84        63.60459
601.27        63.70083
601.70        63.66196
602.14         63.6328
602.57        63.59877
603.00        63.82255
603.43        63.73843
603.87        63.45515
604.30        63.73578
604.73        63.63269
605.16        63.49843
605.60        62.89831
606.03        62.89605
606.46        63.32525
606.89        63.15824
607.32          63.096
607.76        62.72139
608.19        63.03384
608.62        63.18724
609.05        63.29225
609.48        63.14576
609.92        63.03017
610.35        62.70187
610.78         63.8669
611.21        64.70897
611.64        63.97007
612.07        63.76571
612.50        63.69858
612.94        63.54793
613.37        63.35466
613.80        63.38637
614.23        63.41094
614.66        63.39388
615.09        63.28059
615.52        63.24409
615.96        63.28897
616.39        63.28245
616.82        63.22413
617.25        63.21799
617.68        63.45018
618.11        63.11018
618.54        62.46941
618.97        62.35942
619.40        62.79794
619.84         63.0358
620.27        63.20369
620.70        63.39581
621.13        63.60889
621.56         63.2653
621.99        62.52418
622.42         62.5571
622.85         63.3286
623.28        63.13736
623.71        62.64108
624.14        63.07707
624.57        62.42172
625.00        62.40765
625.43         62.5089
625.86        62.62328
626.29        62.72077
626.72        62.83938
627.15        62.99084
627.58        63.02069
628.01        62.87038
628.44        63.10549
628.87        62.83646
629.30        62.65952
629.73        62.31047
630.16        62.56712
630.59        62.26676
631.02        62.34557
631.45        62.44735
631.88        62.56064
632.31        62.65852
632.74        62.75563
633.17        62.83336
633.60        62.82972
634.03        62.74061
634.46        62.58236
634.89        62.39463
635.32        62.24624
635.75        62.15924
636.18        62.11704
636.61        62.10751
637.04        62.11093
637.47        62.12163
637.89        62.13676
638.32        62.11928
638.75        62.10762
639.18        62.11394
639.61         61.8793
640.04        61.89537
640.47        61.83408
640.90        61.84686
641.33        61.91166
641.76        62.01518
642.18        62.13404
642.61         62.2286
643.04        62.31015
643.47        62.38062
643.90        62.44444
644.33         62.4978
644.76          62.546
645.18        62.58243
645.61        62.51621
646.04        62.34226
646.47        62.23199
646.90        62.27994
647.33        61.89702
647.75        62.26911
648.18         62.4036
648.61        62.61305
649.04        62.79697
649.47         62.9407
649.89        63.10035
650.32         63.1723
650.75        63.05543
651.18        62.78959
651.61        62.37077
652.03         61.9797
652.46         62.1146
652.89        62.60095
653.32        62.69174
653.74         62.5442
654.17        62.12812
654.60        61.79833
655.03        62.68113
655.46        62.05184
655.88        61.59099
656.31        64.74005
656.74        70.00231
657.16        67.37163
657.59        64.29452
658.02         63.8382
658.45        63.78233
658.87        63.89949
659.30        62.61568
659.73        62.45775
660.15        62.66537
660.58        62.39211
661.01        62.38676
661.44        62.16368
661.86        62.03556
662.29        61.96689
662.72        62.04548
663.14        62.21332
663.57        61.97811
664.00        61.50157
664.42         61.5103
664.85        61.98233
665.27        62.25474
665.70        62.24619
666.13        62.29541
666.55        62.38486
666.98        62.29321
667.41        62.08077
667.83        61.94231
668.26        61.90854
668.69        61.95354
669.11        62.01093
669.54        61.96673
669.96        61.80345
670.39        61.56277
670.82        61.38822
671.24        61.45114
671.67        61.77039
672.09        62.36572
672.52        63.04776
672.94        63.04693
673.37          63.036
673.80        62.52394
674.22        61.96026
674.65        61.69229
675.07        61.82484
675.50        62.22404
675.92        62.72038
676.35        63.00836
676.77        63.00849
677.20        62.81917
677.62        62.54969
678.05        62.37408
678.47        62.34222
678.90         62.3945
679.32        62.47923
679.75        62.57592
680.17        62.66986
680.60        62.69768
681.02        62.64649
681.45        62.88174
681.87        62.74931
682.30        62.76493
682.72        62.74009
683.15        62.69652
683.57        62.64673
684.00        62.59929
684.42        62.56033
684.85        62.54027
685.27        62.53706
685.70        62.48024
686.12        62.38541
686.54        62.49662
686.97        62.72204
687.39        62.67908
687.82         62.3714
688.24        62.18292
688.66        62.13834
689.09        62.00427
689.51        61.82792
689.94        61.84685
690.36        62.09582
690.78        62.38483
691.21        62.54995
691.63        63.17854
692.06        62.65207
692.48        62.80242
692.90        63.11629
693.33         63.1876
693.75        63.00713
694.17        62.81046
694.60         62.6855
695.02        62.76175
695.44        62.79657
695.87        63.03641
696.29        63.31399
696.71        63.33245
697.14        63.10605
697.56        62.90349
697.98        62.80893
698.41        62.76199
698.83        62.76001
699.25         62.9023
699.68        63.09695
700.10        63.20934
700.52         63.1824
700.94        63.06451
701.37        62.90734
701.79        62.81661
702.21        62.80852
702.64        62.85509
703.06        62.91222
703.48        62.91661
703.90        62.85768
704.33        62.76039
704.75        62.66999
705.17        62.64236
705.59        62.69419
706.01        62.80124
706.44        62.93612
706.86        63.08215
707.28         63.2071
707.70        63.31761
708.12        63.41378
708.55        63.48344
708.97        63.52204
709.39        63.54434
709.81        63.55552
710.23        63.57066
710.66        63.59519
711.08        63.63706
711.50        63.68627
711.92        63.74549
712.34         63.8113
712.76        63.88005
713.19          63.918
713.61        63.92699
714.03        63.87926
714.45        63.78063
714.87        63.66116
715.29        63.56456
715.71        63.49974
716.13        63.46076
716.56        63.40577
716.98        63.32891
717.40        63.21105
717.82        63.07599
718.24        62.96744
718.66        62.95388
719.08        63.04287
719.50        63.19476
719.92        63.37897
720.34         63.5477
720.76          63.681
721.19        63.78612
721.61        63.83432
722.03        63.77889
722.45        63.65181
722.87        63.32162
723.29        62.89565
723.71        62.97316
724.13        63.59343
724.55        63.21132
724.97        63.71243
725.39        63.68985
725.81        63.70364
726.23        63.56067
726.65         63.3524
727.07          63.277
727.49        63.35303
727.91        63.53478
728.33        63.77367
728.75        63.99173
729.17        64.15259
729.59        64.27725
730.01        64.36755
730.43        64.42278
730.85        64.44743
731.27        64.43723
731.69        64.39991
732.10        64.35791
732.52        64.31779
732.94        64.28231
733.36        64.25638
733.78        64.24094
734.20        64.24179
734.62         64.2703
735.04        64.31495
735.46         64.3526
735.88        64.36467
736.30        64.34708
736.72        64.33245
737.13        64.30852
737.55         64.2263
737.97        64.35871
738.39        64.61298
738.81        64.21061
739.23         63.4176
739.65        63.72091
740.06        64.85963
740.48         65.2173
740.90        64.69344
741.32        64.17973
741.74        63.87268
742.16        63.69937
742.57        63.74335
742.99        63.99332
743.41        64.36797
743.83        64.72037
744.25        64.98946
744.67         65.1965
745.08        65.34015
745.50         65.3775
745.92        65.33026
746.34         65.2024
746.75         65.0246
747.17        64.87364
747.59        64.76399
748.01         64.6636
748.42        64.60245
748.84        64.60568
749.26        64.62663
749.68        64.73482
750.09        64.87432
750.51        64.60242
750.93        64.14993
751.35         64.5496
751.76        65.61052
752.18        65.98441
752.60        65.57017
753.01        65.10779
753.43        64.78041
753.85        64.59588
754.27         64.6125
754.68        64.78945
755.10        65.04855
755.52        65.26716
755.93        65.43169
756.35        65.61779
756.77        65.71429
757.18        65.74795
757.60        65.81843
758.02         65.2517
758.43        64.34848
758.85        65.39289
759.26        67.71437
759.68        66.91906
760.10        66.59606
760.51         65.8447
760.93         65.9393
761.34        66.03926
761.76        66.07825
762.18        65.73216
762.59        65.13736
763.01        65.21876
763.42        65.94281
763.84        66.18542
764.26        65.90302
764.67        65.63713
765.09        65.52805
765.50        65.57397
765.92        65.73899
766.33        65.62801
766.75        65.27651
767.16        65.31889
767.58        65.74226
768.00        66.16925
768.41        66.49211
768.83        66.76276
769.24        66.85534
769.66        66.44542
770.07        65.69953
770.49        65.17488
770.90        64.98453
771.32        65.11177
771.73        65.47719
772.15        65.78262
772.56        65.99133
772.97         66.2502
773.39        66.50885
773.80        66.68343
774.22        66.72157
774.63        66.67648
775.05        66.54967
775.46        66.41232
775.88        66.27384
776.29         66.1403
776.70        66.04089
777.12        66.02715
777.53        66.12131
777.95        66.29529
778.36        66.47767
778.77        66.51135
779.19        66.38164
779.60        66.15188
780.02        65.91953
780.43        65.87745
780.84         66.0761
781.26        66.32584
781.67        66.62762
782.09        67.13775
782.50        67.69624
782.91        67.82347
783.33        67.52481
783.74        67.32346
784.15        67.23732
784.57        66.98504
784.98        66.64353
785.39        66.47565
785.81        66.51881
786.22        66.71152
786.63        66.96627
787.04        67.12678
787.46        67.16879
787.87        67.11063
788.28        67.03848
788.70        67.06761
789.11        67.20193
789.52         67.4109
789.93        67.63072
790.35        67.74937
790.76        67.76592
791.17        67.72144
791.58        67.65641
792.00        67.61314
792.41        67.63174
792.82        67.67522
793.23        67.77001
793.65        67.94404
794.06         68.2065
794.47        68.53362
794.88        68.76123
795.29        68.71599
795.71        68.34645
796.12        67.69107
796.53        66.98147
796.94        66.77142
797.35        67.13473
797.76         67.6924
798.18        68.19802
798.59        68.53945
799.00        68.58727
799.41        68.30039
799.82        67.85249
800.23        67.60141
800.64        67.63094
801.06        67.79384
801.47         68.0511
801.88        68.22704
802.29        68.25471
802.70         68.1888
803.11        68.07316
803.52        67.96171
803.93         67.8858
804.34        67.83639
804.75         67.7884
805.17        67.73113
805.58        67.69444
805.99        67.57796
806.40        67.46546
806.81        67.70105
807.22        68.17822
807.63        68.38033
808.04        68.28408
808.45        68.26225
808.86        68.31571
809.27        68.18252
809.68        67.92171
810.09        67.77959
810.50        67.79808
810.91        67.91964
811.32        68.06899
811.73        68.11637
812.14        68.02721
812.55        67.84361
812.96        67.65473
813.37        67.60863
813.78        67.74109
814.19        67.99821
814.60        68.27188
815.01         68.4074
815.42        68.36816
815.83        68.19219
816.24        67.96386
816.65        67.84589
817.05        67.89884
817.46        68.04682
817.87        68.22623
818.28        68.28915
818.69        68.20658
819.10        68.02795
819.51        67.84776
819.92        67.83362
820.33        68.01906
820.74        68.31842
821.14        68.63308
821.55        68.84143
821.96        68.89639
822.37        68.86221
822.78        68.72813
823.19        68.47601
823.60        68.14293
824.00          67.756
824.41        67.44504
824.82        67.49969
825.23        67.96028
825.64        68.73933
826.04        69.62723
826.45        70.15788
826.86        70.22586
827.27        69.94877
827.68        69.46696
828.08        69.05455
828.49        68.77934
828.90        68.58636
829.31        68.51485
829.72        68.62711
830.12        68.94275
830.53         69.4136
830.94        69.90938
831.35        70.13398
831.75        70.02241
832.16         69.5862
832.57        69.03733
832.97         68.7049
833.38        68.67715
833.79        68.86586
834.20        69.10957
834.60        69.14159
835.01        68.92632
835.42        68.57034
835.82        68.23198
836.23        68.11382
836.64        68.28704
837.04        68.68533
837.45        69.16925
837.86        69.62278
838.26        69.98023
838.67        70.22894
839.08        70.32511
839.48        70.18238
839.89        69.81023
840.29        69.21982
840.70        68.59396
841.11        68.15212
841.51        67.97838
841.92        68.05242
842.33        68.24201
842.73        68.31062
843.14        68.15616
843.54        67.84712
843.95        67.62519
844.35        67.91599
844.76        68.73514
845.17        69.95483
845.57        71.16605
845.98        71.52682
846.38        70.89841
846.79        69.56213
847.19        68.02032
847.60        67.06538
848.00        66.89252
848.41        67.24265
848.81        67.93245
849.22         68.5423
849.62        68.95362
850.03        69.24257
850.43        69.38386
850.84        69.20828
851.24        68.76664
851.65        68.05396
852.05        67.31071
852.46        66.95206
852.86        67.03637
853.27         67.4652
853.67        67.99068
854.07        68.44493
854.48        68.71502
854.88        68.92593
855.29        68.93128
855.69        68.70135
856.10        68.17014
856.50        67.43868
856.90         66.7104
857.31        66.31915
857.71        66.36045
858.12        66.70586
858.52        67.26427
858.92        67.65686
859.33        67.73933
859.73        67.65601
860.13        67.44145
860.54        67.18465
860.94        66.97157
861.34         66.7415
861.75        66.55434
862.15        66.61877
862.55        66.91109
862.96        67.38313
863.36        67.86106
863.76        68.06416
864.17        67.91561
864.57        67.53172
864.97        67.00661
865.38        66.48251
865.78        66.06693
866.18        65.69318
866.58        65.44155
866.99        65.44951
867.39        65.73199
867.79        66.22068
868.19        66.71194
868.60        66.85539
869.00        66.59422
869.40         66.0528
869.80        65.38721
870.21        64.89748
870.61        64.72872
871.01        64.75237
871.41         64.9794
871.81         65.4276
872.22        66.04012
872.62        66.87614
873.02        67.71831
873.42        68.13366
873.82         68.0089
874.22        67.45524
874.63        66.82587
875.03        66.64166
875.43        67.01256
875.83        67.75208
876.23        68.59251
876.63        69.05997
877.03        69.02673
877.44        68.71553
877.84        68.19768
878.24        67.61306
878.64        67.05158
879.04        66.41299
879.44        65.96027
879.84        66.08949
880.24        66.80375
880.64        68.03264
881.04        69.17233
881.44        69.13482
881.84        67.74052
882.24        65.41679
882.65        63.09333
883.05        61.99894
883.45        62.41982
883.85        63.99795
884.25         66.1003
884.65        67.54652
885.05        67.90453
885.45        67.49792
885.85        66.77449
886.25        66.42674
886.65        66.63805
887.05        67.14369
887.45        67.65749
887.85        67.76116
888.25        67.33968
888.65        66.57941
889.04        65.72732
889.44        65.14735
889.84        64.93692
890.24        65.03888
890.64        65.26606
891.04        65.31422
891.44         65.1278
891.84        64.80113
892.24        64.63463
892.64        65.08663
893.04        66.22198
893.44        67.87341
893.83        69.61091
894.23        70.63609
894.63        70.74435
895.03        70.09196
895.43        69.13921
895.83        68.63484
896.23        68.77207
896.63        69.37143
897.02        69.97004
897.42        69.81661
897.82         68.8023
898.22        67.22977
898.62        65.71325
899.01        65.08397
899.41         65.5085
899.81        66.74884
900.21        68.22308
900.61        68.84312
901.00        68.28931
901.40        66.98376
901.80        65.61383
902.20        65.11989
902.59        65.71496
902.99        67.08929
903.39        68.77091
903.79        69.75335
904.18         69.6647
904.58        68.85804
904.98        67.87596
905.38        67.46135
905.77        67.75388
906.17        68.51034
906.57        69.37954
906.96         69.8379
907.36        69.67278
907.76        69.07939
908.15        68.31887
908.55        67.73541
908.95        67.49356
909.34          67.486
909.74        67.56638
910.14        67.47321
910.53        67.15897
910.93        66.75181
911.33         66.4396
911.72        66.52309
912.12        67.04092
912.52        67.84599
912.91        68.73316
913.31        69.36306
913.70        69.65868
914.10        69.67088
914.49        69.49229
914.89        69.21741
915.29        68.93799
915.68        68.62284
916.08        68.36181
916.47        68.24572
916.87        68.30507
917.26         68.4711
917.66        68.68464
918.05        68.82384
918.45          68.827
918.84        68.79779
919.24        68.61326
919.64        68.20763
920.03        67.62527
920.42        66.88477
920.82        66.31722
921.21        66.27409
921.61        66.79159
922.00        67.80118
922.40        68.89148
922.79        69.40917
923.19        69.13017
923.58        68.28997
923.98         67.3226
924.37        66.83736
924.77        66.98476
925.16        67.58844
925.55        68.40977
925.95        69.00226
926.34        69.22263
926.74        69.17944
927.13        68.94021
927.52        68.59908
927.92        68.21526
928.31        67.74566
928.70        67.26332
929.10        66.88824
929.49         66.6872
929.89        66.67947
930.28         66.8264
930.67        67.00336
931.07        67.15366
931.46        67.27636
931.85        67.48158
932.24        67.98004
932.64        68.75189
933.03        69.78627
933.42        70.68714
933.82         70.8369
934.21        70.16028
934.60        68.84914
934.99        67.49615
935.39        66.96791
935.78        67.44186
936.17        68.66109
936.56        70.10661
936.96         70.8846
937.35        70.76965
937.74        70.01202
938.13        68.95139
938.53        68.12817
938.92        67.71884
939.31        67.61726
939.70        67.73713
940.09        67.97433
940.49        68.21126
940.88        68.46177
941.27        68.79766
941.66        69.33128
942.05         70.0202
942.44        70.83864
942.84        71.26446
943.23        70.46622
943.62        68.48569
944.01        65.78465
944.40        63.35633
944.79         62.4533
945.18        63.23329
945.57        65.35832
945.97        68.03556
946.36        69.88372
946.75        70.17776
947.14        69.32615
947.53        67.94236
947.92        67.04797
948.31        66.95408
948.70        67.26587
949.09        67.82799
949.48        68.41629
949.87        68.89237
950.26        69.42922
950.65        69.78162
951.04        69.49252
951.43        68.55746
951.82        67.11572
952.21        65.72227
952.60          65.249
952.99        65.84336
953.38        67.23417
953.77        68.85571
954.16        69.71321
954.55        69.49251
954.94        68.47833
955.33           67.08
955.72        65.97886
956.11        65.42815
956.50        65.25909
956.89        65.32135
957.28        65.37168
957.66         65.3359
958.05        65.30199
958.44         65.3937
958.83        65.76512
959.22         66.4129
959.61        67.21681
960.00        67.94196
960.39        68.21754
960.78        67.94759
961.16        67.26558
961.55        66.37997
961.94        65.60974
962.33        65.07629
962.72        64.69479
963.11        64.50298
963.49        64.56715
963.88        64.82156
964.27        65.29652
964.66        65.78175
965.04        65.92548
965.43         65.6096
965.82        64.95687
966.21        64.25792
966.60        64.01714
966.98        64.37243
967.37        65.14065
967.76        66.07908
968.15        66.76421
968.53        67.07098
968.92        67.08192
969.31        66.91813
969.69        66.77802
970.08        66.70184
970.47        66.61354
970.86        66.51888
971.24        66.43695
971.63        66.37834
972.02        66.45467
972.40        66.60777
972.79        66.65287
973.17        66.64584
973.56        66.54566
973.95        66.69567
974.33        67.66051
974.72        69.43397
975.11        71.88474
975.49        74.48107
975.88        75.94498
976.26        75.82118
976.65        74.40129
977.04        72.25399
977.42        70.15237
977.81        68.40871
978.19        66.82433
978.58        65.50507
978.96        64.42433
979.35        63.58207
979.74        62.98851
980.12        62.63825
980.51        62.34092
980.89        62.13194
981.28        62.08734
981.66        62.10632
982.05        61.97424
982.43        61.70086
982.82           61.25
983.20        61.15097
983.59        62.26081
983.97        64.76679
984.35        68.46697
984.74        72.15939
985.12        73.81445
985.51        72.67474
985.89        69.49763
986.28        65.81709
986.66         63.4702
987.04        62.97488
987.43        63.72987
987.81        65.22366
988.20        66.30394
988.58        66.57344
988.96        66.46632
989.35        66.00152
989.73        65.29449
990.12        64.43472
990.50        63.27428
990.88        62.29763
991.27        62.28938
991.65        63.38404
992.03        65.55667
992.42        67.85568
992.80        68.60184
993.18        67.09357
993.56        64.07078
993.95        61.09436
994.33        59.67867
994.71         60.1827
995.10        62.11554
995.48         64.8091
995.86        66.30988
996.24        65.85133
996.63        64.18626
997.01        62.35574
997.39        61.74202
997.77        62.65256
998.15        64.49977
998.54         66.9626
998.92        69.50171
999.30        71.71712
999.68        73.82175
1000.06        75.10625
1000.45        74.31377
1000.83         71.5715
1001.21        67.34193
1001.59        63.16837
1001.97        61.10934
1002.35        61.50341
1002.73        63.84904
1003.12        67.14745
1003.50        69.51129
1003.88        70.13195
1004.26        69.52892
1004.64        68.28729
1005.02        67.40463
1005.40        67.16792
1005.78        67.09384
1006.16        67.02119
1006.54        66.76265
1006.92        66.21298
1007.30        65.61311
1007.69        64.74084
1008.07         63.2427
1008.45        61.31728
1008.83        59.30367
1009.21        57.86776
1009.59        57.69518
1009.97          58.844
1010.35        61.27469
1010.73        64.49961
1011.11        67.11449
1011.49        68.30549
1011.86        68.05421
1012.24        67.44208
1012.62        68.32062
1013.00        71.25349
1013.38        76.06805
1013.76        81.03775
1014.14        81.80773
1014.52        77.49772
1014.90        70.78147
1015.28        64.80807
1015.66        62.12918
1016.04        62.76039
1016.41         66.1927
1016.79        71.44403
1017.17        76.27879
1017.55        78.88079
1017.93        79.58038
1018.31        78.23424
1018.69        75.36445
1019.06        71.83366
1019.44        68.19823
1019.82        65.29522
1020.20        63.78971
1020.58        63.47561
1020.95         64.3213
1021.33        65.74983
1021.71        66.33053
1022.09        65.44978
1022.46        63.25375
1022.84        61.12534
1023.22        60.65495
1023.60        62.23091
1023.97        66.12048
1024.35        70.62064
1024.73        70.66985
