SpectraSmart Spectrum 2.9.0.0
--------- Device Information -----------
Spectrum Name :  反射率_0
Saving Time :  2024/05/03 20:26:27
Spectro-Module Model Name : SE2030-DUVN
Spectro-Module Serial Number : OS361AC55029948
Wavelength Start : 200
Wavelength End : 1025
Wavelength Unit : Wavelength(nm)
Spectrum Unit : Reflectance(%)
-----------Spectrum Setting ------------
Integration Time : 20ms
Average : 10
Boxcar : 0
Background removal :  enabled
linearity correction :  enabled
SC :  disabled
Intensity correction :  disabled
DWT denoise :  enabled
savitzky-golay :  disabled
FFT :  disabled
Running average :  disabled
Kalman :  disabled
High pass :  disabled
---------------BEGIN--------------------
Wavelength(nm)             Reflectance(%)
200.29               0
200.75       -2.447071
201.21       -2.211163
201.67          181.78
202.13        19.16482
202.58        22.59286
203.04        27.97734
203.50        34.28563
203.96        42.65536
204.42        57.74054
204.88        109.6406
205.34        -1693.06
205.80       -134.5262
206.26       -130.1142
206.72       -26504.29
207.18        85.02594
207.64        55.52763
208.10        63.61107
208.55        123.2618
209.01        759.5009
209.47        1173.937
209.93        204.4013
210.39        102.1657
210.85        73.96746
211.31        65.93207
211.77        66.47598
212.23        75.34929
212.69        101.6361
213.14        119.7087
213.60        82.05018
214.06        59.41394
214.52        51.72596
214.98        51.37213
215.44        57.72516
215.90        87.08384
216.36        -347.416
216.81       -50.95413
217.27       -60.12689
217.73       -135.6699
218.19       -592.9467
218.65       -12791.93
219.11       -921.1353
219.57       -229.5637
220.02       -117.6293
220.48       -188.7875
220.94        235.3199
221.40        82.49979
221.86        60.83986
222.32        55.55956
222.77        55.79023
223.23        60.46976
223.69        68.81978
224.15         72.2096
224.61        65.57879
225.06        55.68872
225.52        49.12366
225.98        47.63377
226.44        50.18765
226.90        55.97956
227.36        63.19318
227.81        65.66106
228.27        60.68642
228.73        52.27071
229.19        44.47361
229.65        40.04585
230.10        38.44211
230.56        38.49233
231.02         39.1133
231.48        39.45259
231.93        39.37183
232.39        39.25389
232.85        39.24941
233.31        39.59966
233.77        40.33733
234.22        41.28329
234.68        42.34371
235.14        43.36311
235.60        44.29036
236.05        45.29868
236.51        46.20095
236.97        46.76431
237.43        46.91568
237.88        46.81777
238.34        46.95855
238.80         47.9959
239.26         50.4136
239.71        56.89068
240.17        66.10472
240.63        77.88837
241.08         84.9793
241.54        83.16708
242.00        77.77807
242.46        77.81377
242.91        86.37038
243.37        105.1281
243.83        139.1187
244.28        176.1137
244.74          179.83
245.20         151.285
245.66        112.3807
246.11         82.0358
246.57         62.7739
247.03        49.26675
247.48        41.68141
247.94        39.95388
248.40         42.8109
248.85        49.96696
249.31        58.91239
249.77        62.22163
250.22        58.76581
250.68        52.69543
251.14        48.00117
251.59        48.35852
252.05        54.60894
252.51        67.31206
252.96        87.57852
253.42        107.9383
253.88        117.0279
254.33        114.7485
254.79        105.4286
255.25        93.87397
255.70        83.72662
256.16        76.25436
256.62        71.59348
257.07        69.83862
257.53        70.29756
257.99        71.52477
258.44        72.16811
258.90        71.39446
259.35        68.94814
259.81        66.12007
260.27        63.21244
260.72        60.57632
261.18        58.66621
261.63          57.025
262.09        55.82391
262.55        54.83751
263.00        53.88078
263.46         53.0168
263.91         52.1279
264.37         51.3637
264.83        50.66354
265.28        49.98286
265.74        49.23805
266.19        48.06369
266.65         46.5805
267.11        44.85559
267.56        43.20071
268.02        42.13888
268.47        41.67647
268.93        41.67232
269.38        41.75837
269.84        41.32193
270.30        40.26641
270.75        38.81527
271.21        37.39943
271.66        36.52618
272.12        36.28083
272.57        36.41224
273.03        36.63201
273.48        36.51267
273.94        35.95137
274.39         35.1236
274.85        34.14979
275.31         33.0951
275.76        32.02998
276.22        30.99589
276.67        30.12648
277.13        29.71797
277.58        29.69808
278.04        29.98729
278.49        30.26403
278.95        30.07736
279.40        29.33117
279.86        28.29398
280.31        27.19344
280.77        26.42823
281.22        25.99142
281.68        25.79046
282.13        25.68751
282.59        25.55469
283.04        25.33042
283.50        25.09114
283.95        24.84691
284.41        24.62946
284.86        24.43979
285.32         24.2951
285.77         24.1804
286.22         24.1396
286.68        24.18248
287.13        24.25941
287.59        24.39539
288.04        24.57819
288.50        24.81113
288.95        25.06505
289.41        25.28475
289.86        25.33695
290.32          25.238
290.77        25.02973
291.22        24.84576
291.68        24.86646
292.13        25.13206
292.59        25.63311
293.04        26.29449
293.50        26.99406
293.95        27.68201
294.40        28.39335
294.86        29.21698
295.31        30.29001
295.77        31.64757
296.22        33.23736
296.68        34.92807
297.13        36.48405
297.58        37.81612
298.04        39.00705
298.49        40.15153
298.95        41.46743
299.40        42.99702
299.85        44.68302
300.31        46.51398
300.76        48.42847
301.21        50.40438
301.67        52.47254
302.12        54.51773
302.58        56.39046
303.03        58.02523
303.48        59.45663
303.94        60.88059
304.39        62.51878
304.84        64.45529
305.30        66.61408
305.75        68.77301
306.20        70.62504
306.66        72.11547
307.11        73.30583
307.57        74.39377
308.02        75.54299
308.47        76.85384
308.93        78.26698
309.38        79.70246
309.83        81.13581
310.29        82.53643
310.74        83.89016
311.19        85.15229
311.65        86.22936
312.10        87.07093
312.55        87.68955
313.00        88.12928
313.46        88.48373
313.91         88.7745
314.36        89.04457
314.82        89.31423
315.27        89.57525
315.72        89.85672
316.18        90.17462
316.63        90.59003
317.08        91.20697
317.53        92.02527
317.99        92.98508
318.44        93.95505
318.89        94.66389
319.35        95.03416
319.80        95.12783
320.25        95.08941
320.70        95.18256
321.16        95.46483
321.61        95.88598
322.06        96.31944
322.51        96.55848
322.97        96.54736
323.42        96.39478
323.87        96.20625
324.32        96.15627
324.78        96.28752
325.23        96.57869
325.68        96.95724
326.13        97.32241
326.59        97.60775
327.04        97.88783
327.49        98.16794
327.94          98.494
328.39        98.86958
328.85        99.22962
329.30        99.58839
329.75        99.84055
330.20        99.97111
330.66        99.99178
331.11        100.0055
331.56        100.0631
332.01        100.2045
332.46        100.4216
332.92        100.6943
333.37        101.1033
333.82        101.6066
334.27        102.1922
334.72        102.8092
335.17        103.3707
335.63         103.812
336.08         104.192
336.53        104.4918
336.98        104.7466
337.43        104.9773
337.88        105.1841
338.34        105.3799
338.79        105.6077
339.24        105.8815
339.69        106.2272
340.14        106.6469
340.59        107.1311
341.05         107.669
341.50        108.2534
341.95        108.9006
342.40        109.6558
342.85        110.4985
343.30        111.3868
343.75        112.1952
344.20         112.733
344.66        112.9854
345.11         113.005
345.56        112.9389
346.01        113.0096
346.46        113.2886
346.91        113.7199
347.36        114.2557
347.81        114.8111
348.26        115.3442
348.72        115.8809
349.17        116.3772
349.62        116.7869
350.07        117.0948
350.52         117.293
350.97        117.4078
351.42        117.5001
351.87        117.5805
352.32         117.626
352.77        117.6161
353.22        117.5185
353.67        117.3318
354.13        117.1092
354.58         116.819
355.03        116.4796
355.48        116.1156
355.93        115.7489
356.38        115.4271
356.83         115.222
357.28        115.1375
357.73        115.1285
358.18        115.1542
358.63        115.1489
359.08        115.0726
359.53        114.9312
359.98        114.6622
360.43        114.1828
360.88        113.4877
361.33        112.5955
361.78        111.6399
362.23        110.8231
362.68        110.1952
363.13         109.734
363.58         109.283
364.03        108.5863
364.48        107.6109
364.93        106.4454
365.38        105.3378
365.83        104.6597
366.28         104.468
366.73        104.6306
367.18        104.8418
367.63        104.6166
368.08        103.8331
368.53         102.636
368.98        101.3146
369.43        100.3009
369.88        99.70669
370.33         99.4257
370.78        99.22427
371.23        98.72179
371.68        97.83455
372.13        96.69063
372.58          95.593
373.03        94.98231
373.48        94.92483
373.93        95.26353
374.38        95.61781
374.83        95.37645
375.28        94.40247
375.72        92.87727
376.17        91.27744
376.62        90.15339
377.07        89.62651
377.52         89.5271
377.97        89.56118
378.42        89.26346
378.87        88.53373
379.32        87.54759
379.77        86.58196
380.22        86.00729
380.67        85.87772
381.11        86.07161
381.56        86.29661
382.01        86.14734
382.46        85.53299
382.91        84.61577
383.36        83.65838
383.81         83.0318
384.26        82.81026
384.71        82.86159
385.15        83.00259
385.60        82.97542
386.05        82.69021
386.50        82.23572
386.95         81.7055
387.40        81.23325
387.85        80.86568
388.29        80.52621
388.74        80.24325
389.19        79.88512
389.64        79.42927
390.09         78.9083
390.54        78.42146
390.98        78.04485
391.43        77.83265
391.88        77.88143
392.33        78.03789
392.78        77.69351
393.23        77.02245
393.67        76.89594
394.12        77.25311
394.57        77.13838
395.02        76.55367
395.47        76.09458
395.91        75.85383
396.36        75.63195
396.81        75.47387
397.26         75.4731
397.71        75.51428
398.15        75.40149
398.60        75.20515
399.05        74.78334
399.50        74.27527
399.95        74.26756
400.39        74.65774
400.84        74.36018
401.29        73.52012
401.74        73.39883
402.18        73.90383
402.63        73.81063
403.08        73.25574
403.53        72.74641
403.97        73.33736
404.42        73.61494
404.87        73.76988
405.32        73.76449
405.76        73.55243
406.21        73.34371
406.66        73.11014
407.11        72.50603
407.55        71.77271
408.00        71.60964
408.45        71.99478
408.90        72.43032
409.34        72.62907
409.79        72.20121
410.24        71.36663
410.68        70.97639
411.13        71.10342
411.58        71.23907
412.03        71.23618
412.47        71.12574
412.92        70.85271
413.37        70.42517
413.81        70.01118
414.26        69.93626
414.71        70.20707
415.15        70.78466
415.60        71.37353
416.05        71.53866
416.49        71.17174
416.94        70.43593
417.39        69.66386
417.83        69.33385
418.28        69.55142
418.73        70.15047
419.17        70.88982
419.62        71.30369
420.07        71.25692
420.51        70.87995
420.96        70.36782
421.41        69.90826
421.85        69.55148
422.30        69.37077
422.74        69.26993
423.19        69.11623
423.64        68.92688
424.08        69.03128
424.53        69.38401
424.98        69.68298
425.42        69.88799
425.87        70.20999
426.31        70.60351
426.76        70.61642
427.21        70.37295
427.65        70.56801
428.10        71.05704
428.54        71.15565
428.99        70.89783
429.44        70.45034
429.88        70.01463
430.33        70.26173
430.77        70.88001
431.22        70.98766
431.66        70.57202
432.11        70.17271
432.56        69.90353
433.00        70.20618
433.45         70.8561
433.89        71.23335
434.34        68.36246
434.78        70.65365
435.23        71.05874
435.67        70.23048
436.12        69.72046
436.57        69.61156
437.01        70.70058
437.46        71.19738
437.90        71.14506
438.35        70.55099
438.79         71.0417
439.24        70.90605
439.68        70.60283
440.13        70.33997
440.57        70.23959
441.02        70.04931
441.46        69.79593
441.91        70.47973
442.35         71.5689
442.80        71.06439
443.24        69.42217
443.69        69.62814
444.13        71.41534
444.58         71.9872
445.02        71.21622
445.47        70.65805
445.91        70.54253
446.36        70.55614
446.80         70.7162
447.24        71.22337
447.69        71.84033
448.13        71.86774
448.58        71.45564
449.02        71.20081
449.47        71.21848
449.91        71.11271
450.36        70.93403
450.80        70.91726
451.25        71.04109
451.69        71.09135
452.13        71.05294
452.58        71.00851
453.02        70.93784
453.47        70.83955
453.91        70.70007
454.36        70.50476
454.80        70.31869
455.24        70.28181
455.69        70.35384
456.13        70.70045
456.58        70.41074
457.02        70.58112
457.46        70.18306
457.91         70.1266
458.35        70.10401
458.79        70.13397
459.24        70.12608
459.68        69.72536
460.13        69.10979
460.57        68.83047
461.01        68.98463
461.46        69.05231
461.90        68.84937
462.34         69.4454
462.79        68.76791
463.23        68.57929
463.68        68.36277
464.12        68.36417
464.56        68.50557
465.01         68.5436
465.45        68.47399
465.89        68.44964
466.34        68.44981
466.78        68.63161
467.22        69.02916
467.67         68.1981
468.11        68.18649
468.55        68.08833
468.99         68.4035
469.44        68.39488
469.88        68.05777
470.32        67.77641
470.77        67.60806
471.21        67.53316
471.65        67.54398
472.10        67.62966
472.54        67.75459
472.98        67.82136
473.42        67.78744
473.87        67.89769
474.31        67.99913
474.75          67.454
475.20          66.528
475.64        66.31014
476.08        66.75546
476.52        66.87466
476.97        66.62934
477.41        66.63151
477.85        66.83172
478.29         67.0235
478.74        67.23911
479.18        67.29974
479.62        67.28072
480.06         67.2218
480.50        67.09084
480.95        67.07803
481.39        67.22337
481.83        66.58901
482.27        66.56363
482.72        67.04657
483.16        66.67985
483.60        66.80623
484.04        66.99417
484.48        66.72135
484.93        66.08203
485.37        67.20064
485.81         68.1177
486.25        67.63485
486.69        69.65202
487.14        69.51049
487.58        66.64749
488.02         66.5992
488.46        67.41666
488.90        65.93704
489.34        66.86591
489.79        67.14161
490.23        67.04443
490.67        67.05951
491.11        66.90611
491.55        66.83047
491.99        66.78915
492.43        66.67664
492.88        66.50623
493.32        66.44749
493.76        66.50822
494.20        66.53705
494.64        66.50139
495.08        66.64248
495.52        66.90114
495.96        66.63464
496.41        66.04384
496.85        66.39278
497.29        67.42693
497.73        67.48322
498.17        66.62029
498.61         66.2746
499.05        66.53117
499.49        66.54242
499.93        66.30733
500.37        66.28544
500.82         66.4147
501.26        66.36443
501.70        66.14763
502.14        66.01354
502.58        65.99747
503.02        65.99375
503.46        66.01191
503.90        66.12881
504.34        66.28366
504.78        66.34814
505.22        66.30311
505.66        66.12836
506.10         65.8757
506.54        65.87424
506.98        66.13187
507.42        66.10084
507.86         65.6809
508.30        66.34369
508.74        65.76318
509.18        65.70306
509.62        65.53934
510.06        65.50084
510.50        65.59318
510.94        65.78504
511.38        65.99674
511.82        66.04179
512.26         65.9034
512.70        65.60909
513.14        65.25135
513.58        65.10349
514.02        65.23134
514.46        65.04495
514.90        65.40254
515.34        65.48238
515.78        65.52314
516.22        65.54424
516.66        65.52946
517.10        65.43116
517.54        65.25139
517.98        65.00655
518.42        64.79898
518.86        64.79804
519.30        65.02749
519.74         65.4335
520.18        65.86901
520.62        66.08877
521.06        66.03101
521.50        65.76842
521.93         65.4223
522.37        65.20707
522.81        65.17336
523.25         65.2523
523.69         65.3744
524.13        65.43011
524.57        65.39011
525.01        65.30918
525.45        65.20975
525.89        65.11839
526.32         65.0509
526.76        65.00105
527.20        64.99909
527.64        65.11336
528.08        65.34389
528.52        65.63591
528.96        65.91302
529.40         66.1196
529.83        66.18017
530.27         65.9908
530.71        65.64817
531.15         65.4423
531.59        65.41624
532.03         65.4556
532.46        65.47896
532.90        65.39419
533.34        65.19257
533.78        64.93756
534.22        64.71947
534.66         64.6628
535.09        64.77419
535.53         64.9981
535.97        65.28313
536.41        65.50135
536.85        65.59957
537.28        65.78484
537.72        65.96957
538.16        65.60816
538.60        64.91574
539.04        64.82752
539.47        65.27827
539.91        65.42931
540.35        65.24863
540.79        65.25948
541.22        65.41869
541.66        65.45379
542.10        65.35508
542.54        65.10455
542.97        64.81432
543.41        64.91048
543.85        65.30151
544.29        65.43975
544.72        65.27781
545.16        65.20088
545.60        65.19695
546.04        65.05173
546.47        64.80254
546.91        64.66578
547.35        64.67757
547.79        64.70692
548.22        64.75591
548.66        65.05135
549.10        65.47395
549.53        65.63653
549.97        65.53279
550.41        65.50282
550.84        65.55356
551.28         65.4871
551.72        65.30196
552.15        65.08346
552.59        64.87281
553.03        64.69382
553.46         64.5524
553.90        64.50618
554.34        64.48722
554.77        64.84937
555.21        65.01953
555.65        64.89856
556.08        65.25256
556.52        65.30055
556.96        65.30627
557.39        65.27769
557.83        65.25557
558.27        65.13869
558.70        64.96177
559.14        64.97431
559.57        65.11327
560.01        65.06703
560.45        64.88493
560.88        64.89343
561.32        65.09487
561.75        65.26742
562.19        65.38811
562.63        65.24996
563.06        64.94211
563.50        65.11515
563.93        65.63547
564.37        65.52421
564.80        64.90525
565.24        64.92948
565.68        65.46332
566.11        65.58097
566.55        65.29266
566.98        64.98472
567.42        64.77518
567.85        65.04486
568.29        65.28622
568.72        65.36646
569.16        65.22983
569.60        65.44281
570.03        65.37211
570.47        65.64776
570.90        66.04972
571.34        65.36915
571.77        66.00633
572.21        66.32211
572.64        66.10125
573.08        65.74727
573.51         65.9502
573.95        65.94026
574.38         66.2465
574.82        65.34315
575.25         66.7332
575.69        67.06285
576.12        66.60986
576.56        65.55253
576.99        65.71975
577.42        66.76556
577.86        66.59986
578.29        66.42193
578.73        66.51305
579.16        66.58557
579.60        66.71323
580.03         66.3206
580.47        66.30359
580.90        66.52721
581.33        65.74471
581.77        66.27148
582.20        67.33381
582.64        67.17785
583.07        67.17523
583.51        66.51356
583.94        65.97173
584.37        65.78415
584.81        65.95161
585.24        66.08524
585.68        67.07114
586.11        66.54252
586.54        66.77229
586.98        65.91438
587.41        65.27133
587.85        66.30828
588.28        66.70116
588.71         66.5846
589.15        65.85901
589.58        66.33107
590.01        65.43155
590.45         65.0557
590.88        65.70384
591.31        66.11912
591.75        66.43555
592.18        66.18557
592.61        65.66374
593.05        65.36734
593.48        66.77525
593.91        66.58593
594.35        66.64242
594.78        66.19118
595.21        66.23066
595.65        66.08425
596.08        65.84412
596.51        66.34255
596.94        66.10284
597.38        66.04939
597.81        65.71835
598.24        66.13837
598.68        65.95007
599.11        65.26624
599.54        66.88665
599.97        66.05503
600.41        66.32592
600.84        66.12492
601.27        66.27153
601.70        66.02718
602.14        66.03962
602.57        66.06329
603.00        66.23058
603.43        66.23418
603.87        66.11019
604.30        66.21254
604.73        66.49297
605.16        66.14532
605.60        65.43739
606.03        65.48663
606.46        66.30141
606.89        65.72043
607.32        66.06964
607.76        65.61816
608.19        65.91897
608.62        66.07267
609.05        66.01019
609.48        65.92319
609.92        65.98691
610.35        65.43177
610.78        66.71174
611.21        67.26087
611.64        66.83723
612.07         66.7142
612.50        66.72568
612.94        66.51466
613.37        66.06423
613.80        66.46829
614.23         65.9632
614.66        66.00822
615.09         66.0761
615.52        66.15461
615.96        66.16084
616.39        66.29944
616.82        66.12042
617.25        66.03562
617.68        66.12798
618.11        66.10951
618.54         65.6718
618.97        65.60313
619.40        65.81374
619.84        66.01905
620.27        66.13464
620.70        66.41243
621.13        66.79109
621.56        65.96631
621.99        65.34411
622.42        65.34654
622.85        66.20088
623.28        66.15678
623.71        65.68288
624.14        65.51925
624.57         64.9619
625.00        65.13972
625.43        65.25386
625.86        65.49403
626.29        65.56364
626.72        66.04568
627.15        65.93743
627.58        65.92804
628.01        65.72746
628.44        65.74229
628.87        65.49228
629.30        65.43255
629.73        65.41415
630.16        65.81604
630.59         65.4638
631.02        65.45673
631.45        65.49351
631.88        65.54628
632.31        65.59621
632.74        65.86163
633.17         65.9194
633.60        65.96502
634.03        65.86642
634.46        65.66879
634.89        65.43031
635.32        65.21459
635.75         65.0502
636.18        64.99086
636.61        65.04544
637.04        64.83836
637.47        64.98552
637.89        64.98055
638.32        64.97668
638.75        65.00732
639.18        65.08566
639.61        64.93076
640.04         65.0209
640.47        64.96318
640.90        64.90554
641.33        64.85377
641.76        64.84982
642.18        64.86703
642.61        65.03526
643.04        65.22404
643.47        65.41904
643.90        65.51943
644.33        65.49864
644.76        65.39086
645.18        65.25583
645.61        65.11029
646.04        64.97472
646.47        64.99149
646.90        65.19597
647.33        64.87334
647.75        65.24079
648.18        65.27961
648.61        65.38079
649.04        65.55713
649.47        65.79034
649.89        66.07439
650.32        66.27557
650.75         66.1681
651.18        65.84881
651.61        65.63407
652.03        65.57546
652.46        65.76653
652.89        66.03642
653.32        65.76012
653.74        65.19203
654.17        65.38923
654.60        64.60708
655.03        66.26884
655.46          65.209
655.88        64.91341
656.31        68.05678
656.74        73.71869
657.16          69.848
657.59        66.02505
658.02        66.49869
658.45        67.17165
658.87        67.02812
659.30        65.83574
659.73         65.5028
660.15        65.80389
660.58        65.39214
661.01        65.40517
661.44        65.21705
661.86         64.9305
662.29        64.60631
662.72        64.76379
663.14        65.30981
663.57        65.26699
664.00        64.74425
664.42        64.74876
664.85        65.24859
665.27        65.40061
665.70        65.18382
666.13        65.10499
666.55        65.17348
666.98        65.17722
667.41        65.16518
667.83          64.996
668.26        65.17236
668.69        65.27102
669.11        65.38023
669.54        65.32948
669.96        65.10075
670.39        64.89305
670.82        64.75424
671.24        64.58642
671.67        64.53674
672.09        65.19241
672.52        66.31248
672.94        66.64917
673.37        66.77605
673.80        66.09663
674.22        65.16996
674.65        64.72596
675.07        64.91515
675.50        65.34773
675.92        65.83765
676.35        66.17936
676.77        66.28495
677.20        66.22828
677.62        66.07459
678.05        65.92956
678.47        65.83463
678.90        65.75063
679.32        65.69917
679.75        65.78084
680.17        65.99837
680.60         66.2421
681.02        66.41618
681.45        66.75092
681.87        66.51408
682.30        66.37782
682.72        66.19162
683.15         65.8858
683.57        65.58817
684.00        65.66708
684.42        66.03904
684.85          66.223
685.27        66.16747
685.70        66.06133
686.12        65.95047
686.54        66.03306
686.97        66.22627
687.39        66.13399
687.82        65.77654
688.24        65.59145
688.66        65.60694
689.09        65.56442
689.51        65.47818
689.94        65.54223
690.36        65.77888
690.78        66.00382
691.21        66.07281
691.63        66.65324
692.06        66.05958
692.48        66.21639
692.90        66.56238
693.33        66.67862
693.75        66.55154
694.17        66.34415
694.60        66.14984
695.02        66.50463
695.44         66.4742
695.87        66.91288
696.29        67.37054
696.71        67.27395
697.14        66.69677
697.56        66.33787
697.98         66.3014
698.41        66.21584
698.83        66.08508
699.25        66.20411
699.68        66.47835
700.10        66.66724
700.52        66.69874
700.94        66.64726
701.37        66.55702
701.79        66.52346
702.21        66.55744
702.64        66.62299
703.06        66.67706
703.48          66.665
703.90        66.58243
704.33        66.45915
704.75        66.34287
705.17        66.29195
705.59        66.32558
706.01        66.41589
706.44        66.55213
706.86        66.74532
707.28         66.9595
707.70        67.18575
708.12        67.37759
708.55        67.45996
708.97        67.41391
709.39        67.25974
709.81        67.06091
710.23        66.95163
710.66        66.97099
711.08        67.09231
711.50        67.25423
711.92        67.38114
712.34        67.44695
712.76        67.47119
713.19        67.45267
713.61        67.45051
714.03          67.449
714.45        67.42838
714.87        67.38835
715.29        67.33204
715.71        67.25715
716.13         67.1716
716.56        67.04994
716.98        66.91667
717.40        66.76416
717.82        66.61205
718.24        66.49604
718.66        66.47092
719.08        66.54224
719.50        66.67673
719.92        66.85883
720.34        67.06258
720.76         67.2701
721.19        67.47734
721.61        67.63155
722.03        67.64782
722.45        67.54859
722.87        67.20266
723.29        66.73727
723.71        66.81058
724.13        67.46983
724.55        67.07473
724.97        67.63705
725.39         67.6076
725.81        67.56477
726.23        67.45058
726.65        67.39743
727.07        66.95618
727.49        67.28632
727.91        67.42526
728.33         67.6598
728.75        67.87778
729.17        68.05004
729.59         68.1899
730.01        68.28971
730.43        68.36636
730.85        68.42158
731.27        68.44125
731.69        68.43174
732.10        68.42442
732.52        68.43585
732.94        68.41905
733.36        68.34664
733.78        68.32583
734.20        68.39776
734.62        67.95572
735.04        68.11713
735.46        68.02375
735.88        67.99709
736.30        67.99301
736.72        68.04954
737.13        68.14771
737.55        68.21291
737.97        68.49663
738.39        68.87296
738.81        68.57816
739.23        67.84033
739.65        68.01687
740.06        68.90844
740.48        69.12579
740.90        68.59233
741.32        68.09068
741.74        67.81527
742.16        67.70721
742.57        67.83331
742.99        68.23415
743.41        68.76141
743.83        69.02977
744.25        69.02252
744.67        69.07733
745.08        69.23425
745.50        69.25458
745.92         69.1674
746.34        69.11955
746.75        69.08629
747.17        68.97478
747.59           68.78
748.01        68.52663
748.42        68.29457
748.84        68.20204
749.26        68.22984
749.68        68.37489
750.09        68.57283
750.51        68.45348
750.93        68.19333
751.35        68.66134
751.76        69.67889
752.18        70.05468
752.60        69.69707
753.01        69.24826
753.43        68.89216
753.85        68.68464
754.27        68.69139
754.68        68.86703
755.10         69.1344
755.52        69.36912
755.93        69.55205
756.35        69.75809
756.77        69.89109
757.18        69.95037
757.60        69.99391
758.02        69.52524
758.43        68.83351
758.85        69.65109
759.26        71.39739
759.68        71.34165
760.10        70.56158
760.51        69.91724
760.93        69.93512
761.34        70.13245
761.76        70.37407
762.18        70.02218
762.59        69.25942
763.01        69.28218
763.42          70.067
763.84        70.29368
764.26        69.92672
764.67        69.57098
765.09        69.40882
765.50        69.56501
765.92        69.94653
766.33        69.87144
766.75        69.37043
767.16        69.36454
767.58        69.85346
768.00        70.24194
768.41        70.46533
768.83        70.79665
769.24        71.07724
769.66        70.83324
770.07        70.17692
770.49        69.56437
770.90        69.18549
771.32          69.376
771.73        70.01891
772.15        70.41744
772.56        70.51428
772.97        70.69735
773.39        70.93253
773.80        71.04192
774.22        70.97792
774.63        70.83153
775.05        70.62034
775.46        70.43835
775.88        70.29982
776.29        70.20435
776.70        70.16666
777.12        70.21219
777.53        70.35827
777.95        70.58672
778.36        70.82543
778.77        70.91655
779.19        70.83823
779.60        70.63641
780.02        70.43672
780.43        70.44969
780.84        70.72148
781.26        71.15159
781.67        71.65315
782.09        71.99747
782.50        72.11907
782.91        72.09042
783.33        71.93821
783.74        71.78286
784.15        71.63374
784.57        71.47605
784.98        71.34056
785.39        71.27329
785.81        71.28544
786.22        71.37904
786.63        71.50689
787.04        71.57983
787.46        71.59582
787.87         71.5384
788.28        71.48002
788.70        71.53135
789.11        71.66819
789.52        71.87743
789.93        72.08156
790.35        72.15215
790.76        72.09551
791.17        71.96297
791.58        71.80793
792.00        71.72121
792.41        71.76164
792.82        71.79171
793.23        71.85559
793.65        72.23326
794.06        72.81865
794.47        73.05773
794.88        72.89204
795.29        72.70007
795.71        72.44436
796.12        71.95178
796.53        71.38322
796.94        71.08913
797.35        71.21353
797.76        71.89478
798.18         72.8222
798.59        73.28634
799.00        73.11515
799.41         72.6022
799.82        72.01822
800.23        71.72475
800.64        71.83292
801.06        72.19032
801.47        72.68637
801.88        73.00424
802.29        73.03466
802.70        72.87518
803.11        72.61574
803.52        72.38841
803.93        72.25036
804.34        72.16393
804.75        72.11766
805.17         72.0928
805.58        72.10719
805.99        72.16075
806.40        72.27413
806.81        72.43541
807.22        72.63386
807.63        72.92068
808.04        73.21955
808.45        73.30361
808.86        73.13176
809.27        72.80553
809.68        72.43784
810.09        72.20358
810.50        72.16657
810.91        72.28049
811.32        72.48879
811.73        72.68769
812.14        72.83347
812.55        72.96033
812.96        73.04694
813.37        73.05496
813.78        72.98667
814.19        72.84507
814.60        72.69875
815.01        72.65906
815.42        72.75139
815.83        72.95708
816.24        73.21361
816.65        73.38862
817.05        73.43684
817.46        73.35581
817.87         73.2434
818.28        73.19828
818.69        73.24652
819.10        73.35622
819.51        73.47812
819.92        73.52888
820.33        73.47822
820.74        73.34701
821.14        73.18424
821.55        73.08006
821.96        73.04632
822.37        73.08022
822.78        73.11778
823.19        73.04453
823.60        72.84841
824.00        72.58838
824.41        72.36588
824.82        72.42888
825.23        72.81311
825.64         73.4243
826.04        74.11722
826.45        74.54151
826.86        74.63023
827.27        74.48724
827.68        74.17629
828.08         73.8371
828.49        73.50074
828.90        73.14316
829.31        72.90681
829.72        73.02225
830.12        73.54817
830.53        74.38884
830.94        75.26492
831.35        75.62023
831.75        75.32396
832.16        74.45753
832.57        73.43143
832.97        72.89433
833.38        73.00376
833.79        73.56352
834.20        74.22214
834.60        74.41543
835.01          74.043
835.42        73.32452
835.82        72.55646
836.23        72.15424
836.64        72.26702
837.04        72.76943
837.45        73.47721
837.86        74.20419
838.26        74.83551
838.67        75.35869
839.08        75.70903
839.48        75.76437
839.89        75.51658
840.29        74.97038
840.70        74.28621
841.11         73.6588
841.51        73.18707
841.92        72.87291
842.33        72.67423
842.73        72.50428
843.14        72.30743
843.54        72.13055
843.95          72.128
844.35        72.57872
844.76        73.45081
845.17        74.64361
845.57        75.81786
845.98        76.24896
846.38        75.82345
846.79        74.77171
847.19        73.49167
847.60        72.62861
848.00        72.35801
848.41        72.47657
848.81        72.91683
849.22        73.44939
849.62        74.00174
850.03        74.56705
850.43        75.03216
850.84        75.06276
851.24        74.65729
851.65        73.88253
852.05        72.95922
852.46        72.27303
852.86         71.9351
853.27        71.88265
853.67        72.04626
854.07        72.51653
854.48         73.1992
854.88        74.16272
855.29        75.03152
855.69         75.3064
856.10        74.72978
856.50        73.53085
856.90        72.15645
857.31        71.32374
857.71        71.24716
858.12        71.70638
858.52        72.50843
858.92        73.07344
859.33        73.18137
859.73        73.03914
860.13        72.78418
860.54        72.66051
860.94        72.77166
861.34        72.97692
861.75        73.15229
862.15        73.22598
862.55        73.11647
862.96        72.88702
863.36        72.57406
863.76         72.2289
864.17        71.88297
864.57        71.57267
864.97        71.28904
865.38        70.99681
865.78        70.73969
866.18        70.50195
866.58        70.38347
866.99        70.54716
867.39        71.01025
867.79        71.65981
868.19        72.26908
868.60         72.4769
869.00        72.22192
869.40        71.63441
869.80         70.8856
870.21        70.29768
870.61        70.03487
871.01        69.98293
871.41        70.14152
871.81        70.50206
872.22        71.00411
872.62        71.71478
873.02        72.47249
873.42        72.94453
873.82        73.02683
874.22        72.78259
874.63        72.45475
875.03        72.40183
875.43        72.70535
875.83        73.22849
876.23        73.78836
876.63        74.05937
877.03        73.96873
877.44        73.70059
877.84        73.29105
878.24        72.82078
878.64        72.34692
879.04        71.77557
879.44        71.37288
879.84        71.53628
880.24        72.27027
880.64        73.51035
881.04         74.6162
881.44        74.44688
881.84         72.8346
882.24        70.23833
882.65        67.69795
883.05        66.59065
883.45        67.21875
883.85        69.17105
884.25        71.68887
884.65        73.35675
885.05         73.6711
885.45        73.03735
885.85        71.99485
886.25        71.37851
886.65        71.42283
887.05        71.81598
887.45        72.30608
887.85        72.52509
888.25        72.35548
888.65        71.98856
889.04        71.54311
889.44        71.18707
889.84        70.97516
890.24        70.86746
890.64        70.85821
891.04         70.9549
891.44        71.14971
891.84        71.43815
892.24        71.82963
892.64        72.32932
893.04        72.92342
893.44        73.59722
893.83        74.26758
894.23        74.71653
894.63        74.90939
895.03        74.83482
895.43        74.64767
895.83        74.60827
896.23        74.76862
896.63        75.08894
897.02         75.2966
897.42        74.95032
897.82        74.01489
898.22        72.66303
898.62        71.36061
899.01         70.7366
899.41        70.92464
899.81        71.78607
900.21         72.8456
900.61        73.20602
901.00          72.624
901.40        71.44308
901.80        70.31714
902.20        70.16489
902.59        71.16788
902.99        73.01112
903.39        75.10858
903.79        76.20705
904.18        75.88339
904.58        74.61629
904.98        73.09586
905.38        72.26379
905.77        72.32081
906.17        72.95895
906.57        73.90872
906.96        74.77414
907.36         75.3213
907.76        75.70761
908.15         75.8989
908.55        75.73222
908.95        75.25324
909.34        74.47543
909.74        73.62214
910.14        73.01387
910.53         72.7428
910.93        72.78851
911.33        73.03862
911.72        73.29571
912.12        73.48232
912.52        73.62388
912.91        73.81149
913.31        74.16313
913.70        74.70654
914.10        75.32677
914.49        75.84419
914.89        75.89275
915.29        75.43826
915.68        74.61974
916.08         73.7367
916.47        73.20203
916.87        73.15642
917.26        73.42192
917.66        73.87807
918.05        74.32297
918.45        74.64072
918.84        74.95168
919.24        75.08014
919.64        74.85613
920.03        74.28895
920.42        73.42807
920.82        72.62349
921.21        72.24135
921.61        72.34962
922.00        72.88687
922.40         73.5733
922.79        74.01271
923.19        74.02386
923.58        73.74193
923.98        73.39284
924.37        73.27636
924.77        73.47176
925.16        73.89433
925.55        74.38222
925.95        74.64886
926.34        74.64822
926.74        74.44873
927.13        74.16701
927.52        73.97565
927.92         73.9194
928.31         73.9224
928.70        73.94913
929.10        73.92041
929.49        73.84643
929.89        73.80766
930.28        73.79864
930.67        73.75977
931.07        73.68436
931.46        73.55821
931.85        73.59869
932.24        74.19492
932.64        75.34134
933.03        76.97398
933.42        78.51161
933.82        79.00304
934.21        78.28294
934.60        76.64693
934.99         74.8185
935.39        73.87122
935.78        74.05637
936.17        75.05074
936.56        76.37186
936.96        77.18684
937.35        77.26268
937.74         76.8456
938.13        76.12571
938.53        75.38929
938.92        74.77194
939.31        74.24763
939.70        73.90761
940.09        73.93078
940.49        74.25981
940.88        74.81889
941.27        75.55736
941.66        76.36573
942.05        77.10671
942.44        77.81524
942.84        77.99187
943.23        76.85773
943.62        74.50858
944.01        71.41568
944.40        68.63367
944.79        67.47871
945.18        68.12012
945.57        70.23539
945.97        73.00391
946.36        74.99131
946.75        75.44502
947.14        74.76552
947.53        73.63458
947.92        73.20309
948.31        73.77547
948.70        74.86876
949.09        76.13418
949.48        77.04118
949.87        77.36827
950.26        77.38943
950.65        77.01275
951.04        76.04122
951.43        74.58215
951.82        72.73203
952.21        71.05051
952.60        70.39053
952.99        70.88862
953.38        72.31841
953.77        74.05687
954.16        74.99202
954.55        74.78013
954.94        73.69995
955.33        72.27445
955.72        71.39244
956.11        71.32444
956.50        71.81635
956.89         72.5028
957.28        72.79251
957.66        72.54462
958.05        71.97733
958.44        71.42903
958.83        71.40234
959.22        72.00108
959.61        72.99266
960.00        74.07713
960.39        74.75541
960.78        74.84879
961.16        74.53854
961.55        73.91933
961.94        73.12263
962.33        72.27563
962.72        71.36388
963.11         70.6481
963.49        70.57824
963.88        71.17314
964.27         72.3259
964.66        73.66083
965.04        74.54252
965.43        74.70713
965.82        74.32692
966.21        73.62879
966.60        73.02931
966.98        72.69749
967.37         72.5005
967.76        72.38004
968.15        72.21932
968.53        72.01423
968.92        71.81709
969.31        71.72107
969.69        71.83017
970.08        72.12054
970.47        72.52504
970.86         72.9754
971.24         73.3769
971.63        73.70036
972.02        74.05563
972.40        74.39648
972.79         74.5826
973.17        74.68451
973.56        74.62165
973.95        74.78732
974.33        75.83428
974.72        77.75719
975.11        80.42841
975.49        83.18182
975.88        84.43416
976.26        83.69998
976.65        81.41882
977.04        78.42996
977.42        75.85571
977.81        74.06624
978.19         72.7265
978.58         71.7975
978.96        71.02145
979.35        70.31361
979.74        69.74798
980.12        69.32012
980.51        68.83573
980.89         68.3616
981.28        67.97025
981.66        67.65501
982.05        67.35947
982.43        67.15437
982.82        66.98125
983.20        67.30058
983.59         68.8615
983.97        71.81046
984.35        75.94044
984.74           80.05
985.12        82.11723
985.51        81.33939
985.89        78.46407
986.28         74.9169
986.66        72.38951
987.04        71.41451
987.43        71.40253
987.81        72.14717
988.20        73.04467
988.58        73.86664
988.96         74.8985
989.35        75.66877
989.73        75.50569
990.12         74.3216
990.50        72.17399
990.88        70.05597
991.27        69.49004
991.65        70.78554
992.03        73.77488
992.42        77.04323
992.80        77.95854
993.18        75.56484
993.56        71.07655
993.95        66.78151
994.33        65.00645
994.71        66.23439
995.10        69.69941
995.48        74.40563
995.86        77.49717
996.24        77.64871
996.63        75.81824
997.01        73.21459
997.39        71.46585
997.77        71.02937
998.15        71.29118
998.54        72.09941
998.92        73.30576
999.30        74.71634
999.68         76.5429
1000.06        78.21425
1000.45        78.57555
1000.83        77.55341
1001.21        75.34467
1001.59        72.95567
1001.97         71.8061
1002.35         72.1647
1002.73        73.74787
1003.12        75.77074
1003.50        76.86678
1003.88        76.54379
1004.26        75.23773
1004.64        73.81213
1005.02        73.67519
1005.40        75.05861
1005.78        77.28043
1006.16        79.53161
1006.54         80.5089
1006.92        79.77016
1007.30        77.85869
1007.69        74.75469
1008.07        70.82127
1008.45        66.83369
1008.83        63.06823
1009.21        60.60806
1009.59        60.54897
1009.97        62.85347
1010.35        67.50955
1010.73        73.26119
1011.11        76.75535
1011.49        76.39919
1011.86        72.64061
1012.24        68.02518
1012.62         66.6547
1013.00        69.76746
1013.38        76.91369
1013.76        85.72053
1014.14        89.49749
1014.52        86.09676
1014.90        79.01579
1015.28        72.37541
1015.66        69.76099
1016.04        71.40891
1016.41        76.49788
1016.79        83.91924
1017.17        90.98426
1017.55        95.28805
1017.93        97.19124
1018.31        95.98234
1018.69         91.4575
1019.06        84.95084
1019.44         77.9629
1019.82        72.23428
1020.20          68.968
1020.58        67.78934
1020.95        68.39754
1021.33        70.17818
1021.71        71.59518
1022.09        71.85658
1022.46        71.04955
1022.84         70.2439
1023.22        70.79781
1023.60        73.09514
1023.97         77.2937
1024.35        81.69286
1024.73         81.6495
