SpectraSmart Spectrum 2.9.0.0
--------- Device Information -----------
Spectrum Name :  反射率_0
Saving Time :  2024/05/03 20:22:12
Spectro-Module Model Name : SE2030-DUVN
Spectro-Module Serial Number : OS361AC55029948
Wavelength Start : 200
Wavelength End : 1025
Wavelength Unit : Wavelength(nm)
Spectrum Unit : Reflectance(%)
-----------Spectrum Setting ------------
Integration Time : 20ms
Average : 10
Boxcar : 0
Background removal :  enabled
linearity correction :  enabled
SC :  disabled
Intensity correction :  disabled
DWT denoise :  enabled
savitzky-golay :  disabled
FFT :  disabled
Running average :  disabled
Kalman :  disabled
High pass :  disabled
---------------BEGIN--------------------
Wavelength(nm)             Reflectance(%)
200.29               0
200.75        19.11193
201.21        29.01079
201.67       -233.2074
202.13        24.03581
202.58        35.02385
203.04        45.04469
203.50        54.26716
203.96        63.20803
204.42        75.94701
204.88        113.9125
205.34       -1221.636
205.80       -84.62918
206.26       -121.1874
206.72       -43322.73
207.18        203.5589
207.64        139.3561
208.10        119.0107
208.55        106.6136
209.01       -14.59137
209.47       -326.4988
209.93       -12.91944
210.39        28.11627
210.85        42.72569
211.31        51.97001
211.77         62.7061
212.23        85.55124
212.69         138.743
213.14        162.1659
213.60        80.42079
214.06        32.13565
214.52        14.25608
214.98        9.115108
215.44        10.85474
215.90        29.27376
216.36       -268.1775
216.81       -65.31114
217.27       -72.55492
217.73       -129.6417
218.19       -477.7704
218.65       -9951.475
219.11       -777.4688
219.57        -230.051
220.02        -150.525
220.48       -278.5255
220.94        331.5856
221.40        104.3185
221.86        70.47957
222.32        61.94293
222.77        62.13831
223.23        68.80704
223.69        80.17372
224.15        82.61977
224.61        69.98722
225.06        54.01495
225.52        44.03707
225.98        42.30983
226.44        47.24606
226.90        57.82827
227.36        71.82323
227.81        79.82883
228.27        76.44216
228.73        66.93061
229.19        56.61459
229.65        49.38262
230.10        45.21204
230.56        42.86253
231.02        41.78707
231.48        41.78133
231.93        42.48278
232.39        43.91052
232.85        45.55305
233.31        46.68289
233.77        47.18378
234.22        47.20245
234.68        47.12994
235.14        47.66994
235.60        49.04191
236.05        51.14727
236.51        53.54316
236.97        55.38782
237.43        56.27767
237.88        56.58058
238.34        56.80768
238.80        57.68701
239.26        59.73209
239.71        65.05026
240.17        72.81657
240.63        84.31628
241.08        94.30087
241.54        97.80161
242.00        96.76817
242.46        97.60133
242.91        103.0649
243.37        113.3327
243.83        129.8143
244.28        142.3216
244.74        130.4044
245.20        100.7996
245.66         72.2105
246.11         55.7247
246.57         49.9633
247.03        50.29913
247.48        52.42773
247.94        51.96689
248.40        48.40582
248.85        42.72205
249.31        37.09644
249.77        35.90569
250.22        39.79395
250.68        46.12444
251.14        52.77697
251.59        59.50445
252.05        67.70814
252.51        79.04392
252.96        95.93475
253.42        116.1214
253.88        130.5288
254.33        134.6418
254.79        128.0854
255.25        113.4662
255.70        97.71372
256.16        85.34451
256.62        77.14336
257.07        73.37419
257.53        72.94391
257.99        73.74237
258.44        74.55013
258.90        74.74659
259.35        73.73452
259.81        72.56164
260.27         70.8364
260.72        68.19298
261.18         65.4024
261.63        62.46657
262.09        60.21056
262.55        59.03747
263.00         58.6908
263.46        58.89722
263.91        59.11609
264.37         58.9374
264.83        58.19848
265.28        57.09764
265.74         55.7871
266.19        54.15924
266.65        52.41697
267.11        50.52168
267.56        48.74563
268.02        47.58008
268.47        47.00827
268.93         46.9234
269.38        46.94631
269.84        46.43135
270.30        45.28265
270.75        43.72763
271.21        42.22184
271.66         41.3065
272.12        41.06718
272.57        41.22348
273.03        41.47149
273.48        41.35642
273.94        40.76923
274.39        39.90342
274.85        38.85814
275.31        37.65738
275.76        36.38368
276.22        35.10796
276.67        34.04205
277.13        33.60131
277.58        33.70943
278.04        34.24601
278.49        34.77789
278.95         34.6773
279.40         33.8095
279.86        32.52028
280.31        31.13511
280.77        30.19198
281.22        29.69422
281.68        29.50683
282.13         29.4309
282.59        29.25981
283.04        28.91425
283.50        28.51221
283.95        28.10094
284.41        27.76956
284.86        27.52664
285.32        27.36705
285.77         27.2509
286.22        27.19378
286.68        27.19469
287.13        27.20815
287.59        27.26563
288.04        27.35434
288.50         27.4846
288.95        27.63166
289.41        27.74187
289.86        27.68305
290.32        27.48174
290.77        27.18138
291.22        26.93958
291.68         26.9697
292.13        27.30642
292.59        27.92175
293.04        28.70144
293.50         29.4575
293.95        30.12741
294.40        30.77832
294.86         31.5202
295.31         32.5205
295.77        33.82866
296.22        35.37305
296.68         37.0593
297.13        38.71356
297.58        40.23709
298.04        41.68266
298.49        43.03804
298.95         44.3667
299.40        45.68921
299.85        47.00605
300.31        48.41654
300.76         50.0331
301.21        51.88053
301.67        53.93939
302.12        56.03611
302.58        57.92512
303.03        59.51864
303.48        60.90181
303.94        62.28564
304.39        63.90681
304.84        65.85682
305.30        68.03324
305.75        70.24993
306.20        72.26252
306.66        74.00873
307.11        75.52355
307.57         76.8991
308.02        78.13946
308.47        79.33057
308.93        80.46991
309.38        81.61265
309.83        82.94601
310.29        84.48495
310.74        86.15233
311.19        87.78483
311.65        89.09309
312.10        89.97968
312.55        90.52786
313.00        90.87448
313.46        91.25549
313.91         91.7244
314.36        92.26244
314.82        92.83745
315.27        93.36488
315.72        93.84101
316.18        94.30483
316.63        94.81084
317.08        95.45133
317.53        96.23367
317.99        97.10167
318.44        97.96044
318.89        98.59988
319.35         98.9646
319.80        99.11127
320.25        99.16422
320.70        99.34885
321.16        99.70824
321.61        100.1982
322.06        100.7027
322.51        101.0331
322.97        101.1321
323.42        101.0973
323.87        101.0019
324.32        100.9755
324.78        101.0528
325.23        101.2287
325.68         101.477
326.13        101.7734
326.59         102.074
327.04        102.4435
327.49        102.8405
327.94        103.2297
328.39        103.5934
328.85        103.8849
329.30        104.1772
329.75         104.459
330.20        104.7332
330.66        104.9714
331.11        105.2066
331.56        105.3712
332.01        105.4765
332.46        105.5595
332.92        105.6514
333.37        105.9248
333.82        106.3741
334.27        106.9604
334.72        107.6418
335.17        108.3461
335.63         108.989
336.08        109.6165
336.53         110.139
336.98        110.4754
337.43        110.6211
337.88        110.6155
338.34        110.5218
338.79        110.4749
339.24        110.5308
339.69        110.6961
340.14        111.0076
340.59        111.5052
341.05        112.1724
341.50        112.9878
341.95        113.8774
342.40        114.7347
342.85        115.5074
343.30        116.1984
343.75        116.7672
344.20        117.1686
344.66        117.4323
345.11        117.5639
345.56        117.6695
346.01        117.9104
346.46        118.3239
346.91        118.8587
347.36        119.4579
347.81        120.0202
348.26        120.5024
348.72        120.9416
349.17        121.2809
349.62        121.4604
350.07        121.4827
350.52        121.3586
350.97        121.1975
351.42         121.186
351.87        121.3478
352.32        121.6102
352.77        121.8448
353.22        121.8441
353.67        121.5611
354.13        121.1067
354.58        120.5115
355.03        119.8952
355.48        119.3268
355.93        118.8079
356.38        118.3931
356.83        118.1662
357.28        118.1234
357.73        118.2103
358.18        118.3666
358.63        118.4882
359.08         118.511
359.53        118.4378
359.98        118.1712
360.43         117.584
360.88        116.6728
361.33        115.4744
361.78         114.192
362.23         113.134
362.68        112.3789
363.13        111.8856
363.58        111.4418
364.03        110.6951
364.48        109.5906
364.93        108.2467
365.38         106.971
365.83        106.2253
366.28        106.0845
366.73        106.3866
367.18        106.7583
367.63         106.606
368.08        105.7831
368.53        104.4686
368.98        103.0232
369.43        101.9926
369.88        101.5077
370.33        101.4141
370.78        101.4134
371.23        101.0137
371.68        100.0991
372.13        98.84634
372.58        97.58229
373.03        96.78111
373.48        96.53337
373.93        96.66864
374.38        96.87027
374.83        96.63406
375.28        95.83087
375.72        94.60383
376.17        93.30363
376.62        92.29342
377.07        91.65729
377.52        91.27209
377.97        90.96022
378.42        90.45485
378.87        89.71037
379.32        88.84997
379.77        88.03915
380.22        87.48293
380.67        87.20918
381.11        87.15448
381.56         87.1427
382.01        86.96572
382.46        86.56637
382.91        86.01041
383.36        85.42734
383.81        85.00171
384.26        84.76059
384.71        84.63818
385.15        84.49869
385.60        84.16315
386.05        83.59238
386.50         82.8651
386.95        82.12489
387.40        81.57889
387.85        81.27557
388.29        81.11453
388.74        81.05078
389.19        80.83965
389.64        80.43056
390.09        79.88022
390.54        79.32473
390.98        78.90297
391.43        78.68479
391.88        78.74986
392.33        78.92199
392.78        78.53286
393.23        77.75563
393.67        77.56148
394.12        77.90733
394.57        77.69843
395.02        77.01661
395.47        76.80161
395.91        77.03684
396.36        77.00597
396.81        76.70872
397.26        76.51888
397.71        76.38886
398.15        76.15678
398.60        75.92318
399.05        75.44213
399.50        74.89127
399.95        75.05273
400.39        75.72826
400.84        75.52646
401.29        74.55325
401.74        74.10522
402.18        74.22855
402.63        74.15131
403.08        73.93466
403.53        73.45677
403.97        73.75705
404.42        73.81683
404.87        73.87491
405.32        73.79509
405.76        73.54488
406.21        73.29654
406.66        73.05207
407.11        72.62033
407.55        72.16821
408.00        72.15233
408.45        72.50738
408.90        72.76407
409.34        72.73174
409.79        72.28876
410.24        71.62296
410.68        71.26596
411.13        71.28317
411.58        71.37843
412.03        71.41899
412.47        71.33875
412.92        71.07578
413.37        70.66464
413.81        70.25897
414.26        70.16225
414.71        70.37672
415.15        70.86273
415.60        71.33845
416.05        71.40172
416.49        70.96092
416.94        70.18115
417.39        69.38143
417.83        69.01253
418.28        69.17886
418.73        69.72797
419.17        70.44594
419.62        70.91113
420.07        70.98197
420.51        70.75357
420.96        70.38853
421.41        69.99905
421.85        69.61914
422.30        69.44299
422.74        69.34816
423.19        68.95889
423.64         68.3962
424.08        68.45955
424.53        69.09598
424.98        69.53732
425.42        69.70127
425.87        70.12513
426.31        70.73145
426.76        70.75175
427.21        70.35634
427.65        70.58784
428.10        71.25288
428.54        71.35526
428.99        70.93018
429.44        70.24068
429.88        69.57346
430.33        69.85881
430.77        70.72182
431.22         70.8154
431.66        70.13686
432.11        69.79025
432.56        69.82381
433.00        69.86644
433.45        69.88968
433.89        70.38332
434.34        68.12818
434.78        70.90189
435.23        70.90369
435.67        69.02377
436.12        68.44588
436.57        68.44946
437.01        70.18803
437.46        70.96603
437.90        70.74355
438.35        70.23765
438.79        70.82298
439.24        70.67323
439.68        70.18237
440.13        69.91312
440.57        69.91802
441.02        69.37917
441.46        68.51356
441.91        69.19051
442.35        70.75831
442.80        70.41245
443.24        68.59177
443.69        68.72672
444.13        70.56823
444.58        71.14015
445.02         70.3195
445.47        69.71058
445.91        69.55089
446.36        69.55595
446.80        69.75074
447.24        70.27126
447.69        70.87165
448.13        70.99842
448.58        70.66119
449.02        70.30403
449.47        70.08005
449.91        69.88976
450.36        69.80705
450.80        69.91847
451.25        70.15365
451.69        70.28139
452.13        70.26051
452.58        70.16506
453.02        70.01602
453.47        69.87141
453.91        69.74378
454.36        69.61477
454.80        69.45437
455.24        69.31261
455.69        69.22068
456.13        69.02292
456.58        68.74353
457.02        69.01335
457.46        68.81129
457.91        68.85545
458.35        68.72979
458.79        68.77361
459.24        68.86404
459.68        68.45522
460.13        67.74483
460.57        67.40712
461.01        67.55359
461.46        67.52547
461.90        67.50777
462.34        67.78851
462.79         67.2133
463.23        66.82769
463.68        66.42637
464.12        66.43755
464.56        66.75305
465.01        66.88983
465.45        66.77014
465.89        66.67625
466.34        66.61602
466.78        66.54457
467.22         66.5675
467.67        66.07905
468.11        66.35842
468.55        66.32536
468.99        66.32437
469.44        66.29214
469.88        66.23442
470.32        66.15075
470.77        66.03495
471.21        65.93538
471.65        65.83755
472.10         65.7221
472.54        65.61808
472.98        65.53764
473.42        65.47634
473.87        65.61701
474.31        65.77444
474.75        65.36179
475.20        64.62739
475.64        64.25588
476.08        64.86562
476.52        64.91219
476.97           64.53
477.41        64.45382
477.85        64.74796
478.29        64.44334
478.74        64.49813
479.18         64.7879
479.62        64.73396
480.06        64.80247
480.50        64.69042
480.95        64.72448
481.39        64.91693
481.83        64.31422
482.27        64.37675
482.72        64.61888
483.16         64.3399
483.60        64.38762
484.04        64.54403
484.48        64.28093
484.93        63.65961
485.37        64.69869
485.81        65.80884
486.25        64.85882
486.69        67.87959
487.14        67.59606
487.58        64.33915
488.02        63.94435
488.46        65.37334
488.90        63.55296
489.34        64.17022
489.79        64.31973
490.23        64.61468
490.67        64.75631
491.11        64.46437
491.55        64.25365
491.99         64.1274
492.43        63.98123
492.88        63.84703
493.32        63.88078
493.76        64.02962
494.20        64.08681
494.64        64.01096
495.08        63.98263
495.52        64.04329
495.96        63.84378
496.41        63.48489
496.85        63.86023
497.29         64.8205
497.73        64.37061
498.17        64.07687
498.61        63.88297
499.05        64.24337
499.49        64.17296
499.93        63.72073
500.37          63.681
500.82        63.98157
501.26        63.87667
501.70        63.38497
502.14        63.51023
502.58        63.50793
503.02        63.58042
503.46        63.49597
503.90        63.47699
504.34         63.5034
504.78        63.47185
505.22        63.38752
505.66         63.2556
506.10        63.08705
506.54        63.04163
506.98        63.15704
507.42        63.13816
507.86        62.87663
508.30        63.56892
508.74        62.97752
509.18        62.91728
509.62        62.78522
510.06          62.736
510.50         62.7749
510.94        62.88865
511.38        63.03406
511.82        63.07932
512.26        63.00314
512.70         62.8495
513.14         62.6669
513.58        62.53067
514.02        62.46234
514.46        62.43065
514.90         62.4311
515.34         62.4566
515.78        62.49938
516.22        62.57479
516.66        62.63923
517.10        62.61937
517.54        62.51036
517.98        62.32962
518.42        62.16973
518.86        62.18219
519.30        62.38872
519.74         62.7351
520.18        63.09856
520.62        63.27801
521.06        63.22152
521.50        62.99185
521.93        62.68282
522.37        62.46137
522.81        62.37137
523.25        62.36537
523.69        62.40202
524.13        62.41435
524.57        62.38442
525.01        62.34948
525.45         62.3184
525.89        62.29789
526.32        62.28833
526.76        62.28188
527.20        62.29882
527.64        62.38275
528.08        62.53251
528.52        62.73362
528.96        62.91644
529.40        62.97194
529.83        62.87087
530.27        62.65775
530.71        62.41778
531.15         62.2934
531.59        62.31593
532.03        62.45084
532.46        62.60305
532.90        62.61932
533.34         62.4771
533.78        62.24447
534.22        62.02046
534.66        61.94777
535.09        62.03879
535.53        62.23571
535.97        62.47307
536.41        62.60348
536.85        62.57723
537.28        62.60702
537.72        62.64697
538.16        62.23573
538.60        61.59025
539.04        61.58118
539.47        62.10907
539.91        62.31622
540.35        62.15535
540.79        62.13871
541.22        62.25742
541.66        62.30513
542.10        62.28217
542.54        62.15092
542.97        61.97915
543.41        62.11596
543.85        62.46449
544.29        62.52467
544.72        62.29064
545.16        62.18877
545.60        62.21905
546.04        62.15328
546.47         62.0022
546.91        61.92619
547.35        61.93998
547.79        61.95596
548.22        61.97787
548.66         62.1547
549.10        62.41672
549.53         62.5617
549.97        62.55067
550.41        62.51263
550.84        62.44579
551.28        62.25516
551.72        61.99121
552.15        61.81528
552.59        61.76719
553.03        61.71633
553.46        61.65124
553.90        61.69307
554.34        61.80531
554.77        61.87162
555.21        61.89743
555.65        61.98108
556.08        62.10094
556.52        62.17274
556.96        62.18897
557.39        62.22272
557.83        62.29327
558.27        62.30891
558.70        62.26342
559.14        62.26947
559.57        62.27478
560.01        62.11872
560.45        61.87466
560.88        61.76699
561.32        61.82809
561.75        62.00578
562.19        62.25591
562.63        62.14915
563.06        61.79021
563.50        62.09206
563.93        62.86077
564.37          62.763
564.80        61.95995
565.24        61.92475
565.68        62.54843
566.11        62.73049
566.55        62.46659
566.98        62.23864
567.42        62.12096
567.85        62.32476
568.29        62.37364
568.72        62.30769
569.16        62.15708
569.60          62.208
570.03        62.40337
570.47        62.86362
570.90        63.49018
571.34        62.91882
571.77        63.45874
572.21        63.23148
572.64        63.12471
573.08         63.0523
573.51        63.14207
573.95        63.10423
574.38        63.14429
574.82        62.82891
575.25        64.06969
575.69        64.22792
576.12        63.62408
576.56        62.83202
576.99        63.06041
577.42        64.21894
577.86         63.1335
578.29         63.7575
578.73        63.83181
579.16        63.96103
579.60        63.72565
580.03         63.5304
580.47         63.3169
580.90        63.66966
581.33        62.89777
581.77        63.18709
582.20        64.98235
582.64        64.52257
583.07         64.6926
583.51        63.89328
583.94        63.27734
584.37        62.94184
584.81        63.12903
585.24        63.21398
585.68        64.11799
586.11         63.4553
586.54        63.59702
586.98        62.88725
587.41         62.7441
587.85        63.45216
588.28         63.7136
588.71        63.25238
589.15        62.94231
589.58         63.3174
590.01         62.4539
590.45        62.31872
590.88        62.84695
591.31         63.1877
591.75        63.34381
592.18        63.12216
592.61        62.73058
593.05        62.67068
593.48        63.65677
593.91        63.41814
594.35        63.68027
594.78        63.11272
595.21        63.11915
595.65         63.1147
596.08        62.93686
596.51         63.0629
596.94        63.04956
597.38        62.97871
597.81        62.72633
598.24        63.14231
598.68        63.16629
599.11        62.45971
599.54        63.98684
599.97        63.19854
600.41        63.29892
600.84        63.05247
601.27        63.11798
601.70        63.06356
602.14        62.88951
602.57        62.90779
603.00        63.01778
603.43        63.24887
603.87         62.9313
604.30        62.91423
604.73        63.06955
605.16        62.68972
605.60        62.23067
606.03        62.34324
606.46         63.1217
606.89        62.38284
607.32        62.69641
607.76        62.50916
608.19         62.6274
608.62        62.72682
609.05         62.7442
609.48        62.66033
609.92        62.70333
610.35        62.29996
610.78         63.4687
611.21        64.10827
611.64        63.45958
612.07        63.23882
612.50        63.14829
612.94         62.9896
613.37        62.81107
613.80        62.73701
614.23        62.77548
614.66         62.8619
615.09        62.98999
615.52        63.11606
615.96        63.17442
616.39        63.28461
616.82        63.23571
617.25        62.83026
617.68         63.0569
618.11        62.59541
618.54        61.95749
618.97        61.76003
619.40        62.02699
619.84        62.25997
620.27        62.37625
620.70        62.64046
621.13        62.98822
621.56        62.66989
621.99        62.34441
622.42        62.37991
622.85        62.55693
623.28        62.57295
623.71        62.59775
624.14        62.53352
624.57        61.77324
625.00        61.79058
625.43         61.9315
625.86        62.06208
626.29        61.88414
626.72        62.64186
627.15        62.30424
627.58        62.37763
628.01        62.22367
628.44         62.3189
628.87           62.33
629.30        61.81206
629.73        61.68161
630.16        62.01595
630.59        61.61114
631.02         61.6927
631.45        61.82724
631.88        61.89517
632.31         61.8279
632.74        62.24466
633.17        62.09779
633.60        62.13138
634.03        62.03556
634.46        61.85841
634.89        61.64689
635.32        61.50177
635.75        61.45827
636.18        61.47813
636.61        61.53382
637.04         61.5802
637.47        61.60267
637.89        61.60514
638.32         61.5589
638.75        61.51547
639.18        61.49466
639.61        61.24007
640.04        61.23791
640.47         61.1633
640.90        61.16496
641.33        61.21773
641.76        61.31694
642.18        61.45205
642.61        61.58232
643.04        61.71576
643.47        61.82267
643.90        61.85675
644.33        61.80947
644.76        61.70571
645.18        61.59144
645.61         61.4609
646.04         61.3281
646.47        61.33562
646.90        61.53298
647.33        61.26226
647.75        61.67328
648.18        61.80625
648.61        61.98932
649.04        62.16047
649.47        62.31569
649.89        62.47669
650.32        62.54757
650.75        62.47797
651.18        62.30067
651.61        61.93399
652.03        61.53332
652.46        61.69028
652.89        62.22007
653.32        62.11153
653.74        61.66958
654.17        61.35897
654.60        61.63472
655.03        62.54076
655.46         61.8684
655.88        61.44832
656.31         65.1959
656.74        71.67113
657.16         67.8507
657.59        63.73239
658.02        63.72073
658.45        63.69474
658.87        63.62646
659.30        62.19527
659.73        62.06841
660.15        62.41165
660.58        61.73534
661.01         61.7855
661.44         61.7843
661.86        61.59679
662.29        61.22957
662.72        61.22926
663.14        61.56428
663.57        61.46907
664.00        61.06301
664.42        61.13887
664.85        61.66214
665.27        61.94516
665.70        61.91328
666.13        61.92704
666.55        61.97886
666.98        61.84429
667.41        61.60417
667.83         61.4848
668.26        61.51677
668.69        61.66256
669.11        61.82294
669.54        61.81676
669.96        61.61136
670.39        61.30371
670.82        61.05251
671.24        60.97945
671.67        61.15448
672.09        61.75568
672.52        62.57115
672.94        62.65092
673.37         62.6412
673.80        62.14791
674.22        61.61238
674.65        61.33588
675.07        61.42334
675.50        61.74734
675.92        62.16715
676.35        62.43215
676.77        62.47471
677.20        62.37637
677.62        62.21536
678.05        62.11552
678.47        62.11376
678.90        62.16618
679.32        62.23891
679.75        62.34071
680.17        62.46169
680.60        62.52269
681.02        62.50602
681.45        62.75802
681.87         62.6193
682.30        62.65227
682.72        62.65007
683.15        62.51233
683.57        62.29499
684.00        62.21889
684.42        62.28672
684.85        62.32293
685.27        62.31657
685.70        62.30634
686.12        62.29273
686.54        62.44429
686.97        62.66151
687.39        62.58023
687.82        62.21715
688.24        61.97805
688.66        61.89733
689.09        61.73883
689.51         61.5432
689.94        61.53747
690.36        61.75436
690.78        62.00748
691.21        62.15084
691.63        62.79349
692.06        62.33079
692.48        62.57369
692.90        62.97123
693.33        63.09388
693.75        62.93018
694.17         62.6474
694.60        62.35891
695.02        62.64506
695.44        62.64828
695.87        63.05873
696.29        63.46156
696.71         63.5645
697.14        63.31581
697.56        62.84055
697.98        62.34529
698.41        62.07968
698.83        62.07748
699.25        62.29937
699.68        62.60001
700.10        62.80124
700.52        62.81599
700.94        62.70553
701.37        62.54473
701.79         62.4761
702.21         62.5223
702.64        62.63415
703.06        62.74744
703.48         62.7703
703.90        62.69014
704.33        62.55484
704.75        62.41967
705.17        62.35382
705.59        62.37893
706.01        62.45697
706.44        62.59005
706.86        62.79585
707.28        63.03459
707.70        63.33693
708.12        63.61231
708.55        63.61814
708.97        63.37601
709.39        63.15439
709.81        63.02426
710.23        62.92136
710.66        62.88314
711.08        63.01169
711.50        63.24445
711.92        63.43734
712.34        63.55658
712.76        63.63606
713.19        63.67214
713.61        63.71605
714.03        63.74992
714.45        63.75154
714.87        63.71443
715.29        63.63654
715.71         63.5177
716.13        63.36798
716.56        63.18282
716.98        63.01843
717.40        62.87505
717.82        62.76184
718.24        62.68855
718.66        62.66642
719.08        62.69131
719.50        62.74652
719.92        62.83513
720.34        62.96117
720.76        63.11882
721.19        63.29622
721.61        63.44289
722.03        63.47785
722.45        63.41775
722.87        63.13877
723.29        62.75201
723.71        62.86179
724.13        63.51349
724.55        63.16477
724.97         63.6954
725.39        63.69661
725.81        63.72757
726.23        63.58979
726.65        63.39746
727.07        63.38406
727.49        63.56864
727.91        63.89631
728.33        64.25911
728.75        64.47794
729.17        64.50018
729.59        64.38406
730.01        64.21939
730.43        64.14607
730.85        64.20267
731.27           64.34
731.69        64.49768
732.10        64.59052
732.52        64.58872
732.94        64.52322
733.36         64.4245
733.78        64.33401
734.20        64.27898
734.62        64.27015
735.04        64.28522
735.46        64.27662
735.88        64.23406
736.30        64.17976
736.72          64.176
737.13        64.25462
737.55        64.34851
737.97        64.65984
738.39        65.04602
738.81        64.69209
739.23        63.85897
739.65        64.05766
740.06        65.06027
740.48        65.29716
740.90         64.6898
741.32        64.06862
741.74        63.75566
742.16        63.57103
742.57        63.62931
742.99        63.92265
743.41        64.34673
743.83        64.71086
744.25        64.94357
744.67        65.07563
745.08        65.12995
745.50        65.10962
745.92        65.05062
746.34        64.94447
746.75        64.80643
747.17        64.68827
747.59        64.59834
748.01         64.5134
748.42        64.46935
748.84        64.50871
749.26        64.58674
749.68        64.73658
750.09        64.90076
750.51        64.69595
750.93        64.32202
751.35        64.68584
751.76        65.61779
752.18        65.92659
752.60        65.52721
753.01        65.06801
753.43        64.73725
753.85        64.58469
754.27        64.66812
754.68        64.94586
755.10        65.29317
755.52        65.50917
755.93        65.56331
756.35        65.55525
756.77        65.47933
757.18        65.43597
757.60          65.494
758.02        65.24693
758.43        64.89145
758.85        65.61458
759.26        67.19434
759.68        67.32876
760.10         66.7833
760.51        66.27927
760.93        66.30267
761.34        65.92075
761.76        66.29566
762.18        66.07175
762.59        65.66029
763.01        65.56552
763.42        65.82789
763.84        65.84055
764.26         65.6208
764.67        65.48133
765.09        65.47446
765.50        65.50459
765.92        65.54282
766.33        65.35274
766.75        64.99424
767.16        65.01694
767.58        65.42027
768.00         65.8785
768.41        66.28732
768.83        66.70118
769.24        66.96954
769.66        66.67408
770.07         65.9715
770.49        65.54103
770.90        65.45919
771.32        65.49236
771.73        65.62474
772.15        65.84075
772.56        66.13421
772.97        66.52097
773.39        66.89381
773.80        67.08895
774.22        67.03146
774.63        66.79837
775.05        66.47198
775.46        66.24981
775.88        66.17216
776.29        66.21098
776.70         66.3181
777.12        66.41479
777.53         66.4896
777.95        66.55549
778.36        66.61164
778.77        66.61497
779.19        66.57585
779.60        66.51176
780.02        66.45974
780.43        66.51145
780.84        66.68587
781.26        66.85879
781.67        67.05734
782.09        67.39027
782.50        67.76721
782.91        67.90136
783.33        67.74045
783.74         67.5363
784.15        67.28296
784.57        66.84183
784.98        66.37033
785.39        66.20343
785.81        66.39586
786.22        66.85411
786.63        67.38221
787.04        67.65471
787.46        67.61131
787.87        67.32227
788.28        66.97878
788.70        66.85785
789.11        66.99992
789.52         67.3269
789.93        67.70233
790.35        67.88295
790.76        67.84717
791.17        67.71028
791.58        67.55346
792.00        67.49696
792.41        67.61086
792.82        67.71062
793.23        67.82446
793.65         68.2953
794.06         68.9712
794.47        69.11546
794.88        68.73071
795.29        68.46409
795.71        68.30379
796.12        67.86447
796.53        67.28785
796.94        67.16687
797.35        67.53772
797.76        68.01336
798.18        68.39898
798.59        68.66998
799.00        68.72345
799.41        68.49281
799.82        68.12614
800.23         67.9397
800.64        68.00185
801.06        68.18291
801.47        68.44507
801.88         68.6041
802.29         68.6014
802.70          68.505
803.11        68.36333
803.52         68.2383
803.93        68.15488
804.34        68.08847
804.75        68.05099
805.17        68.03172
805.58        68.04333
805.99        68.15974
806.40        68.33755
806.81        68.26643
807.22        68.03273
807.63         68.1647
808.04         68.5864
808.45         68.6837
808.86        68.39871
809.27        68.07013
809.68        67.82211
810.09        67.71448
810.50        67.79519
810.91         68.0545
811.32        68.36866
811.73         68.5267
812.14        68.47161
812.55        68.25445
812.96        67.99306
813.37        67.90036
813.78        68.03335
814.19        68.31541
814.60        68.62916
815.01        68.80899
815.42        68.81327
815.83        68.68897
816.24        68.51202
816.65        68.42397
817.05        68.47842
817.46        68.59869
817.87        68.73857
818.28        68.78056
818.69        68.69948
819.10        68.53455
819.51        68.35996
819.92        68.30573
820.33        68.40252
820.74        68.59159
821.14        68.79333
821.55        68.91095
821.96         68.9072
822.37        68.83267
822.78        68.70334
823.19        68.54592
823.60        68.39489
824.00        68.26134
824.41        68.18862
824.82        68.32642
825.23        68.68434
825.64        69.20865
826.04        69.79227
826.45        70.15323
826.86        70.23978
827.27        70.11765
827.68        69.84437
828.08        69.54886
828.49        69.25742
828.90        68.97255
829.31        68.77197
829.72        68.77862
830.12        69.03642
830.53        69.46096
830.94        69.95099
831.35         70.2655
831.75        70.33659
832.16        70.16592
832.57        69.85341
832.97        69.54514
833.38        69.30259
833.79        69.09528
834.20        68.91631
834.60        68.74503
835.01        68.59631
835.42        68.49811
835.82        68.47594
836.23        68.51084
836.64        68.61523
837.04        68.80289
837.45        69.01553
837.86        69.28103
838.26        69.59215
838.67        69.87944
839.08        70.10083
839.48        70.17731
839.89        70.08849
840.29         69.8345
840.70        69.49902
841.11        69.14723
841.51        68.83578
841.92        68.58193
842.33        68.36259
842.73        68.13922
843.14        67.88165
843.54        67.62628
843.95        67.53391
844.35        67.89003
844.76        68.67437
845.17        69.79872
845.57        70.94268
845.98        71.41219
846.38        71.08727
846.79          70.174
847.19        69.03675
847.60        68.27341
848.00        68.04351
848.41        68.15747
848.81        68.53735
849.22        68.94289
849.62        69.31382
850.03        69.66576
850.43        69.94129
850.84        69.90858
851.24        69.58642
851.65        69.00755
852.05        68.34761
852.46        67.91201
852.86        67.76225
853.27         67.8363
853.67        68.03945
854.07        68.41662
854.48        68.88287
854.88        69.51835
855.29        70.01318
855.69        69.99957
856.10         69.2979
856.50        68.11183
856.90        66.86313
857.31        66.21572
857.71        66.34779
858.12        67.04197
858.52        68.05568
858.92        68.72869
859.33        68.81517
859.73        68.54275
860.13        68.07219
860.54        67.69227
860.94        67.54318
861.34        67.49241
861.75        67.49877
862.15         67.6131
862.55        67.76992
862.96        67.98487
863.36        68.17337
863.76        68.18941
864.17        67.99731
864.57        67.67078
864.97        67.25167
865.38        66.80019
865.78        66.39828
866.18         66.0096
866.58        65.73856
866.99        65.75759
867.39        66.09701
867.79        66.67336
868.19        67.27078
868.60        67.53088
869.00        67.38425
869.40        66.93941
869.80        66.36063
870.21        65.95763
870.61        65.87136
871.01        65.98214
871.41        66.23506
871.81        66.54858
872.22         66.8599
872.62        67.24979
873.02        67.65971
873.42        67.95464
873.82        68.09284
874.22        68.09057
874.63        68.05979
875.03        68.15834
875.43        68.42525
875.83        68.78581
876.23         69.1567
876.63        69.38763
877.03        69.43763
877.44        69.39748
877.84        69.22756
878.24        68.89075
878.64         68.4134
879.04        67.78168
879.44        67.22739
879.84        67.08576
880.24        67.37737
880.64        68.03113
881.04        68.63188
881.44        68.44501
881.84        67.35989
882.24        65.68755
882.65        64.06413
883.05        63.28907
883.45        63.56687
883.85        64.66346
884.25         66.1638
884.65        67.29211
885.05        67.74524
885.45        67.70521
885.85        67.45712
886.25        67.45648
886.65        67.81228
887.05        68.34383
887.45        68.80827
887.85        68.84169
888.25        68.37326
888.65        67.58546
889.04         66.7359
889.44        66.22092
889.84        66.13585
890.24        66.38608
890.64        66.82271
891.04        67.19603
891.44        67.41875
891.84        67.55312
892.24        67.69887
892.64        68.00674
893.04         68.5118
893.44         69.1607
893.83        69.82655
894.23        70.22851
894.63        70.31915
895.03         70.1203
895.43        69.85194
895.83        69.86626
896.23        70.22208
896.63        70.83476
897.02        71.34138
897.42        71.15302
897.82         70.2085
898.22        68.74745
898.62        67.30073
899.01         66.5956
899.41         66.7894
899.81        67.68746
900.21        68.84688
900.61        69.42197
901.00        69.13776
901.40        68.31057
901.80        67.42838
902.20        67.17371
902.59         67.7112
902.99        68.79854
903.39        70.06845
903.79        70.74031
904.18        70.54298
904.58        69.76704
904.98        68.89106
905.38        68.56487
905.77        68.90237
906.17        69.70294
906.57        70.62658
906.96        71.15835
907.36        71.08421
907.76        70.57352
908.15        69.88937
908.55        69.38989
908.95        69.23262
909.34        69.30423
909.74        69.41988
910.14         69.2564
910.53        68.76883
910.93        68.12063
911.33        67.56461
911.72        67.50715
912.12         68.0136
912.52         68.8962
912.91        69.91608
913.31         70.6801
913.70         71.0787
914.10        71.16998
914.49        71.00826
914.89        70.62233
915.29        70.10995
915.68        69.48249
916.08        68.90494
916.47        68.58438
916.87        68.59383
917.26        68.83618
917.66        69.23958
918.05         69.6681
918.45        70.02278
918.84        70.37165
919.24        70.52415
919.64        70.29099
920.03        69.67086
920.42        68.73918
920.82        67.82505
921.21        67.25647
921.61        67.11076
922.00        67.35236
922.40        67.77847
922.79        68.12679
923.19        68.25296
923.58        68.22319
923.98        68.20954
924.37          68.445
924.77        68.97574
925.16        69.74234
925.55        70.48379
925.95        70.73959
926.34        70.43965
926.74        69.70528
927.13        68.88094
927.52        68.48659
927.92        68.62624
928.31        69.12124
928.70         69.7016
929.10        69.89167
929.49        69.59309
929.89        69.00903
930.28        68.32452
930.67        67.78735
931.07        67.49499
931.46        67.35931
931.85        67.49076
932.24        68.09884
932.64        69.13745
933.03        70.61082
933.42        72.06077
933.82        72.72382
934.21        72.45533
934.60         71.4444
934.99        70.25313
935.39        69.74187
935.78        70.09538
936.17        71.03332
936.56        72.13956
936.96        72.70319
937.35        72.54735
937.74        71.91059
938.13        70.95774
938.53         69.9319
938.92        68.97931
939.31        68.11118
939.70        67.51321
940.09        67.48728
940.49        68.00208
940.88        68.95908
941.27          70.167
941.66        71.25658
942.05        72.01656
942.44         72.5346
942.84        72.51107
943.23        71.50932
943.62        69.66302
944.01         67.2689
944.40        65.14716
944.79        64.33305
945.18        64.94489
945.57        66.74303
945.97        69.00352
946.36        70.48857
946.75        70.56479
947.14        69.60598
947.53        68.26048
947.92        67.59936
948.31        67.91601
948.70        68.79754
949.09        69.95287
949.48        70.92135
949.87        71.49117
950.26        71.87535
950.65        71.93966
951.04        71.43338
951.43        70.40833
951.82        68.93993
952.21        67.51927
952.60         66.9103
952.99        67.24542
953.38        68.33244
953.77        69.63496
954.16        70.19672
954.55        69.74108
954.94        68.53023
955.33        67.06425
955.72        66.17712
956.11        66.10968
956.50        66.61565
956.89        67.32653
957.28        67.63872
957.66        67.40587
958.05        66.85489
958.44        66.28447
958.83        66.14154
959.22        66.53689
959.61         67.2588
960.00        68.13528
960.39        68.88564
960.78        69.36481
961.16        69.66442
961.55        69.69335
961.94        69.29428
962.33        68.51222
962.72        67.40768
963.11        66.33617
963.49        65.91344
963.88        66.22746
964.27        67.13048
964.66        68.24723
965.04        68.93967
965.43        68.95174
965.82        68.49378
966.21        67.78869
966.60        67.21702
966.98        66.94922
967.37        66.86716
967.76        66.93023
968.15        67.06659
968.53        67.25254
968.92         67.4658
969.31         67.7748
969.69        68.25489
970.08        68.84225
970.47        69.47981
970.86        69.94812
971.24        69.91658
971.63         69.3539
972.02        68.45651
972.40        67.52676
972.79        67.04211
973.17        67.23476
973.56        67.86375
973.95        68.93532
974.33        70.48428
974.72        72.34201
975.11        74.52975
975.49         76.6269
975.88        77.58738
976.26         77.1302
976.65        75.51568
977.04        73.34324
977.42        71.44064
977.81        70.08736
978.19        69.01749
978.58        68.33412
978.96         67.9807
979.35        67.91027
979.74         68.1557
980.12        68.43998
980.51        68.13501
980.89        67.20542
981.28        65.78989
981.66        64.36507
982.05        63.71807
982.43        64.10342
982.82        65.24564
983.20        66.86131
983.59        68.53893
983.97        70.16752
984.35        71.80402
984.74        73.09053
985.12        73.75722
985.51        73.58837
985.89        72.72438
986.28        71.53954
986.66        70.31496
987.04        69.26952
987.43        68.23485
987.81         67.4641
988.20        67.28499
988.58        67.84494
988.96        69.08917
989.35        70.33997
989.73        70.62086
990.12        69.71996
990.50        67.89555
990.88        66.02155
991.27        65.39606
991.65        66.30942
992.03        68.53352
992.42        71.03817
992.80        72.02982
993.18        70.70329
993.56        67.87449
993.95        65.04726
994.33        63.62165
994.71        63.96526
995.10        65.57117
995.48        67.87687
995.86        69.20287
996.24        68.85369
996.63        67.44573
997.01        65.86713
997.39         65.2809
997.77        65.94407
998.15        67.39385
998.54        69.23934
998.92        70.83186
999.30         71.8359
999.68        72.50423
1000.06        72.63468
1000.45        71.87563
1000.83        70.48637
1001.21        68.54482
1001.59        66.79853
1001.97        66.26899
1002.35         67.1065
1002.73        69.10651
1003.12        71.62423
1003.50        73.47245
1003.88        74.15175
1004.26         74.0034
1004.64        73.49824
1005.02        73.48254
1005.40         74.1256
1005.78        74.90517
1006.16        75.67996
1006.54        76.27589
1006.92        76.52782
1007.30        76.67697
1007.69        75.94077
1008.07        73.11505
1008.45        68.55218
1008.83        63.24802
1009.21        58.95987
1009.59        57.43329
1009.97        58.71533
1010.35        62.46985
1010.73        67.59048
1011.11        71.15778
1011.49        71.68246
1011.86        69.58044
1012.24        66.68019
1012.62        65.95195
1013.00        68.31762
1013.38        73.32658
1013.76        79.25415
1014.14        81.47467
1014.52         78.6129
1014.90        73.24523
1015.28        68.32056
1015.66        66.32325
1016.04        67.38519
1016.41        70.98766
1016.79        76.21835
1017.17        81.13148
1017.55        83.97105
1017.93        84.94312
1018.31          83.615
1018.69        80.03843
1019.06        75.18127
1019.44        70.13716
1019.82        65.94207
1020.20        63.20877
1020.58        61.66021
1020.95        61.15719
1021.33        61.40315
1021.71        61.80152
1022.09        62.05886
1022.46        61.99379
1022.84        62.32646
1023.22        63.99091
1023.60        67.33628
1023.97         72.8381
1024.35        78.67295
1024.73        79.31187
