SpectraSmart Spectrum 2.9.0.0
--------- Device Information -----------
Spectrum Name :  反射率_0
Saving Time :  2024/05/03 20:18:30
Spectro-Module Model Name : SE2030-DUVN
Spectro-Module Serial Number : OS361AC55029948
Wavelength Start : 200
Wavelength End : 1025
Wavelength Unit : Wavelength(nm)
Spectrum Unit : Reflectance(%)
-----------Spectrum Setting ------------
Integration Time : 20ms
Average : 10
Boxcar : 0
Background removal :  enabled
linearity correction :  enabled
SC :  disabled
Intensity correction :  disabled
DWT denoise :  enabled
savitzky-golay :  disabled
FFT :  disabled
Running average :  disabled
Kalman :  disabled
High pass :  disabled
---------------BEGIN--------------------
Wavelength(nm)             Reflectance(%)
200.29               0
200.75        11.48421
201.21        26.15135
201.67       -652.8583
202.13       -7.110131
202.58         9.60392
203.04        20.99621
203.50        30.52559
203.96        39.32153
204.42        51.47008
204.88        87.17336
205.34       -1175.256
205.80       -102.8086
206.26       -143.6553
206.72       -45239.98
207.18        195.6568
207.64        131.7807
208.10        118.1553
208.55        128.9753
209.01        251.9761
209.47        136.6935
209.93        56.78703
210.39         54.7479
210.85        56.65972
211.31        60.68649
211.77        68.07034
212.23        86.60774
212.69        128.7035
213.14        133.7275
213.60        56.16122
214.06        16.60708
214.52        3.923939
214.98        2.257191
215.44        8.564407
215.90        41.84409
216.36       -455.1571
216.81       -111.4329
217.27       -116.8376
217.73       -190.8963
218.19       -645.0664
218.65       -12738.86
219.11       -967.6416
219.57       -279.3967
220.02       -175.6499
220.48       -300.4029
220.94        325.9629
221.40        95.50336
221.86        60.67686
222.32        49.14182
222.77        43.88883
223.23        41.12593
223.69        39.61379
224.15        38.67963
224.61        38.59272
225.06        38.95646
225.52        40.64082
225.98        44.55239
226.44        51.01882
226.90        60.25739
227.36        70.14643
227.81        72.97377
228.27        65.63618
228.73        53.54659
229.19        42.21806
229.65         35.3787
230.10         32.4397
230.56         31.7687
231.02         32.3621
231.48         33.4408
231.93        34.67609
232.39        36.34081
232.85        37.96367
233.31        38.87244
233.77        38.98308
234.22        38.29107
234.68        37.56291
235.14        38.16199
235.60         40.4426
236.05        44.30036
236.51        48.36493
236.97        49.84138
237.43        47.94731
237.88        43.87473
238.34        39.83502
238.80        38.32166
239.26        40.19029
239.71        48.37555
240.17        61.63329
240.63        78.57488
241.08        88.19451
241.54        84.95692
242.00        76.83126
242.46        76.80546
242.91        89.22198
243.37         117.087
243.83         166.148
244.28        213.0278
244.74        203.0238
245.20         143.099
245.66        78.37341
246.11        43.92847
246.57        36.88578
247.03        43.29976
247.48        53.73333
247.94        59.65555
248.40        59.92009
248.85        58.07434
249.31        54.34286
249.77        48.86036
250.22        43.85508
250.68        39.71633
251.14        38.28136
251.59        42.02808
252.05         52.0337
252.51        70.50636
252.96        98.45044
253.42         123.867
253.88        131.4102
254.33        122.7137
254.79        107.1395
255.25        93.30069
255.70        83.67931
256.16        77.56055
256.62        74.10356
257.07        72.86223
257.53         73.3243
257.99        74.37379
258.44        74.86024
258.90        74.16346
259.35        71.97744
259.81        69.45314
260.27        66.78387
260.72        64.22492
261.18        62.27422
261.63        60.53483
262.09        59.23597
262.55        58.17189
263.00        57.16502
263.46        56.27722
263.91        55.39489
264.37        54.69879
264.83        54.10508
265.28        53.52671
265.74        52.86158
266.19        51.70376
266.65        50.17122
267.11        48.34817
267.56        46.51966
268.02        45.17078
268.47        44.31994
268.93         43.8575
269.38        43.51101
269.84        42.83704
270.30        41.78145
270.75        40.50692
271.21        39.35738
271.66        38.70951
272.12        38.60788
272.57        38.83171
273.03        39.08436
273.48        38.92946
273.94        38.27569
274.39        37.29554
274.85        36.16386
275.31        35.02543
275.76        33.95861
276.22        32.98347
276.67        32.17654
277.13        31.76225
277.58        31.65168
278.04        31.78814
278.49        31.88995
278.95        31.57778
279.40        30.77514
279.86        29.73389
280.31         28.6369
280.77        27.82901
281.22        27.29751
281.68        26.97589
282.13        26.77003
282.59        26.62042
283.04        26.47051
283.50        26.36312
283.95        26.25887
284.41         26.1241
284.86        25.94196
285.32        25.75262
285.77        25.56131
286.22        25.44492
286.68        25.42802
287.13          25.453
287.59        25.54479
288.04        25.68947
288.50        25.88877
288.95        26.11162
289.41        26.30899
289.86        26.35298
290.32        26.25977
290.77        26.07164
291.22        25.90111
291.68        25.89611
292.13        26.09871
292.59        26.51609
293.04        27.11586
293.50        27.84496
293.95         28.6634
294.40        29.57352
294.86         30.6197
295.31        31.87675
295.77        33.35703
296.22          35.016
296.68        36.72292
297.13        38.24772
297.58         39.5065
298.04         40.5837
298.49        41.57875
298.95        42.71957
299.40        44.05592
299.85        45.53764
300.31        47.17384
300.76        48.92942
301.21        50.78794
301.67        52.77659
302.12        54.75908
302.58        56.54956
303.03        58.08249
303.48        59.41481
303.94        60.76473
304.39        62.38649
304.84        64.36848
305.30        66.61304
305.75        68.90058
306.20        70.92599
306.66        72.62433
307.11        74.05733
307.57        75.37037
308.02         76.6517
308.47        77.99614
308.93         79.3609
309.38        80.75697
309.83        82.30369
310.29          83.992
310.74        85.76507
311.19        87.45301
311.65        88.75909
312.10        89.59266
312.55        90.03582
313.00        90.27341
313.46        90.61561
313.91         91.1328
314.36        91.79933
314.82        92.51949
315.27        93.10233
315.72        93.52585
316.18        93.85767
316.63        94.24475
317.08        94.92769
317.53        95.93761
317.99        97.16502
318.44        98.39323
318.89        99.21175
319.35        99.51485
319.80          99.424
320.25         99.1738
320.70        99.16656
321.16        99.49535
321.61          100.06
322.06        100.6874
322.51        101.0928
322.97        101.1869
323.42        101.1099
323.87        100.9486
324.32        100.8458
324.78        100.8531
325.23        100.9605
325.68        101.1716
326.13        101.5173
326.59         101.959
327.04        102.5369
327.49        103.1702
327.94        103.7572
328.39        104.2462
328.85         104.595
329.30        104.8632
329.75        105.0241
330.20         105.093
330.66         105.063
331.11        105.0093
331.56        104.9311
332.01        104.8707
332.46        104.8586
332.92        104.9441
333.37        105.3183
333.82        105.9607
334.27        106.8133
334.72        107.7587
335.17        108.5969
335.63        109.2089
336.08        109.6748
336.53        109.9592
336.98         110.083
337.43        110.0853
337.88        109.9804
338.34        109.8541
338.79        109.8716
339.24        110.0804
339.69         110.481
340.14        111.0285
340.59        111.6247
341.05        112.2224
341.50        112.8317
341.95         113.466
342.40        114.1693
342.85        114.9269
343.30        115.6939
343.75         116.361
344.20         116.771
344.66        116.9227
345.11         116.866
345.56        116.7513
346.01        116.8002
346.46        117.0774
346.91        117.5228
347.36        118.0683
347.81        118.5975
348.26        119.0615
348.72        119.4961
349.17        119.8686
349.62         120.155
350.07        120.3486
350.52        120.4325
350.97         120.441
351.42        120.4481
351.87        120.4601
352.32        120.4474
352.77        120.3629
353.22        120.1287
353.67        119.7421
354.13        119.2838
354.58        118.7516
355.03        118.2093
355.48        117.6996
355.93        117.2321
356.38        116.8639
356.83        116.6807
357.28        116.6752
357.73        116.7878
358.18        116.9304
358.63        116.9626
359.08        116.8238
359.53        116.5371
359.98        116.0722
360.43        115.4027
360.88         114.545
361.33        113.5072
361.78        112.4211
362.23        111.4808
362.68        110.7355
363.13         110.172
363.58        109.6314
364.03        108.8513
364.48        107.7937
364.93        106.5375
365.38        105.3389
365.83        104.5827
366.28        104.3285
366.73        104.4516
367.18        104.6119
367.63        104.2683
368.08        103.3009
368.53        101.8754
368.98        100.3677
369.43        99.34459
369.88        98.93253
370.33        98.97315
370.78        99.11934
371.23        98.79328
371.68        97.85616
372.13        96.50357
372.58        95.11726
373.03        94.26266
373.48        94.05163
373.93         94.2865
374.38        94.60536
374.83        94.42628
375.28        93.60045
375.72        92.30345
376.17        90.92135
376.62        89.86892
377.07        89.24381
377.52        88.90307
377.97          88.654
378.42        88.20726
378.87        87.50365
379.32        86.66837
379.77        85.86504
380.22        85.29608
380.67        84.98859
381.11        84.87859
381.56        84.78922
382.01        84.51284
382.46        84.00407
382.91        83.34402
383.36        82.68113
383.81        82.22072
384.26        81.99782
384.71        81.94427
385.15        81.92045
385.60        81.73862
386.05        81.34318
386.50        80.79384
386.95        80.21884
387.40        79.80836
387.85        79.59809
388.29        79.48879
388.74        79.41972
389.19        79.12484
389.64        78.56849
390.09        77.83905
390.54        77.11236
390.98        76.59173
391.43        76.35636
391.88        76.45024
392.33        76.71465
392.78        76.45731
393.23        75.81721
393.67        75.87642
394.12        76.50304
394.57        76.04719
395.02        75.09303
395.47         74.6305
395.91         74.8466
396.36        74.81384
396.81        74.55437
397.26        74.60583
397.71        74.77881
398.15        74.64007
398.60        74.26642
399.05        73.43233
399.50        72.47884
399.95        72.58373
400.39        73.50277
400.84         73.3652
401.29        72.25675
401.74        71.81288
402.18        72.09254
402.63        72.16589
403.08        72.05042
403.53        71.63315
403.97        71.92017
404.42        71.92381
404.87        71.92726
405.32         71.8721
405.76        71.73859
406.21        71.66128
406.66         71.5707
407.11        71.20856
407.55        70.70937
408.00        70.44527
408.45        70.43998
408.90        70.58344
409.34        70.68428
409.79        70.24921
410.24        69.49209
410.68        69.24011
411.13        69.55116
411.58        69.96362
412.03        70.27142
412.47        70.34616
412.92        70.09147
413.37        69.56374
413.81        68.98239
414.26        68.74567
414.71         68.8856
415.15        69.34142
415.60        69.83417
416.05         69.9584
416.49        69.61009
416.94        68.95153
417.39         68.2712
417.83        67.97577
418.28        68.15659
418.73        68.66313
419.17        69.29608
419.62        69.66874
420.07          69.667
420.51        69.39169
420.96        68.99543
421.41        68.61829
421.85        68.29613
422.30         68.0857
422.74        67.92051
423.19        67.77576
423.64        67.65003
424.08        67.70933
424.53        67.91837
424.98        68.16396
425.42        68.42711
425.87        68.74889
426.31        69.10105
426.76        69.26971
427.21        69.30354
427.65        69.49083
428.10        69.71609
428.54        69.70203
428.99        69.50854
429.44        69.04153
429.88        68.48244
430.33        68.72285
430.77        69.41319
431.22         69.2829
431.66        68.44383
432.11        68.19172
432.56        68.54758
433.00        68.96201
433.45        69.28053
433.89        69.81426
434.34        67.38488
434.78        70.28979
435.23         69.7487
435.67        68.38824
436.12        67.89613
436.57        67.88362
437.01        69.23191
437.46        69.78901
437.90        69.54221
438.35        69.21799
438.79        69.57499
439.24        69.48627
439.68        69.16983
440.13         69.0963
440.57        69.27438
441.02        68.98942
441.46         68.3892
441.91        68.95943
442.35        70.19052
442.80        69.96587
443.24        68.60181
443.69        68.67876
444.13        70.02178
444.58        70.42607
445.02        69.80083
445.47        69.35713
445.91        69.27708
446.36        69.24825
446.80        69.26274
447.24        69.66895
447.69        70.36742
448.13          69.926
448.58        70.17321
449.02        69.99789
449.47        70.00798
449.91        69.97952
450.36        69.96142
450.80        70.03383
451.25        70.14465
451.69         70.1519
452.13        70.04023
452.58        69.86815
453.02        69.66402
453.47        69.49709
453.91        69.37612
454.36        69.28851
454.80        69.23017
455.24        69.16697
455.69        69.10035
456.13         69.0895
456.58        69.16649
457.02        68.88763
457.46        69.03661
457.91        68.77876
458.35        68.39567
458.79        68.34068
459.24        68.54025
459.68        68.36736
460.13        67.89468
460.57        67.63218
461.01        67.64643
461.46        67.45975
461.90        67.15855
462.34        67.31065
462.79         66.9132
463.23        66.79012
463.68        66.67001
464.12        66.66882
464.56         66.7305
465.01        66.81086
465.45        66.87283
465.89        66.78856
466.34        66.56092
466.78        66.66782
467.22        67.25119
467.67        66.12567
468.11        66.82596
468.55        66.67179
468.99        66.68213
469.44        66.59956
469.88        66.44541
470.32        66.26259
470.77        66.05788
471.21        65.93314
471.65        65.88105
472.10        65.87714
472.54         65.8851
472.98        65.82758
473.42        65.68065
473.87        65.62606
474.31        65.58957
474.75        65.18962
475.20        64.57661
475.64        64.53715
476.08        65.05024
476.52        65.09317
476.97        64.52318
477.41        65.24467
477.85        65.01297
478.29        64.88925
478.74        64.85486
479.18        65.42399
479.62        65.16351
480.06          65.172
480.50        64.88868
480.95        64.94744
481.39        65.45662
481.83        64.12445
482.27        64.30281
482.72        65.10725
483.16        64.43978
483.60          64.524
484.04         64.8465
484.48        64.63615
484.93        64.02316
485.37        65.11453
485.81        66.05867
486.25        65.29488
486.69        67.42334
487.14        67.05585
487.58        64.14748
488.02        64.24429
488.46        65.63135
488.90        64.15129
489.34        64.83884
489.79        64.77544
490.23        64.94108
490.67        65.08463
491.11        65.01234
491.55        64.80444
491.99        64.47851
492.43        64.26595
492.88        64.20235
493.32        64.24116
493.76        64.33921
494.20         64.4052
494.64         64.4004
495.08        64.47258
495.52         64.6087
495.96        64.43095
496.41        64.07072
496.85        64.35516
497.29        65.09152
497.73        65.09055
498.17        64.43227
498.61        64.24844
499.05        64.57386
499.49        64.65652
499.93        64.43655
500.37          64.255
500.82        64.18041
501.26        63.80869
501.70        63.98365
502.14        63.97465
502.58        64.00404
503.02        64.04396
503.46        64.08478
503.90        64.11916
504.34        64.12444
504.78        64.09076
505.22        64.01933
505.66        63.90086
506.10        63.73991
506.54        63.68163
506.98        63.76381
507.42        63.71111
507.86        63.42918
508.30        64.09679
508.74        63.53442
509.18        63.50556
509.62        63.41745
510.06        63.41356
510.50        63.49308
510.94         63.6442
511.38        63.81017
511.82        63.84016
512.26         63.7136
512.70        63.47822
513.14        63.20789
513.58        63.03027
514.02        62.97808
514.46        62.95949
514.90        63.03088
515.34        63.07858
515.78        63.10897
516.22        63.14977
516.66        63.16976
517.10        63.11365
517.54        62.98301
517.98        62.78749
518.42        62.62376
518.86        62.65161
519.30        62.89029
519.74        63.28307
520.18        63.68961
520.62        63.87795
521.06        63.79293
521.50         63.5121
521.93        63.14841
522.37        62.89992
522.81        62.81945
523.25        62.84582
523.69        62.93924
524.13        63.03529
524.57        63.10706
525.01        63.18703
525.45        63.24959
525.89        63.24756
526.32        63.17307
526.76        63.03568
527.20        62.90008
527.64         62.8812
528.08        62.99864
528.52        63.22246
528.96         63.4525
529.40        63.52887
529.83        63.40736
530.27        63.14602
530.71        62.85715
531.15        62.72313
531.59        62.78305
532.03         62.9906
532.46        63.21255
532.90        63.23682
533.34        63.03279
533.78        62.69028
534.22        62.36481
534.66        62.28256
535.09        62.46941
535.53        62.83829
535.97        63.26272
536.41        63.50031
536.85        63.47489
537.28        63.41462
537.72        63.32251
538.16        62.85029
538.60        62.22113
539.04        62.20861
539.47        62.70007
539.91        62.87979
540.35        62.69524
540.79        62.63142
541.22        62.68859
541.66        62.69016
542.10        62.64262
542.54        62.50198
542.97        62.32829
543.41        62.45853
543.85         62.7944
544.29        62.84113
544.72        62.60477
545.16        62.52812
545.60        62.60656
546.04        62.60112
546.47        62.50433
546.91        62.42405
547.35         62.3678
547.79        62.33974
548.22        62.34424
548.66        62.37469
549.10        62.44403
549.53        62.69311
549.97        63.03635
550.41        63.20033
550.84        63.14198
551.28        63.00243
551.72        62.82126
552.15        62.61433
552.59        62.44451
553.03        62.28817
553.46        62.16589
553.90        62.18525
554.34        62.31518
554.77        62.46589
555.21        62.60906
555.65        62.73733
556.08        62.81841
556.52         62.8734
556.96        62.89331
557.39        62.82962
557.83        62.75529
558.27        62.78509
558.70        62.88541
559.14        62.98046
559.57        62.98512
560.01        62.76459
560.45        62.42724
560.88        62.30941
561.32        62.43895
561.75        62.61858
562.19        62.80454
562.63        62.71117
563.06        62.40956
563.50        62.63002
563.93        63.21173
564.37        63.01317
564.80        62.21727
565.24        62.21515
565.68        62.85925
566.11        63.03477
566.55         62.7304
566.98        62.38617
567.42        62.14137
567.85        62.43046
568.29         62.7493
568.72        62.84034
569.16        62.65214
569.60        62.84264
570.03        62.88535
570.47        63.11463
570.90        63.40293
571.34        62.83373
571.77        63.76434
572.21         63.2824
572.64        63.33427
573.08        63.09177
573.51        63.43327
573.95        63.33963
574.38        63.23891
574.82        62.50301
575.25         64.1802
575.69        64.07274
576.12        63.25633
576.56        62.78774
576.99        63.22219
577.42        64.29392
577.86        63.46328
578.29        63.80281
578.73        63.83414
579.16        63.91762
579.60        63.74239
580.03        63.61676
580.47        63.48874
580.90        63.58073
581.33        62.88641
581.77        63.49251
582.20        64.70875
582.64        64.47874
583.07        64.30691
583.51        63.55824
583.94        63.12425
584.37        63.11646
584.81         63.3331
585.24        63.36248
585.68        64.15172
586.11        63.32846
586.54        63.81715
586.98        63.17801
587.41        63.00055
587.85        63.69944
588.28        63.61908
588.71        63.24332
589.15        62.83031
589.58        63.54956
590.01        62.73482
590.45        62.58705
590.88        63.06231
591.31        63.38914
591.75        63.60939
592.18        63.28713
592.61        62.73313
593.05        62.56107
593.48        63.92228
593.91        63.76641
594.35        63.73935
594.78        63.05725
595.21        63.36787
595.65        63.18593
596.08        62.77386
596.51        63.53798
596.94        63.10766
597.38        63.12366
597.81        62.82819
598.24        63.40435
598.68        63.10356
599.11        62.61137
599.54        63.66499
599.97        62.95293
600.41        63.21261
600.84        63.15238
601.27        63.47664
601.70        62.72277
602.14        63.12515
602.57        63.12207
603.00        63.24456
603.43        63.43659
603.87        62.90834
604.30        63.13932
604.73         63.1641
605.16        63.23715
605.60        62.60112
606.03        62.62769
606.46        63.01832
606.89        63.13177
607.32        63.24483
607.76        62.59819
608.19        63.14954
608.62        63.19478
609.05        63.23446
609.48        63.07066
609.92        62.92577
610.35        62.68307
610.78        63.93201
611.21        63.97834
611.64        63.83423
612.07        63.53159
612.50        63.36127
612.94        63.09741
613.37        62.78886
613.80        62.93401
614.23        62.78633
614.66         62.8013
615.09        62.80478
615.52        62.95737
615.96        63.17262
616.39        63.60353
616.82         63.3242
617.25        63.34839
617.68        63.56912
618.11        63.00104
618.54        62.01043
618.97        61.91501
619.40        62.71887
619.84        62.90723
620.27        63.03425
620.70         63.1587
621.13        63.47082
621.56        62.89403
621.99        62.43935
622.42        62.43155
622.85        62.79768
623.28        62.82876
623.71        62.32479
624.14        62.59371
624.57        62.06185
625.00        61.90448
625.43        62.23776
625.86        62.39563
626.29         62.4395
626.72        62.92767
627.15        62.77407
627.58        62.85952
628.01        62.83644
628.44        62.66954
628.87         62.4544
629.30        62.24661
629.73           62.31
630.16        62.58486
630.59        62.26332
631.02        62.23945
631.45         62.2746
631.88         62.3277
632.31        62.38501
632.74        62.47269
633.17        62.54632
633.60         62.5251
634.03        62.39781
634.46        62.18822
634.89        61.96017
635.32        61.82013
635.75        61.79517
636.18        61.85394
636.61        61.94798
637.04        62.00213
637.47        61.99706
637.89        61.94324
638.32        61.84143
638.75        61.79313
639.18        61.82621
639.61        61.66441
640.04        61.75786
640.47        61.71679
640.90        61.67833
641.33        61.64182
641.76        61.63416
642.18        61.69659
642.61        61.80743
643.04         61.9584
643.47        62.11544
643.90        62.22486
644.33        62.26629
644.76        62.26226
645.18        62.23584
645.61         62.1424
646.04        61.98854
646.47        61.93052
646.90        62.03456
647.33        61.66672
647.75         61.9969
648.18        62.05759
648.61        62.19077
649.04        62.32058
649.47        62.43562
649.89        62.64335
650.32        62.82334
650.75        62.66591
651.18        62.28492
651.61        62.09478
652.03        62.14883
652.46         62.3923
652.89        62.63373
653.32        62.36477
653.74        61.89081
654.17        61.54156
654.60        61.59891
655.03        62.45131
655.46        62.14024
655.88        61.81468
656.31        64.80053
656.74        70.10302
657.16         66.3576
657.59         62.4653
658.02        63.23283
658.45        63.79187
658.87        63.46163
659.30        62.45566
659.73        61.81151
660.15        62.36157
660.58        61.82277
661.01        61.92079
661.44        61.79716
661.86        61.57288
662.29        61.29923
662.72        61.38285
663.14        61.80041
663.57        61.86534
664.00        61.62413
664.42        61.71902
664.85        62.10134
665.27        62.13831
665.70        61.84462
666.13        61.71152
666.55        61.76641
666.98        61.74846
667.41        61.67245
667.83        61.65288
668.26        61.68971
668.69        61.78247
669.11        61.86339
669.54        61.81961
669.96        61.64999
670.39          61.353
670.82        61.07543
671.24        61.12892
671.67        61.56693
672.09        61.88524
672.52         62.7824
672.94        62.76195
673.37        62.75329
673.80        62.24972
674.22        61.69846
674.65         61.4266
675.07          61.529
675.50        61.88528
675.92        62.34024
676.35        62.60823
676.77        62.60872
677.20        62.46579
677.62        62.28251
678.05        62.12563
678.47        62.01628
678.90         62.2877
679.32        62.22618
679.75        62.37952
680.17        62.53471
680.60        62.63961
681.02        62.64023
681.45        62.85065
681.87         62.6176
682.30        62.46967
682.72        62.28279
683.15        62.18077
683.57         62.1968
684.00        62.30659
684.42        62.44936
684.85        62.52619
685.27        62.50731
685.70        62.35711
686.12        62.13401
686.54        62.16515
686.97        62.39142
687.39        62.35444
687.82          62.027
688.24        61.97105
688.66        62.00646
689.09        61.70746
689.51        61.70626
689.94         61.7157
690.36        61.96152
690.78        62.23545
691.21        62.39111
691.63        63.02456
692.06          62.522
692.48        62.71804
692.90        63.06828
693.33        63.15471
693.75        62.96696
694.17        62.66684
694.60        62.37224
695.02        62.64418
695.44        62.61662
695.87        63.06115
696.29        63.53331
696.71        63.50455
697.14        63.00899
697.56        62.60867
697.98        62.44042
698.41        62.30232
698.83        62.21037
699.25        62.36549
699.68         62.6673
700.10        62.90163
700.52        62.99067
700.94        62.99914
701.37        62.95615
701.79         62.9312
702.21        62.93242
702.64        62.93446
703.06        62.91158
703.48         62.8377
703.90         62.7167
704.33         62.5689
704.75        62.44226
705.17        62.39376
705.59        62.43972
706.01        62.55927
706.44        62.71815
706.86        62.88617
707.28        63.02512
707.70        63.13679
708.12         63.2248
708.55        63.29239
708.97        63.33155
709.39        63.33722
709.81        63.30973
710.23        63.27089
710.66        63.22985
711.08        63.19742
711.50        63.17231
711.92        63.17094
712.34         63.1965
712.76        63.24377
713.19        63.29166
713.61        63.36001
714.03        63.41701
714.45        63.45425
714.87        63.47088
715.29        63.46759
715.71        63.44206
716.13        63.39655
716.56          63.303
716.98        63.18373
717.40         63.0298
717.82        62.85659
718.24        62.70747
718.66        62.64864
719.08        62.68905
719.50        62.80048
719.92        62.94746
720.34        63.06919
720.76        63.14822
721.19        63.19626
721.61        63.21096
722.03        63.18937
722.45        63.16702
722.87        62.99321
723.29        62.73367
723.71        62.92287
724.13        63.58347
724.55        63.18853
724.97        63.64285
725.39        63.57672
725.81        63.56488
726.23        63.40216
726.65        63.18766
727.07        63.13185
727.49        63.25113
727.91        63.49948
728.33        63.80175
728.75        64.03035
729.17        64.14031
729.59        64.17046
730.01        64.15535
730.43        64.14895
730.85        64.16976
731.27        64.19224
731.69        64.21051
732.10        64.22619
732.52        64.23271
732.94        64.23807
733.36        64.22741
733.78        64.16837
734.20        64.06747
734.62        63.95271
735.04        63.85152
735.46        63.80037
735.88        63.79909
736.30        63.83052
736.72        63.91016
737.13        64.00206
737.55        64.04099
737.97        64.27024
738.39        64.59405
738.81        64.30013
739.23        63.62095
739.65        63.88494
740.06        64.85806
740.48        65.10675
740.90        64.54739
741.32        63.97863
741.74         63.6089
742.16        63.42406
742.57         63.5106
742.99        63.84601
743.41        64.31086
743.83        64.69482
744.25        64.92245
744.67        65.02831
745.08        65.05906
745.50        65.05451
745.92        65.05487
746.34        65.03882
746.75         64.9789
747.17        64.85893
747.59        64.67436
748.01         64.4304
748.42        64.21365
748.84         64.1279
749.26        64.15785
749.68        64.36629
750.09        64.64388
750.51        64.45562
750.93         63.9993
751.35        64.30688
751.76        65.23181
752.18        65.54062
752.60         65.1565
753.01        64.76186
753.43        64.51537
753.85        64.40051
754.27        64.46339
754.68        64.67694
755.10        64.95702
755.52        65.17127
755.93        65.30025
756.35        65.41414
756.77        65.45271
757.18        65.44755
757.60        65.45041
758.02        65.05624
758.43        64.52725
758.85        65.21575
759.26        66.83911
759.68        67.06596
760.10        65.92303
760.51        65.58452
760.93        66.17686
761.34        65.76249
761.76        65.78851
762.18        65.51017
762.59        65.43015
763.01        65.55589
763.42        65.84621
763.84        65.86063
764.26        65.61303
764.67        65.23972
765.09        64.93407
765.50        65.08718
765.92        65.56387
766.33        65.47575
766.75        64.87472
767.16        64.81557
767.58        65.30634
768.00        65.77606
768.41        66.10585
768.83        66.27633
769.24        66.25225
769.66        66.10474
770.07        65.86596
770.49        65.52153
770.90        65.16065
771.32         65.1096
771.73        65.35208
772.15        65.51659
772.56        65.59549
772.97        65.77274
773.39        65.99223
773.80        66.19579
774.22        66.22585
774.63        66.21777
775.05        66.13838
775.46        66.04817
775.88         65.9495
776.29        65.85108
776.70        65.76398
777.12        65.71178
777.53        65.72122
777.95        65.77758
778.36        65.86285
778.77        65.90648
779.19        65.90105
779.60        65.87318
780.02        65.86129
780.43        65.93406
780.84        66.10666
781.26        66.31908
781.67        66.57697
782.09         66.8189
782.50        67.02116
782.91          67.206
783.33        67.30916
783.74        67.27982
784.15        67.08299
784.57        66.76208
784.98         66.4332
785.39        66.27724
785.81        66.33846
786.22        66.56783
786.63         66.8507
787.04        66.99227
787.46        66.96446
787.87        66.80251
788.28        66.61762
788.70        66.56464
789.11        66.65757
789.52        66.85014
789.93        67.07898
790.35        67.23267
790.76        67.30744
791.17        67.34784
791.58         67.3639
792.00        67.36858
792.41        67.40321
792.82        67.36965
793.23        67.31245
793.65        67.59015
794.06        68.19693
794.47         68.4634
794.88        68.17658
795.29         68.8446
795.71        67.95635
796.12        67.39683
796.53        66.66146
796.94         66.3642
797.35        66.59848
797.76        67.15672
798.18        67.79704
798.59        68.18195
799.00         68.1665
799.41        67.81652
799.82        67.33298
800.23        67.06899
800.64         67.1142
801.06        67.32567
801.47        67.62796
801.88        67.77791
802.29        67.70376
802.70        67.49619
803.11        67.25119
803.52        67.10327
803.93        67.09025
804.34         67.1627
804.75        67.28553
805.17        67.34739
805.58        67.33364
805.99        67.41553
806.40        67.57666
806.81        67.39222
807.22        67.04157
807.63        67.38304
808.04        68.26641
808.45        68.60937
808.86        68.28538
809.27        67.88524
809.68         67.5742
810.09        67.37286
810.50        67.35013
810.91        67.50395
811.32         67.7125
811.73         67.7689
812.14        67.61942
812.55         67.3252
812.96        67.00047
813.37        66.84618
813.78        66.92236
814.19        67.15865
814.60        67.45434
815.01        67.67104
815.42         67.7692
815.83        67.78156
816.24        67.76502
816.65         67.8207
817.05        67.97783
817.46        68.16462
817.87        68.32851
818.28        68.34945
818.69        68.20829
819.10         67.9427
819.51        67.65865
819.92        67.54626
820.33        67.65246
820.74        67.90642
821.14         68.1861
821.55        68.32318
821.96        68.26548
822.37        68.08662
822.78        67.83723
823.19        67.60809
823.60         67.4548
824.00        67.36372
824.41        67.36203
824.82        67.57266
825.23        67.99082
825.64        68.57379
826.04        69.19667
826.45        69.54478
826.86        69.56853
827.27        69.34896
827.68         68.9846
828.08        68.67749
828.49         68.4661
828.90        68.31419
829.31        68.27898
829.72        68.44734
830.12        68.84225
830.53        69.40163
830.94        69.95353
831.35        70.13922
831.75        69.88468
832.16         69.2259
832.57         68.4498
832.97        68.00333
833.38         67.9996
833.79        68.31384
834.20        68.71377
834.60        68.81762
835.01         68.5637
835.42        68.10252
835.82        67.63392
836.23        67.42765
836.64        67.57967
837.04        67.99519
837.45        68.54094
837.86        69.11349
838.26         69.6304
838.67        70.06538
839.08        70.31643
839.48        70.20245
839.89        69.72103
840.29        68.92616
840.70        68.04991
841.11        67.39072
841.51        67.06126
841.92        67.01326
842.33        67.14962
842.73         67.2877
843.14        67.32228
843.54         67.3133
843.95        67.38174
844.35        67.75907
844.76        68.42513
845.17        69.29521
845.57        70.12446
845.98        70.37228
846.38        69.97682
846.79        69.12178
847.19        68.12065
847.60         67.4825
848.00        67.33022
848.41         67.4819
848.81         67.8813
849.22        68.32149
849.62        68.74895
850.03        69.18065
850.43        69.48306
850.84        69.30453
851.24        68.65929
851.65        67.62595
852.05        66.57774
852.46        66.13824
852.86        66.40242
853.27         67.1627
853.67        68.07049
854.07        68.84071
854.48        69.32839
854.88        69.70466
855.29        69.78421
855.69        69.46452
856.10        68.67995
856.50        67.55618
856.90        66.43797
857.31         65.8684
857.71        65.99066
858.12        66.64825
858.52        67.61864
858.92         68.2634
859.33        68.34754
859.73        68.06542
860.13        67.59945
860.54         67.2867
860.94        67.26425
861.34        67.38839
861.75        67.53304
862.15        67.60458
862.55        67.51701
862.96        67.34192
863.36        67.12298
863.76          66.919
864.17        66.75307
864.57        66.64569
864.97        66.54255
865.38        66.34933
865.78        66.08877
866.18        65.74393
866.58        65.46824
866.99        65.52086
867.39        65.94675
867.79        66.63133
868.19        67.25852
868.60        67.32155
869.00         66.7412
869.40         65.6903
869.80        64.51255
870.21        63.82023
870.61        63.82709
871.01        64.31171
871.41        65.03334
871.81        65.63496
872.22        65.98241
872.62         66.2333
873.02        66.41016
873.42        66.53614
873.82        66.63778
874.22        66.67558
874.63        66.73492
875.03        66.94746
875.43        67.33071
875.83        67.81678
876.23        68.31325
876.63        68.63919
877.03        68.74721
877.44        68.74814
877.84        68.57369
878.24         68.1494
878.64        67.51491
879.04        66.66885
879.44        65.95988
879.84        65.89439
880.24        66.50641
880.64        67.67413
881.04        68.80588
881.44        68.83635
881.84        67.57767
882.24        65.46742
882.65        63.33509
883.05        62.26223
883.45        62.51389
883.85        63.74525
884.25        65.48952
884.65        66.87112
885.05        67.52169
885.45        67.67276
885.85        67.49652
886.25        67.26923
886.65         67.1008
887.05        66.85809
887.45        66.55887
887.85        66.28701
888.25        66.06521
888.65        65.93491
889.04        65.84724
889.44        65.71802
889.84        65.52542
890.24        65.31676
890.64        65.15524
891.04        65.14924
891.44        65.31956
891.84         65.6067
892.24         65.9782
892.64        66.38853
893.04        66.81313
893.44        67.27309
893.83        67.71177
894.23        67.95286
894.63        67.98935
895.03        67.81393
895.43        67.60372
895.83        67.64705
896.23        67.99654
896.63        68.60251
897.02        69.15794
897.42        69.15759
897.82        68.53522
898.22        67.45781
898.62        66.39883
899.01        66.02307
899.41        66.46317
899.81        67.54967
900.21        68.78138
900.61        69.20891
901.00        68.58178
901.40        67.29799
901.80        66.00102
902.20        65.57333
902.59        66.20558
902.99        67.58488
903.39        69.28402
903.79        70.36812
904.18        70.45998
904.58        69.88257
904.98        69.02511
905.38        68.42181
905.77         68.2039
906.17        68.20133
906.57        68.30187
906.96        68.38689
907.36        68.35513
907.76        68.29867
908.15        68.22602
908.55        68.03996
908.95        67.77316
909.34        67.43896
909.74        67.10894
910.14        66.86063
910.53        66.72276
910.93        66.70313
911.33        66.80879
911.72         67.0592
912.12        67.42632
912.52        67.87041
912.91        68.34719
913.31        68.76267
913.70        69.10246
914.10        69.33056
914.49        69.42947
914.89        69.30807
915.29        69.00091
915.68        68.55731
916.08        68.11347
916.47        67.82455
916.87        67.76234
917.26        67.83587
917.66          68.032
918.05        68.31284
918.45        68.61076
918.84        68.98671
919.24        69.22199
919.64         69.0605
920.03        68.47976
920.42        67.56931
920.82         66.7022
921.21        66.27727
921.61        66.37654
922.00        66.93522
922.40        67.66635
922.79        68.14912
923.19        68.19814
923.58        67.94083
923.98        67.64845
924.37        67.69923
924.77        68.17463
925.16        68.96421
925.55        69.78683
925.95        70.13924
926.34        69.92111
926.74        69.28062
927.13        68.50628
927.52        68.02267
927.92        67.94209
928.31        68.12759
928.70          68.431
929.10        68.58705
929.49        68.53312
929.89        68.37477
930.28        68.19474
930.67        68.07718
931.07        68.04092
931.46         68.0335
931.85        68.10256
932.24         68.3642
932.64        68.78613
933.03        69.40979
933.42        69.96729
933.82         70.0348
934.21        69.57485
934.60        68.71181
934.99        67.84982
935.39        67.57729
935.78          68.006
936.17        68.94173
936.56         70.0382
936.96        70.70277
937.35        70.79207
937.74        70.47028
938.13        69.88086
938.53        69.25762
938.92         68.7065
939.31        68.21394
939.70        67.90701
940.09        67.99845
940.49        68.44403
940.88        69.18313
941.27        70.04581
941.66        70.71757
942.05        71.03501
942.44        71.08267
942.84         70.6815
943.23        69.57317
943.62        67.90524
944.01        65.92017
944.40        64.21763
944.79        63.53427
945.18        63.94896
945.57        65.28739
945.97        67.03845
946.36        68.40171
946.75        68.88203
947.14        68.69653
947.53        68.20776
947.92         68.0582
948.31         68.4187
948.70        68.98944
949.09        69.62517
949.48        70.12298
949.87         70.3724
950.26        70.51673
950.65        70.38013
951.04         69.6455
951.43        68.36016
951.82        66.67349
952.21        65.10734
952.60        64.44182
952.99         64.8223
953.38        66.04071
953.77        67.57532
954.16        68.50471
954.55        68.52238
954.94        67.82886
955.33        66.85429
955.72        66.32931
956.11        66.46303
956.50        67.05711
956.89        67.70415
957.28        67.75029
957.66        67.08166
958.05        65.94395
958.44        64.87028
958.83        64.67933
959.22        65.54375
959.61        67.16084
960.00        68.99809
960.39        70.12891
960.78        70.23631
961.16        69.59875
961.55        68.51086
961.94        67.44018
962.33        66.59065
962.72        65.82368
963.11        65.24722
963.49        65.06535
963.88         65.2517
964.27        65.83833
964.66        66.55853
965.04        66.93417
965.43        66.79154
965.82        66.25628
966.21        65.63185
966.60        65.45709
966.98        65.87091
967.37         66.6701
967.76        67.55457
968.15         68.0181
968.53         67.9401
968.92        67.45415
969.31        66.81574
969.69        66.43374
970.08        66.41219
970.47        66.62972
970.86        66.97295
971.24        67.26231
971.63         67.4372
972.02        67.63391
972.40        67.86005
972.79        68.05276
973.17         68.2797
973.56        68.43356
973.95        68.74812
974.33        69.62917
974.72        71.04279
975.11        72.92726
975.49        74.87255
975.88        75.86249
976.26        75.57447
976.65        74.22881
977.04        72.35551
977.42        70.66166
977.81        69.39366
978.19        68.35264
978.58        67.50747
978.96        66.60707
979.35        65.63425
979.74          64.685
980.12        63.92102
980.51         63.4551
980.89        63.40425
981.28        63.71546
981.66         64.2454
982.05        64.68163
982.43        64.94226
982.82        65.02296
983.20        65.22041
983.59        66.03381
983.97        67.60143
984.35        69.75893
984.74        71.75273
985.12        72.52322
985.51        71.64194
985.89        69.60632
986.28        67.29497
986.66         65.6231
987.04        64.91407
987.43        64.78068
987.81        65.15264
988.20        65.74299
988.58        66.43933
988.96        67.38715
989.35        68.07704
989.73        67.81365
990.12        66.51176
990.50        64.32423
990.88         62.2061
991.27        61.59716
991.65        62.78181
992.03        65.53821
992.42        68.63986
992.80        69.78378
993.18        68.06339
993.56        64.55241
993.95        61.03341
994.33        59.25118
994.71        59.61919
995.10        61.46349
995.48        64.33997
995.86        66.74731
996.24        67.84156
996.63        68.11687
997.01        67.79707
997.39        67.16257
997.77        66.40752
998.15        65.27759
998.54        64.24761
998.92         64.3358
999.30        65.78874
999.68        68.49166
1000.06        71.40556
1000.45        72.47855
1000.83        71.35165
1001.21        68.63055
1001.59        65.64256
1001.97         64.2029
1002.35        64.69205
1002.73        66.60339
1003.12        69.21525
1003.50        71.27773
1003.88        72.18552
1004.26        72.29441
1004.64        72.00201
1005.02        71.96384
1005.40        72.33109
1005.78        72.72681
1006.16        72.90028
1006.54        72.50443
1006.92        71.43342
1007.30        69.94152
1007.69        68.04118
1008.07        65.93466
1008.45        63.94902
1008.83        62.17633
1009.21        61.05479
1009.59        60.98626
1009.97         61.9552
1010.35        64.05534
1010.73        66.60317
1011.11         67.8745
1011.49        67.14165
1011.86        64.58665
1012.24        61.99163
1012.62        62.16883
1013.00        65.90797
1013.38        72.96329
1013.76        81.16264
1014.14         84.4067
1014.52        80.84592
1014.90        73.78268
1015.28        66.89337
1015.66        63.23729
1016.04        62.93161
1016.41        65.09285
1016.79        69.25076
1017.17        74.61511
1017.55        80.00558
1017.93        85.67746
1018.31        89.46552
1018.69        87.93774
1019.06        81.47298
1019.44        72.72752
1019.82        65.04778
1020.20        61.12561
1020.58        60.68859
1020.95        62.98729
1021.33        66.90262
1021.71        69.52242
1022.09        69.34991
1022.46        66.93827
1022.84        64.21426
1023.22        63.51514
1023.60        65.48547
1023.97        70.22918
1024.35        75.66784
1024.73        75.75645
