SpectraSmart Spectrum 2.9.0.0
--------- Device Information -----------
Spectrum Name :  反射率_0
Saving Time :  2024/05/03 20:18:13
Spectro-Module Model Name : SE2030-DUVN
Spectro-Module Serial Number : OS361AC55029948
Wavelength Start : 200
Wavelength End : 1025
Wavelength Unit : Wavelength(nm)
Spectrum Unit : Reflectance(%)
-----------Spectrum Setting ------------
Integration Time : 20ms
Average : 10
Boxcar : 0
Background removal :  enabled
linearity correction :  enabled
SC :  disabled
Intensity correction :  disabled
DWT denoise :  enabled
savitzky-golay :  disabled
FFT :  disabled
Running average :  disabled
Kalman :  disabled
High pass :  disabled
---------------BEGIN--------------------
Wavelength(nm)             Reflectance(%)
200.29               0
200.75        38.22343
201.21        30.65957
201.67        510.6866
202.13        55.49722
202.58        43.84229
203.04        37.17776
203.50        33.44674
203.96        34.69635
204.42        43.68826
204.88        80.28511
205.34       -1254.695
205.80       -108.2437
206.26       -120.7435
206.72        -29946.6
207.18        112.1395
207.64        72.96526
208.10        69.95704
208.55        95.86127
209.01        375.7086
209.47        485.4304
209.93        98.74468
210.39        60.63969
210.85        51.01429
211.31        49.33873
211.77        51.68074
212.23        59.95868
212.69        80.20529
213.14        85.52296
213.60        48.67327
214.06        29.78626
214.52        23.30053
214.98        20.99969
215.44        20.34437
215.90        22.35974
216.36       -32.50153
216.81       -2.473246
217.27       -14.90109
217.73       -55.89912
218.19       -291.3082
218.65       -6722.269
219.11        -495.921
219.57       -121.9517
220.02        -57.9015
220.48       -83.46422
220.94        98.87283
221.40        35.30259
221.86        26.35713
222.32        23.22107
222.77        21.43547
223.23        20.13149
223.69        20.22999
224.15        24.68907
224.61         31.8694
225.06         37.5439
225.52        41.04052
225.98        43.19699
226.44        44.74308
226.90        45.50188
227.36        44.91075
227.81         42.1607
228.27        37.86343
228.73        33.77298
229.19         30.5845
229.65        28.31317
230.10        26.78527
230.56        26.02087
231.02        26.17964
231.48        27.60094
231.93         29.9692
232.39        32.93584
232.85        35.77243
233.31        37.45468
233.77        37.84033
234.22        37.26655
234.68        36.34541
235.14        36.11423
235.60        36.94693
236.05        38.67649
236.51        40.94436
236.97         42.9602
237.43        44.27867
237.88        45.26182
238.34        46.23156
238.80        47.70257
239.26         50.2054
239.71        56.15227
240.17        64.44036
240.63        76.89994
241.08        87.93909
241.54        92.34319
242.00        91.83914
242.46         93.1833
242.91        99.50275
243.37        111.0711
243.83        130.7373
244.28        151.4563
244.74        151.5807
245.20        133.0052
245.66         108.555
246.11        87.67278
246.57        72.28849
247.03        60.22775
247.48        51.18767
247.94        44.04875
248.40        37.94257
248.85        32.21689
249.31        28.05261
249.77         27.9417
250.22          31.619
250.68        37.07118
251.14        42.48375
251.59        47.46312
252.05        53.06533
252.51        60.55262
252.96        71.50675
253.42        84.58214
253.88        94.46872
254.33        98.52125
254.79        96.60329
255.25        90.09388
255.70        82.53094
256.16        76.43842
256.62          72.641
257.07        71.65155
257.53        72.87029
257.99        74.75015
258.44        75.81924
258.90        75.12108
259.35        72.47665
259.81        69.40283
260.27        66.29985
260.72        63.60312
261.18        61.78972
261.63        60.31665
262.09         59.3952
262.55        58.84048
263.00        58.42301
263.46        58.16295
263.91        57.80732
264.37        57.33345
264.83        56.64866
265.28        55.78003
265.74        54.74704
266.19        53.28923
266.65        51.57612
267.11        49.64804
267.56        47.80252
268.02        46.54954
268.47        45.88414
268.93        45.67253
269.38        45.56397
269.84        44.97795
270.30         43.8167
270.75        42.28021
271.21        40.75683
271.66           39.68
272.12        39.12994
272.57        38.89832
273.03        38.73392
273.48        38.27497
273.94          37.461
274.39        36.44883
274.85        35.41093
275.31        34.47855
275.76        33.69078
276.22        33.03791
276.67        32.51898
277.13        32.26645
277.58        32.18658
278.04        32.25485
278.49        32.25291
278.95        31.90945
279.40        31.17382
279.86        30.25798
280.31        29.30274
280.77        28.60663
281.22        28.14039
281.68        27.84758
282.13        27.64267
282.59        27.47684
283.04        27.29826
283.50        27.15816
283.95        26.99461
284.41        26.74268
284.86        26.39502
285.32        26.01287
285.77        25.67288
286.22        25.55814
286.68        25.69785
287.13        25.98248
287.59        26.34671
288.04        26.64631
288.50        26.85678
288.95        26.99136
289.41        27.04867
289.86        26.97629
290.32        26.82142
290.77        26.60439
291.22        26.43555
291.68        26.46372
292.13        26.71882
292.59        27.19964
293.04        27.86174
293.50        28.62502
293.95        29.44412
294.40        30.34376
294.86        31.34516
295.31        32.48814
295.77         33.7944
296.22        35.22768
296.68        36.76177
297.13        38.33946
297.58        39.89201
298.04        41.43174
298.49        42.88998
298.95        44.24526
299.40         45.5052
299.85        46.71368
300.31        48.01019
300.76        49.56395
301.21         51.4179
301.67        53.52647
302.12        55.71156
302.58         57.7248
303.03        59.45719
303.48        60.97779
303.94        62.46346
304.39        64.09991
304.84        65.97854
305.30        68.03141
305.75        70.08948
306.20        71.93793
306.66        73.53943
307.11        74.92364
307.57        76.24343
308.02         77.5905
308.47         79.0464
308.93        80.57422
309.38        82.10766
309.83        83.64529
310.29        85.16711
310.74        86.65103
311.19        88.05427
311.65        89.28797
312.10         90.2991
312.55        91.09714
313.00        91.72353
313.46        92.26834
313.91         92.7476
314.36        93.20277
314.82        93.64243
315.27        94.04027
315.72        94.42329
316.18        94.81272
316.63        95.28574
317.08        95.97457
317.53        96.88582
317.99        97.95107
318.44        99.02728
318.89        99.81739
319.35        100.2384
319.80        100.3653
320.25        100.3472
320.70        100.4582
321.16        100.7569
321.61        101.1807
322.06         101.618
322.51        101.8884
322.97        101.9357
323.42        101.8688
323.87        101.7375
324.32        101.6248
324.78        101.5653
325.23         101.575
325.68         101.682
326.13        101.9515
326.59        102.3592
327.04        102.9372
327.49        103.5935
327.94         104.209
328.39        104.7271
328.85        105.1099
329.30        105.4308
329.75        105.6848
330.20        105.8844
330.66        106.0032
331.11        106.0858
331.56         106.087
332.01        106.0328
332.46        105.9619
332.92        105.9364
333.37        106.1721
333.82        106.6672
334.27        107.3754
334.72        108.1897
335.17        108.9224
335.63        109.4668
336.08        109.9081
336.53        110.2365
336.98        110.5083
337.43        110.7528
337.88        110.9515
338.34         111.121
338.79        111.3221
339.24         111.568
339.69        111.8803
340.14        112.2489
340.59        112.6409
341.05        113.0418
341.50        113.4605
341.95        113.9198
342.40        114.4728
342.85        115.1137
343.30          115.81
343.75        116.4629
344.20        116.9223
344.66        117.1778
345.11        117.2602
345.56        117.2919
346.01        117.4563
346.46        117.8048
346.91        118.2871
347.36        118.8336
347.81        119.3306
348.26        119.7391
348.72        120.0969
349.17         120.409
349.62        120.7091
350.07        121.0007
350.52         121.254
350.97        121.4487
351.42        121.5714
351.87        121.6042
352.32        121.5314
352.77        121.3616
353.22        121.1088
353.67        120.7882
354.13        120.4543
354.58        120.0261
355.03        119.4477
355.48        118.7459
355.93        117.9737
356.38        117.2935
356.83        116.9534
357.28        116.9775
357.73        117.2519
358.18        117.5826
358.63        117.6553
359.08        117.3694
359.53        116.8144
359.98        116.0455
360.43         115.168
360.88        114.2396
361.33        113.2236
361.78        112.2222
362.23        111.3885
362.68        110.7458
363.13        110.2891
363.58        109.8421
364.03        109.1096
364.48        108.0507
364.93        106.7579
365.38        105.4968
365.83         104.674
366.28        104.3602
366.73        104.4193
367.18        104.5502
367.63         104.274
368.08        103.4685
368.53        102.2771
368.98        100.9787
369.43         99.9882
369.88        99.40788
370.33         99.1283
370.78        98.91409
371.23        98.38361
371.68        97.45783
372.13        96.27438
372.58        95.13205
373.03        94.46565
373.48        94.34256
373.93         94.5996
374.38        94.89742
374.83        94.69118
375.28        93.84621
375.72        92.52045
376.17        91.09279
376.62        89.97183
377.07        89.26021
377.52        88.83112
377.97        88.51139
378.42        88.03882
378.87        87.35827
379.32        86.57767
379.77        85.85107
380.22        85.36799
380.67        85.14872
381.11        85.13668
381.56        85.12499
382.01        84.85619
382.46        84.27953
382.91        83.48819
383.36        82.69814
383.81        82.21741
384.26        82.09309
384.71        82.22211
385.15        82.37984
385.60         82.2403
386.05        81.71962
386.50        80.92899
386.95        80.07706
387.40        79.47679
387.85        79.19569
388.29        79.09412
388.74        79.07193
389.19        78.80836
389.64        78.25668
390.09        77.52712
390.54        76.80286
390.98        76.32655
391.43        76.18701
391.88        76.31665
392.33        76.56191
392.78        76.48598
393.23        76.11906
393.67        76.01381
394.12        76.13807
394.57        75.68622
395.02        74.80423
395.47        74.40128
395.91        74.49095
396.36        74.35863
396.81        74.02096
397.26        73.90849
397.71        73.93269
398.15        73.83244
398.60        73.69651
399.05        73.26514
399.50        72.71339
399.95        72.99992
400.39        73.89449
400.84        73.51231
401.29        72.08639
401.74        71.86497
402.18        72.72305
402.63        72.56676
403.08        71.55542
403.53        70.83102
403.97        71.45062
404.42        71.76961
404.87        71.95947
405.32        71.87713
405.76        71.81116
406.21        71.62537
406.66        71.40842
407.11        70.92585
407.55        70.37502
408.00        70.22397
408.45        70.45006
408.90        70.79487
409.34        70.98664
409.79        70.47131
410.24        69.51848
410.68        69.14114
411.13        69.41776
411.58        69.78074
412.03        70.00904
412.47        70.00459
412.92        69.67656
413.37        69.08656
413.81          68.466
414.26        68.22349
414.71        68.39223
415.15        68.90526
415.60        69.48195
416.05        69.70992
416.49        69.47067
416.94        68.91614
417.39        68.31625
417.83        68.05607
418.28        68.22445
418.73        68.67812
419.17        69.22891
419.62        69.51189
420.07        69.42741
420.51        69.08105
420.96        68.63709
421.41        68.23619
421.85        67.91216
422.30        67.75347
422.74        67.67731
423.19        67.55455
423.64        67.41531
424.08        67.61104
424.53        68.06438
424.98        68.41659
425.42        68.62428
425.87        68.85013
426.31        69.10543
426.76        69.22243
427.21        69.24413
427.65        69.36318
428.10        69.50761
428.54          69.495
428.99        69.36308
429.44        69.10114
429.88        68.80231
430.33        68.83214
430.77        69.00949
431.22        69.04122
431.66        68.86977
432.11         68.4764
432.56         68.0063
433.00        68.27272
433.45        69.08453
433.89        69.73089
434.34        67.49993
434.78        69.29134
435.23        68.84882
435.67        68.00157
436.12         67.9185
436.57        67.98392
437.01        68.61441
437.46        70.16671
437.90        69.45224
438.35        68.88771
438.79        69.19492
439.24         69.0909
439.68        68.86044
440.13        68.66093
440.57        68.57476
441.02        68.43353
441.46        68.26405
441.91        68.92382
442.35        69.92889
442.80        69.54568
443.24         68.1462
443.69        68.28146
444.13        69.73379
444.58        70.14883
445.02        69.43064
445.47        68.89999
445.91        68.75687
446.36        68.76517
446.80        68.94141
447.24        69.40824
447.69        69.96368
448.13        70.13503
448.58        69.93081
449.02        69.73655
449.47        69.65182
449.91        69.52315
450.36        69.40751
450.80        69.40359
451.25        69.48818
451.69        69.50971
452.13        69.45325
452.58        69.38156
453.02        69.29537
453.47        69.18911
453.91        69.04144
454.36        68.91736
454.80        68.87244
455.24        68.61559
455.69        68.48742
456.13        68.68976
456.58         68.8446
457.02        68.29868
457.46        68.27552
457.91        68.11113
458.35        68.11308
458.79        68.18033
459.24        68.24614
459.68        67.86045
460.13        67.13203
460.57        67.03678
461.01          67.125
461.46        66.71787
461.90        66.84634
462.34        67.13731
462.79        66.32321
463.23        66.22774
463.68        66.36493
464.12        66.41331
464.56        66.30741
465.01        66.30851
465.45        66.35665
465.89        66.33683
466.34        66.06309
466.78        66.30414
467.22        66.88521
467.67        66.63756
468.11        66.10062
468.55        65.85451
468.99        66.06422
469.44        66.05132
469.88        65.82377
470.32        65.76205
470.77        65.83599
471.21        65.84074
471.65        65.74362
472.10        65.60115
472.54          65.452
472.98        65.36517
473.42        65.34593
473.87        65.43796
474.31        65.51117
474.75        65.29762
475.20        64.87285
475.64         64.5769
476.08        64.45779
476.52        64.34202
476.97        64.23576
477.41        64.30276
477.85        64.26389
478.29        64.79016
478.74        64.54796
479.18        64.98716
479.62        65.15695
480.06         65.1903
480.50         64.8569
480.95        64.69873
481.39        64.85951
481.83        63.70909
482.27        64.17623
482.72        64.27171
483.16        64.25342
483.60        64.40036
484.04        64.60291
484.48        64.51483
484.93        64.16791
485.37        64.90192
485.81          65.534
486.25        65.02955
486.69        67.03512
487.14        66.89378
487.58        63.92424
488.02        64.10706
488.46        65.57903
488.90        63.63105
489.34        63.59336
489.79        64.24652
490.23        64.24222
490.67        64.56237
491.11        64.33472
491.55        64.27788
491.99        64.33898
492.43        64.29488
492.88        64.17036
493.32        64.10717
493.76        64.10845
494.20        64.07719
494.64        63.99359
495.08        64.01334
495.52        64.13241
495.96        63.94442
496.41        63.59023
496.85        64.00713
497.29        64.93697
497.73        64.93409
498.17        64.09726
498.61        63.82452
499.05        64.18092
499.49        64.25224
499.93        63.97766
500.37        63.82338
500.82        63.84122
501.26        63.41306
501.70        63.54093
502.14         63.5058
502.58        63.31514
503.02        63.32848
503.46        63.47316
503.90        63.52078
504.34         63.7142
504.78        63.71723
505.22        63.61055
505.66        63.37391
506.10        63.09503
506.54        63.04087
506.98        63.22308
507.42        63.31919
507.86        63.23482
508.30        63.61547
508.74        63.33302
509.18        63.23181
509.62        63.05499
510.06        62.98981
510.50        63.05494
510.94        63.20715
511.38        63.37233
511.82        63.40194
512.26        63.26865
512.70           63.03
513.14        62.76262
513.58        62.58227
514.02        62.51906
514.46        62.52832
514.90        62.58212
515.34        62.63412
515.78        62.66534
516.22         62.7046
516.66        62.72048
517.10        62.65905
517.54        62.52297
517.98        62.32207
518.42        62.15134
518.86        62.16739
519.30        62.39022
519.74        62.76539
520.18        63.15891
520.62        63.34876
521.06        63.28135
521.50        63.03011
521.93        62.70085
522.37        62.47825
522.81        62.40488
523.25        62.43388
523.69        62.53322
524.13        62.60122
524.57        62.60386
525.01        62.77854
525.45        62.74566
525.89         62.7221
526.32        62.60111
526.76        62.40958
527.20        62.23833
527.64        62.24928
528.08        62.46819
528.52        62.83877
528.96        63.22521
529.40        63.41025
529.83        63.33162
530.27        63.06436
530.71        62.72847
531.15        62.52676
531.59        62.51985
532.03         62.6255
532.46         62.7263
532.90        62.74138
533.34        62.66571
533.78         62.1636
534.22         62.0652
534.66        61.96758
535.09        62.09444
535.53        62.36118
535.97        62.67882
536.41         62.8488
536.85        62.80467
537.28         62.7802
537.72        62.75796
538.16        62.32541
538.60        61.70826
539.04        61.75637
539.47        62.34552
539.91        62.57619
540.35         62.3905
540.79        62.32091
541.22        62.36382
541.66        62.32035
542.10        62.20147
542.54        61.96983
542.97        61.71866
543.41        61.83226
543.85        62.21716
544.29        62.37017
544.72        62.24505
545.16         62.1901
545.60        62.18503
546.04        62.07164
546.47        61.81416
546.91          61.682
547.35        61.67977
547.79        61.78703
548.22        61.95368
548.66        62.08672
549.10        62.17473
549.53        62.38118
549.97         62.6432
550.41        62.71915
550.84        62.55489
551.28        62.35339
551.72        62.19501
552.15        61.88906
552.59        61.45004
553.03        61.95347
553.46        61.48136
553.90        61.59385
554.34        61.69694
554.77           61.71
555.21        61.66885
555.65        61.84238
556.08        62.17386
556.52        62.31865
556.96        62.26057
557.39        62.21288
557.83        62.23296
558.27        62.23669
558.70         62.2216
559.14        62.27998
559.57         62.3461
560.01        62.21959
560.45        61.96535
560.88        61.90318
561.32        62.04264
561.75        62.11158
562.19        62.14057
562.63        62.10001
563.06        62.03121
563.50        62.37132
563.93        62.92589
564.37        62.73396
564.80        61.95635
565.24        61.82326
565.68        62.25916
566.11        62.35195
566.55        62.11094
566.98        61.94975
567.42        61.93505
567.85         62.2082
568.29         62.3883
568.72         62.4319
569.16          62.342
569.60        62.34687
570.03        62.41805
570.47        62.59583
570.90        62.83865
571.34        62.33123
571.77        62.97271
572.21        62.45465
572.64        62.74332
573.08        62.67874
573.51        62.86096
573.95         62.8395
574.38        62.88831
574.82        62.31017
575.25        63.52176
575.69        63.56947
576.12        63.36912
576.56        62.52051
576.99        62.63465
577.42        63.59987
577.86        63.01527
578.29        63.46061
578.73        63.25822
579.16        63.26788
579.60        63.13066
580.03        63.05505
580.47        62.98334
580.90        63.09065
581.33        62.59084
581.77        63.09618
582.20        64.29866
582.64        63.97108
583.07        63.77303
583.51        63.09338
583.94        62.76872
584.37        62.60478
584.81        62.75394
585.24        62.82119
585.68        63.78003
586.11        63.10491
586.54         63.2321
586.98        62.73364
587.41        62.29259
587.85        62.97365
588.28        63.22563
588.71        62.90275
589.15        62.52266
589.58        63.02077
590.01        62.43652
590.45        62.04219
590.88         62.6418
591.31        62.81427
591.75        62.83287
592.18        62.59298
592.61        62.10212
593.05        62.00979
593.48         63.4285
593.91         63.2528
594.35        63.35005
594.78        62.96027
595.21        62.69618
595.65        62.56367
596.08        62.39979
596.51        63.25274
596.94        62.58039
597.38        62.46645
597.81        62.08946
598.24        63.00566
598.68        62.69217
599.11        61.90932
599.54        63.52045
599.97        62.85238
600.41        62.93607
600.84        62.70494
601.27        62.78488
601.70        62.51316
602.14        62.28541
602.57        62.30019
603.00        62.79765
603.43         62.8389
603.87        62.55604
604.30        62.54766
604.73        62.82812
605.16        62.71642
605.60        62.02556
606.03        62.06991
606.46        62.76967
606.89        62.06884
607.32        62.48378
607.76        62.08491
608.19        62.31687
608.62        62.41559
609.05        62.48642
609.48        62.35351
609.92        62.26661
610.35         61.9128
610.78        62.90531
611.21        63.86155
611.64        63.12835
612.07        63.00175
612.50        62.97721
612.94         62.7779
613.37        62.40841
613.80        62.73229
614.23        62.43405
614.66        62.45037
615.09        62.42373
615.52        62.42112
615.96        62.40087
616.39        62.60833
616.82        62.64306
617.25        62.33867
617.68        62.86273
618.11        62.39764
618.54        61.60183
618.97        61.47542
619.40        62.02188
619.84        62.37191
620.27        62.40184
620.70        62.57249
621.13        62.79535
621.56        62.41505
621.99        61.62883
622.42         61.6058
622.85        62.17857
623.28        62.36203
623.71        62.18094
624.14        62.33147
624.57        61.51755
625.00        61.62234
625.43        61.79952
625.86        61.92238
626.29        61.67877
626.72        62.53598
627.15        62.04099
627.58        62.10571
628.01        62.02779
628.44        61.97742
628.87        61.97302
629.30        61.78931
629.73        61.77872
630.16        61.78923
630.59        61.60762
631.02        61.50095
631.45        61.41944
631.88        61.43475
632.31        61.54712
632.74        61.73431
633.17        61.92581
633.60        61.99806
634.03        61.92242
634.46        61.73897
634.89        61.50685
635.32        61.32348
635.75        61.22312
636.18        61.17878
636.61        61.17985
637.04        61.20707
637.47        61.24309
637.89        61.30981
638.32        61.37223
638.75        61.37329
639.18        61.29921
639.61        61.27637
640.04        61.15368
640.47        61.07368
640.90        61.01501
641.33        61.04005
641.76        61.13948
642.18        61.25006
642.61        61.33847
643.04        61.44226
643.47        61.54836
643.90        61.61501
644.33        61.63181
644.76        61.61982
645.18        61.58839
645.61         61.4737
646.04        61.27888
646.47        61.16254
646.90        61.21554
647.33        60.85477
647.75        61.24101
648.18        61.40231
648.61        61.63268
649.04        61.80064
649.47        61.88083
649.89        61.97393
650.32        62.01758
650.75        61.84542
651.18        61.58133
651.61        61.52832
652.03        61.71813
652.46        62.09719
652.89        62.41068
653.32        62.18731
653.74        61.78237
654.17        61.10922
654.60        60.98032
655.03        62.10516
655.46        61.46949
655.88        60.91052
656.31        64.44879
656.74        69.69881
657.16        66.34419
657.59        62.23481
658.02         62.6086
658.45        63.44868
658.87        63.04454
659.30        62.01311
659.73        61.62489
660.15        61.33108
660.58        61.63576
661.01        61.67893
661.44        61.40075
661.86        61.14375
662.29        60.94781
662.72        60.93311
663.14        61.09135
663.57        61.06718
664.00        60.91195
664.42        61.04861
664.85        61.42489
665.27        61.53201
665.70        61.36628
666.13         61.3257
666.55        61.42326
666.98        61.41989
667.41        61.33052
667.83        61.27402
668.26        61.25694
668.69        61.27625
669.11        61.28497
669.54        61.19896
669.96        61.01218
670.39        60.75585
670.82        60.56631
671.24        60.60734
671.67        60.89796
672.09        61.46406
672.52        62.12823
672.94        62.14459
673.37        62.17566
673.80        61.72748
674.22        61.23077
674.65        61.00928
675.07        61.16002
675.50        61.55788
675.92        62.03358
676.35        62.28202
676.77        62.22799
677.20        61.98043
677.62        61.67239
678.05        61.48783
678.47        61.47404
678.90        61.66921
679.32        61.80375
679.75        61.96495
680.17        62.06973
680.60         62.0763
681.02        61.98148
681.45        62.16725
681.87        61.99913
682.30        61.97823
682.72        61.93511
683.15        61.91881
683.57        61.94198
684.00        62.00432
684.42        62.07592
684.85        62.10722
685.27        62.08344
685.70         61.9533
686.12        61.76606
686.54        61.81677
686.97        62.02829
687.39        62.00489
687.82        61.73405
688.24        61.56917
688.66        61.52519
689.09        61.38143
689.51        61.18466
689.94        61.17116
690.36        61.37913
690.78        61.61135
691.21        61.71829
691.63        62.32354
692.06        61.82592
692.48        61.97485
692.90        62.25776
693.33        62.34731
693.75        62.24079
694.17        62.06213
694.60        61.87354
695.02        62.17063
695.44        62.08303
695.87        62.35638
696.29        62.63673
696.71        62.63453
697.14        62.36736
697.56        62.13873
697.98        62.03208
698.41        61.94796
698.83        61.88548
699.25        61.96029
699.68        62.10612
700.10        62.22361
700.52        62.26163
700.94        62.25427
701.37         62.2124
701.79        62.17584
702.21        62.14439
702.64        62.10984
703.06        62.06224
703.48        61.99299
703.90        61.91115
704.33        61.83112
704.75        61.78288
705.17        61.79699
705.59        61.88064
706.01        62.01365
706.44        62.18316
706.86        62.39177
707.28        62.60258
707.70        62.81305
708.12        62.98554
708.55        63.03598
708.97        62.96126
709.39        62.83945
709.81        62.70374
710.23        62.57922
710.66        62.49445
711.08        62.47688
711.50         62.5129
711.92        62.58181
712.34        62.67155
712.76        62.78281
713.19        62.87716
713.61        62.94405
714.03        62.94891
714.45        62.89586
714.87        62.80293
715.29        62.70144
715.71        62.60086
716.13        62.49611
716.56        62.37567
716.98        62.28463
717.40        62.21466
717.82        62.17707
718.24        62.16966
718.66        62.18519
719.08        62.21664
719.50        62.24989
719.92        62.30527
720.34         62.4171
720.76        62.58712
721.19        62.79691
721.61        62.97915
722.03        63.02343
722.45        62.93943
722.87        62.61485
723.29        62.17686
723.71        62.25145
724.13        62.88836
724.55        62.54777
724.97        63.07954
725.39           63.07
725.81         63.0682
726.23        62.89051
726.65        62.64672
727.07        62.56076
727.49        62.65529
727.91        62.87644
728.33        63.15024
728.75        63.35548
729.17        63.44868
729.59        63.46941
730.01        63.45143
730.43        63.44426
730.85        63.46567
731.27        63.49335
731.69        63.51805
732.10        63.53617
732.52        63.54092
732.94         63.5394
733.36         63.5285
733.78        63.49528
734.20        63.44758
734.62        63.40582
735.04        63.37243
735.46        63.34716
735.88        63.32103
736.30         63.2827
736.72        63.27462
737.13        63.30608
737.55        63.31904
737.97        63.55742
738.39        63.90089
738.81        63.54034
739.23        62.73311
739.65        62.97883
740.06        64.02737
740.48        64.27678
740.90        63.63751
741.32        63.00134
741.74        62.59946
742.16        62.41051
742.57        62.52582
742.99        62.92305
743.41        63.45784
743.83        63.87997
744.25        64.10461
744.67        64.17666
745.08        64.15923
745.50        64.12536
745.92        64.12274
746.34         64.1131
746.75        64.06797
747.17        63.97049
747.59        63.81862
748.01        63.62772
748.42        63.45639
748.84        63.39093
749.26        63.41821
749.68        63.51794
750.09        63.65557
750.51        63.62178
750.93        63.52485
751.35         63.9114
751.76        64.64222
752.18        64.89463
752.60        64.60856
753.01        64.21101
753.43        63.87485
753.85        63.73634
754.27         63.8454
754.68        64.11973
755.10        64.45655
755.52        64.68983
755.93        64.80244
756.35        64.90739
756.77        64.91302
757.18        64.83279
757.60        64.72371
758.02        64.07047
758.43        63.28828
758.85        64.14291
759.26        66.18427
759.68        66.75299
760.10        65.72981
760.51        64.94955
760.93        64.70261
761.34        64.74891
761.76        64.98787
762.18        64.74155
762.59        64.14135
763.01        64.16824
763.42        64.81433
763.84        65.12406
764.26        65.01263
764.67        64.64989
765.09        64.26653
765.50        64.36805
765.92        64.84986
766.33          64.821
766.75        64.28027
767.16        64.12819
767.58        64.40076
768.00        64.70639
768.41        65.00457
768.83        65.30278
769.24        65.48987
769.66        65.51123
770.07        65.33374
770.49        64.80928
770.90        64.14417
771.32        64.14124
771.73        64.74906
772.15        65.07767
772.56        65.09116
772.97        65.30402
773.39        65.67091
773.80        65.91079
774.22        65.95396
774.63        65.91402
775.05        65.78407
775.46        65.61559
775.88        65.42081
776.29        65.20352
776.70        65.01763
777.12         64.9651
777.53         65.0799
777.95         65.3188
778.36        65.59053
778.77        65.70548
779.19        65.63168
779.60        65.43516
780.02        65.21554
780.43        65.16341
780.84        65.33245
781.26        65.55866
781.67        65.83505
782.09        66.26061
782.50        66.70444
782.91        66.79457
783.33        66.55041
783.74        66.42235
784.15        66.42091
784.57        66.31432
784.98        66.12894
785.39        66.01603
785.81        65.99466
786.22        66.03296
786.63        66.10464
787.04        66.15498
787.46        66.18325
787.87        66.17557
788.28         66.1643
788.70        66.18102
789.11        66.20898
789.52        66.25429
789.93        66.29908
790.35        66.27457
790.76        66.20447
791.17        66.21674
791.58        66.31506
792.00        66.30081
792.41         66.1593
792.82         66.4958
793.23        66.20087
793.65        66.60938
794.06        67.27663
794.47        67.64799
794.88        67.58314
795.29        67.40763
795.71        67.09315
796.12        66.38549
796.53        65.54404
796.94        65.31194
797.35        65.78513
797.76        66.54091
798.18        67.26373
798.59        67.71995
799.00        67.74763
799.41        67.34058
799.82        66.74454
800.23        66.42937
800.64        66.50777
801.06        66.80376
801.47        67.21427
801.88         67.4481
802.29        67.41122
802.70        67.20771
803.11        66.94234
803.52        66.76173
803.93        66.71511
804.34        66.75263
804.75        66.83236
805.17        66.86053
805.58         66.8304
805.99        66.83364
806.40        66.88927
806.81        66.81867
807.22        66.71169
807.63        66.99056
808.04        67.53786
808.45        67.71832
808.86        67.44801
809.27        67.06032
809.68        66.69335
810.09        66.45016
810.50        66.39787
810.91        66.51155
811.32        66.70144
811.73        66.81197
812.14        66.79506
812.55        66.69787
812.96        66.57451
813.37        66.51867
813.78        66.56154
814.19        66.66325
814.60        66.79017
815.01        66.90443
815.42        66.99273
815.83        67.06523
816.24        67.13508
816.65        67.21774
817.05        67.31845
817.46        67.40024
817.87        67.46133
818.28        67.45525
818.69        67.37857
819.10        67.23954
819.51        67.10909
819.92        67.11365
820.33         67.2741
820.74        67.54143
821.14        67.79921
821.55        67.88937
821.96        67.76753
822.37        67.49475
822.78         67.1552
823.19        66.90202
823.60        66.80283
824.00        66.83598
824.41        66.95734
824.82        67.16464
825.23        67.43005
825.64        67.74899
826.04        68.09393
826.45        68.32311
826.86        68.42859
827.27        68.42715
827.68        68.33192
828.08        68.20068
828.49        68.02308
828.90        67.81573
829.31         67.6422
829.72        67.60078
830.12        67.73672
830.53        67.97575
830.94        68.24279
831.35        68.35188
831.75        68.26556
832.16        67.98631
832.57        67.63621
832.97        67.38519
833.38        67.28613
833.79        67.29413
834.20        67.34391
834.60        67.32381
835.01        67.22661
835.42        67.10004
835.82        67.01033
836.23        67.01492
836.64        67.14491
837.04        67.38306
837.45        67.65387
837.86        67.94994
838.26        68.25262
838.67        68.52272
839.08        68.69865
839.48         68.6664
839.89        68.41325
840.29        67.94824
840.70        67.44363
841.11        67.10236
841.51        66.99866
841.92        67.11172
842.33        67.28123
842.73         67.2313
843.14        66.86621
843.54          66.279
843.95        65.78494
844.35        65.91765
844.76        66.72256
845.17        68.05173
845.57        69.43983
845.98        69.93797
846.38        69.36568
846.79        68.02757
847.19         66.4668
847.60        65.54045
848.00        65.46223
848.41        65.95479
848.81        66.79275
849.22        67.49397
849.62        67.92122
850.03        68.16087
850.43        68.25496
850.84        68.14754
851.24        67.90964
851.65        67.50664
852.05        67.04925
852.46        66.74242
852.86        66.61544
853.27        66.65303
853.67        66.78101
854.07        67.05813
854.48        67.40823
854.88        67.89288
855.29        68.23669
855.69        68.14248
856.10         67.4576
856.50        66.37916
856.90        65.25489
857.31        64.62702
857.71        64.65039
858.12        65.13559
858.52        65.93535
858.92        66.57204
859.33         66.8444
859.73         66.9125
860.13        66.80753
860.54        66.61519
860.94         66.4179
861.34        66.13979
861.75        65.82971
862.15        65.69065
862.55        65.71783
862.96        65.89658
863.36        66.10052
863.76        66.11333
864.17        65.88435
864.57        65.51942
864.97        65.10868
865.38        64.78239
865.78        64.62623
866.18        64.55998
866.58        64.61453
866.99        64.84383
867.39         65.2333
867.79        65.72852
868.19        66.15195
868.60         66.2084
869.00        65.86111
869.40        65.21447
869.80        64.45142
870.21        63.91383
870.61        63.75376
871.01        63.84951
871.41        64.13983
871.81        64.52404
872.22        64.93107
872.62        65.44804
873.02        65.97829
873.42        66.31926
873.82         66.4127
874.22         66.2819
874.63        66.11948
875.03        66.21384
875.43        66.61957
875.83        67.22236
876.23        67.83495
876.63        68.12373
877.03        68.01631
877.44        67.68955
877.84          67.208
878.24        66.70293
878.64         66.2466
879.04        65.74487
879.44        65.42091
879.84        65.60722
880.24        66.29701
880.64        67.43224
881.04        68.44619
881.44        68.32552
881.84        66.91788
882.24        64.63401
882.65        62.37317
883.05        61.32042
883.45        61.74897
883.85        63.30961
884.25        65.39423
884.65        66.86324
885.05        67.29103
885.45        66.98624
885.85        66.34655
886.25        65.99304
886.65        66.09975
887.05         66.4267
887.45        66.76444
887.85        66.81459
888.25          66.501
888.65        65.99258
889.04        65.44335
889.44        65.07874
889.84        64.95554
890.24        65.01582
890.64        65.19626
891.04         65.4012
891.44        65.58778
891.84        65.77327
892.24        65.99364
892.64        66.29882
893.04        66.69904
893.44        67.18006
893.83        67.66434
894.23        67.95088
894.63        68.01553
895.03        67.85087
895.43        67.63898
895.83        67.67496
896.23        68.00076
896.63        68.55236
897.02        68.98557
897.42        68.74044
897.82         67.7663
898.22        66.29025
898.62         64.8378
899.01        64.13185
899.41         64.3231
899.81        65.21615
900.21        66.36418
900.61        66.91277
901.00        66.59123
901.40        65.72815
901.80        64.80644
902.20        64.49837
902.59        64.96691
902.99        65.96627
903.39        67.17601
903.79        67.90161
904.18        67.88564
904.58        67.38843
904.98        66.77643
905.38        66.55324
905.77        66.81096
906.17        67.37461
906.57        68.03709
906.96        68.50544
907.36        68.62576
907.76        68.52872
908.15        68.28204
908.55        67.91084
908.95        67.50697
909.34        67.05904
909.74        66.67361
910.14        66.47701
910.53        66.48847
910.93        66.69871
911.33        67.03417
911.72        67.37211
912.12         67.6501
912.52         67.8737
912.91        68.05145
913.31        68.17767
913.70        68.27953
914.10        68.30714
914.49        68.27012
914.89        68.12157
915.29         67.8943
915.68         67.6173
916.08        67.37402
916.47        67.23264
916.87        67.22818
917.26        67.27914
917.66        67.37499
918.05         67.4847
918.45        67.55876
918.84        67.67484
919.24         67.6452
919.64        67.27737
920.03         66.5843
920.42        65.63966
920.82         64.8399
921.21        64.61839
921.61         65.0399
922.00        66.02154
922.40        67.14781
922.79        67.75755
923.19        67.60204
923.58        66.88255
923.98        66.04651
924.37        65.72625
924.77        66.07381
925.16        66.93811
925.55        67.93987
925.95        68.38856
926.34        68.12157
926.74         67.3291
927.13        66.43675
927.52        66.07451
927.92        66.37296
928.31        67.11346
928.70         67.9176
929.10        68.15306
929.49        67.68913
929.89        66.76592
930.28        65.75143
930.67        65.18281
931.07        65.21172
931.46        65.67246
931.85        66.40054
932.24        67.15762
932.64        67.78945
933.03        68.40723
933.42        68.88899
933.82        69.05972
934.21        68.92783
934.60        68.51431
934.99        67.99996
935.39        67.65443
935.78        67.54378
936.17        67.59203
936.56        67.73883
936.96        67.87617
937.35        67.99267
937.74        68.10512
938.13        68.09687
938.53        67.77173
938.92        67.12436
939.31        66.30083
939.70        65.56664
940.09        65.33826
940.49        65.64465
940.88        66.33772
941.27        67.27036
941.66        68.18021
942.05        68.88235
942.44        69.44958
942.84        69.54587
943.23        68.63898
943.62        66.83078
944.01        64.46252
944.40        62.31344
944.79        61.35614
945.18        61.72017
945.57        63.17384
945.97        65.14347
946.36        66.68573
946.75        67.23905
947.14        67.05001
947.53        66.52845
947.92        66.38835
948.31        66.81685
948.70        67.49116
949.09        68.18398
949.48        68.56712
949.87        68.51962
950.26        68.23888
950.65        67.70959
951.04        66.86572
951.43        65.80103
951.82        64.57526
952.21        63.52881
952.60         63.1711
952.99        63.57083
953.38        64.58105
953.77        65.79922
954.16        66.50826
954.55        66.48086
954.94        65.88991
955.33        65.04311
955.72        64.47753
956.11        64.35945
956.50        64.52364
956.89        64.79767
957.28         64.9027
957.66        64.77131
958.05        64.52879
958.44        64.28585
958.83        64.18232
959.22        64.25404
959.61        64.40434
960.00        64.61712
960.39        64.87932
960.78        65.15064
961.16        65.44339
961.55        65.60552
961.94        65.38501
962.33        64.76701
962.72        63.82429
963.11        62.88077
963.49        62.48857
963.88        62.73602
964.27        63.51528
964.66        64.45491
965.04        64.93571
965.43        64.74072
965.82         64.0724
966.21         63.3107
966.60        63.08681
966.98        63.57669
967.37        64.55848
967.76        65.67184
968.15        66.31967
968.53        66.35165
968.92        65.90446
969.31        65.31184
969.69        65.12215
970.08        65.43755
970.47         66.0564
970.86        66.69583
971.24        66.91048
971.63        66.59799
972.02        66.02194
972.40        65.34421
972.79        64.77665
973.17        64.53032
973.56        64.45528
973.95        64.82284
974.33        66.08694
974.72        68.19064
975.11        71.05271
975.49        74.08604
975.88        75.85989
976.26         75.8568
976.65        74.38155
977.04        72.06409
977.42         69.8072
977.81        67.94434
978.19        66.20824
978.58         64.7466
978.96        63.58555
979.35        62.73426
979.74        62.25945
980.12        61.95743
980.51        61.29707
980.89        60.27301
981.28        59.02449
981.66        57.94804
982.05         57.6954
982.43        58.42595
982.82        59.81523
983.20        61.61409
983.59        63.49928
983.97        65.37336
984.35        67.30386
984.74        68.73092
985.12        69.00486
985.51        67.90623
985.89        65.77036
986.28        63.48906
986.66        62.03009
987.04        61.69456
987.43        62.14978
987.81        63.14854
988.20        64.01398
988.58         64.5182
988.96        64.90198
989.35         64.9296
989.73        64.37156
990.12        63.23962
990.50        61.52655
990.88        59.97426
991.27        59.70533
991.65        60.94373
992.03        63.61977
992.42        66.54972
992.80        67.53244
993.18        65.71165
993.56        62.00801
993.95        58.41394
994.33        56.98337
994.71        58.14893
995.10        61.31081
995.48        65.39724
995.86        67.52721
996.24        66.54418
996.63        63.46928
997.01        59.98833
997.39        58.33425
997.77        59.00383
998.15        61.27272
998.54        64.33325
998.92        66.74084
999.30         67.8514
999.68        68.08947
1000.06        67.63628
1000.45        66.82778
1000.83        66.07478
1001.21        65.16759
1001.59        64.28313
1001.97        63.70024
1002.35        63.46467
1002.73        63.60312
1003.12        64.05782
1003.50        64.75884
1003.88        65.58032
1004.26        66.51298
1004.64        67.41129
1005.02        68.11617
1005.40        68.51781
1005.78        68.45045
1006.16        68.09093
1006.54        67.77184
1006.92        67.57777
1007.30        67.60211
1007.69        67.21247
1008.07        65.41804
1008.45        62.37142
1008.83        58.75303
1009.21        55.98261
1009.59        55.52705
1009.97         57.4773
1010.35        61.67151
1010.73        66.86281
1011.11        69.87621
1011.49        69.19729
1011.86        65.24377
1012.24        60.59177
1012.62        59.28439
1013.00        62.50755
1013.38        69.91293
1013.76        78.69609
1014.14        81.33994
1014.52        75.85874
1014.90         66.3768
1015.28        57.91264
1015.66        54.79997
1016.04        57.21449
1016.41        64.17545
1016.79        74.18003
1017.17        83.01025
1017.55        87.29993
1017.93        87.62148
1018.31        83.94435
1018.69        77.71611
1019.06        70.94514
1019.44        64.44853
1019.82        59.57244
1020.20        57.24349
1020.58        57.04296
1020.95        58.84223
1021.33        61.90996
1021.71        64.08763
1022.09        64.25865
1022.46        62.62789
1022.84        60.63894
1023.22        60.12781
1023.60        61.57827
1023.97        65.02299
1024.35        68.88248
1024.73        68.71049
