SpectraSmart Spectrum 2.9.0.0
--------- Device Information -----------
Spectrum Name :  反射率_0
Saving Time :  2024/05/03 20:03:03
Spectro-Module Model Name : SE2030-DUVN
Spectro-Module Serial Number : OS361AC55029948
Wavelength Start : 200
Wavelength End : 1025
Wavelength Unit : Wavelength(nm)
Spectrum Unit : Reflectance(%)
-----------Spectrum Setting ------------
Integration Time : 20ms
Average : 10
Boxcar : 0
Background removal :  enabled
linearity correction :  enabled
SC :  disabled
Intensity correction :  disabled
DWT denoise :  enabled
savitzky-golay :  disabled
FFT :  disabled
Running average :  disabled
Kalman :  disabled
High pass :  disabled
---------------BEGIN--------------------
Wavelength(nm)             Reflectance(%)
200.29               0
200.75        39.38795
201.21        44.51578
201.67         -147.38
202.13        34.41274
202.58        37.76517
203.04        39.67662
203.50        40.45629
203.96        39.70763
204.42        36.55718
204.88        24.05211
205.34        473.9709
205.80        85.56309
206.26        85.71125
206.72        8005.867
207.18        23.54795
207.64        35.82361
208.10        41.39717
208.55        55.93554
209.01        153.9398
209.47        101.9767
209.93        21.25332
210.39         16.0805
210.85        16.11197
211.31        18.87681
211.77        24.98434
212.23        39.76982
212.69        80.26729
213.14        122.7016
213.60        81.58299
214.06        48.19489
214.52        33.87526
214.98        29.23539
215.44        30.30773
215.90        42.75612
216.36       -173.0744
216.81       -34.34616
217.27        -51.9786
217.73       -126.9078
218.19       -566.4351
218.65       -12409.99
219.11       -914.1566
219.57       -236.1138
220.02       -123.3901
220.48       -180.7336
220.94        189.2527
221.40        56.61454
221.86        38.30555
222.32        34.76455
222.77        36.60323
223.23         43.5879
223.69        54.37682
224.15        56.16832
224.61        43.59267
225.06        28.05634
225.52        18.02923
225.98        15.51061
226.44        18.96738
226.90        27.55596
227.36        40.10447
227.81        49.79404
228.27        51.52721
228.73        48.22015
229.19        43.06715
229.65        38.73768
230.10        35.68859
230.56        33.42279
231.02        31.97662
231.48        31.67608
231.93        32.27956
232.39         33.5939
232.85        35.19442
233.31        36.46471
233.77         37.2567
234.22        37.71812
234.68        37.95994
235.14        38.15657
235.60        38.40978
236.05        38.72562
236.51        39.08445
236.97        39.60313
237.43        40.24492
237.88        41.08729
238.34        42.18521
238.80        43.63869
239.26        45.76356
239.71        51.13688
240.17        57.82091
240.63        66.66264
241.08        71.95328
241.54        70.25311
242.00        65.54985
242.46        64.37536
242.91           68.73
243.37        79.57027
243.83        99.08834
244.28        116.7209
244.74        109.8394
245.20        82.44268
245.66        54.74501
246.11        41.54914
246.57        41.19981
247.03        46.94497
247.48        53.28331
247.94        55.06117
248.40        52.01141
248.85        46.17397
249.31        39.40762
249.77        35.65976
250.22        36.38282
250.68        39.33139
251.14        43.44962
251.59        49.12193
252.05        57.41626
252.51        70.17263
252.96        88.13197
253.42        103.8642
253.88        107.8498
254.33        101.2452
254.79        90.06036
255.25        79.53784
255.70         71.7971
256.16        66.90752
256.62        64.40525
257.07        64.10079
257.53        65.46448
257.99        67.28838
258.44        68.45778
258.90        68.31979
259.35         66.6003
259.81        64.51308
260.27        62.13091
260.72        59.57569
261.18         57.4211
261.63        55.39073
262.09        53.96877
262.55         53.2768
263.00        53.07619
263.46        53.23907
263.91         53.3276
264.37        53.03083
264.83        52.24023
265.28        51.12189
265.74        49.85375
266.19        48.40143
266.65        46.94268
267.11        45.41544
267.56        44.01517
268.02         43.1137
268.47        42.67535
268.93        42.61525
269.38        42.60179
269.84        42.07411
270.30        40.95649
270.75        39.45193
271.21        37.97252
271.66        36.99967
272.12        36.62215
272.57        36.61456
273.03        36.72461
273.48        36.57835
273.94        36.08094
274.39        35.37405
274.85        34.55615
275.31        33.66124
275.76        32.73759
276.22        31.83006
276.67        31.03634
277.13        30.61205
277.58         30.4846
278.04        30.58357
278.49        30.65171
278.95        30.35015
279.40        29.60401
279.86        28.64948
280.31        27.63126
280.77        26.83604
281.22        26.25388
281.68        25.84678
282.13        25.55603
282.59        25.37222
283.04        25.25357
283.50        25.22041
283.95        25.22773
284.41        25.23232
284.86        25.20604
285.32        25.18495
285.77        25.14513
286.22        25.11937
286.68        25.12375
287.13        25.11031
287.59        25.13711
288.04         25.2418
288.50        25.43701
288.95        25.68107
289.41        25.89584
289.86        25.90671
290.32        25.72592
290.77         25.4188
291.22        25.13469
291.68        25.07285
292.13        25.27995
292.59        25.73654
293.04        26.38034
293.50        27.11021
293.95        27.87301
294.40         28.6939
294.86        29.61851
295.31        30.72211
295.77        32.02409
296.22        33.47663
296.68        34.99358
297.13        36.42102
297.58        37.68668
298.04        38.85076
298.49        39.93836
298.95        41.05996
299.40        42.24602
299.85        43.48334
300.31        44.84758
300.76         46.4125
301.21        48.18115
301.67        50.13094
302.12        52.07955
302.58        53.77109
303.03        55.11923
303.48        56.20967
303.94         57.2581
304.39        58.51304
304.84        60.07174
305.30        61.84289
305.75        63.65379
306.20         65.2767
306.66        66.65887
307.11        67.83723
307.57        68.91602
308.02        69.92632
308.47        70.94333
308.93        71.95271
309.38        72.96095
309.83        74.07065
310.29        75.28478
310.74        76.55421
311.19        77.78438
311.65        78.80165
312.10        79.53793
312.55         80.0388
313.00        80.37947
313.46        80.69707
313.91        81.02097
314.36        81.36034
314.82        81.71369
315.27         82.0471
315.72        82.37243
316.18         82.7105
316.63        83.10264
317.08        83.62156
317.53         84.2662
317.99         84.9864
318.44         85.6954
318.89        86.20292
319.35        86.45675
319.80        86.50704
320.25        86.45189
320.70        86.47321
321.16        86.61014
321.61        86.83222
322.06        87.06982
322.51        87.20841
322.97        87.21573
323.42        87.17263
323.87        87.11305
324.32        87.09682
324.78        87.14033
325.23        87.24734
325.68        87.43359
326.13        87.74264
326.59        88.14445
327.04        88.66872
327.49        89.21223
327.94        89.63653
328.39        89.89619
328.85        89.97725
329.30        90.01128
329.75        90.10909
330.20        90.31312
330.66        90.57378
331.11        90.86035
331.56         91.0118
332.01        91.01119
332.46        90.92142
332.92        90.83459
333.37        91.00777
333.82        91.45963
334.27        92.11575
334.72        92.86375
335.17        93.51374
335.63        93.96042
336.08        94.29432
336.53        94.49801
336.98        94.60027
337.43        94.63468
337.88        94.60121
338.34        94.56171
338.79        94.64193
339.24        94.87466
339.69        95.26418
340.14        95.76558
340.59        96.28526
341.05        96.78873
341.50        97.29481
341.95        97.83881
342.40        98.49792
342.85        99.26548
343.30        100.0828
343.75        100.8417
344.20        101.3818
344.66         101.686
345.11        101.8029
345.56        101.8302
346.01        101.9114
346.46         102.106
346.91        102.3807
347.36        102.7459
347.81        103.2141
348.26        103.7599
348.72        104.3702
349.17        104.9522
349.62        105.3766
350.07        105.6121
350.52         105.698
350.97        105.6748
351.42        105.6236
351.87        105.5737
352.32        105.4855
352.77        105.4064
353.22        105.4137
353.67        105.5035
354.13        105.6825
354.58        105.7716
355.03         105.553
355.48        105.0134
355.93        104.2567
356.38        103.4884
356.83        103.0299
357.28        102.9543
357.73        103.1457
358.18        103.4697
358.63        103.7038
359.08        103.7539
359.53        103.6718
359.98        103.4344
360.43        103.0167
360.88        102.4282
361.33         101.655
361.78        100.7996
362.23        100.0284
362.68        99.38309
363.13        98.85522
363.58        98.32394
364.03        97.58408
364.48        96.61821
364.93         95.5106
365.38        94.46706
365.83        93.79088
366.28        93.53214
366.73        93.58345
367.18        93.71345
367.63        93.55561
368.08        93.00717
368.53        92.16602
368.98        91.22604
369.43        90.47854
369.88        89.99781
370.33        89.71072
370.78        89.44953
371.23        88.94801
371.68        88.15739
372.13        87.17476
372.58        86.24341
373.03        85.71423
373.48        85.63818
373.93         85.8928
374.38        86.17252
374.83        85.98257
375.28        85.20943
375.72        83.99364
376.17        82.71442
376.62        81.79794
377.07        81.33918
377.52        81.20153
377.97        81.16497
378.42        80.88552
378.87        80.28539
379.32        79.49367
379.77         78.7079
380.22        78.18581
380.67        77.96668
381.11        77.97504
381.56        77.99069
382.01          77.726
382.46        77.12316
382.91        76.29333
383.36        75.46349
383.81        74.95264
384.26        74.81345
384.71        74.94062
385.15        75.11462
385.60        75.01424
386.05        74.55945
386.50        73.86737
386.95        73.13673
387.40        72.66349
387.85        72.50872
388.29        72.52761
388.74         72.6315
389.19        72.53769
389.64        72.18855
390.09        71.67155
390.54        71.11671
390.98        70.65703
391.43        70.37057
391.88        70.32622
392.33        70.41238
392.78        70.09367
393.23        69.51906
393.67        69.54921
394.12        70.07441
394.57        69.94859
395.02        69.25009
395.47        68.97619
395.91        69.14172
396.36        69.05815
396.81        68.73938
397.26        68.55714
397.71        68.48871
398.15         68.3529
398.60        68.21974
399.05        67.97797
399.50        67.70078
399.95        67.72324
400.39        67.96378
400.84        67.79744
401.29        67.28149
401.74        66.94034
402.18        66.81667
402.63        66.67923
403.08        66.61948
403.53        66.30969
403.97        66.67995
404.42        66.88685
404.87        67.12185
405.32        67.18906
405.76        67.04203
406.21         66.8685
406.66        66.64529
407.11        66.13955
407.55        65.53168
408.00        65.29679
408.45        65.43597
408.90        65.65025
409.34        65.74356
409.79        65.40038
410.24        64.78943
410.68         64.5546
411.13        64.74438
411.58        64.97445
412.03        65.09621
412.47        65.06277
412.92        64.81239
413.37        64.37685
413.81        63.92631
414.26        63.78166
414.71        63.96057
415.15        64.42292
415.60         64.9192
416.05        65.08592
416.49        64.82896
416.94        64.28678
417.39         63.7254
417.83        63.52722
418.28         63.7768
418.73        64.33234
419.17        64.99999
419.62        65.40291
420.07        65.42819
420.51        65.17645
420.96        64.79749
421.41        64.42376
421.85          64.098
422.30        63.90134
422.74        63.77045
423.19        63.64038
423.64        63.52362
424.08        63.65731
424.53        64.00856
424.98        64.35369
425.42        64.65002
425.87        65.08413
426.31        65.57097
426.76        65.57841
427.21         65.2486
427.65        65.39283
428.10        65.89008
428.54         66.0313
428.99        65.86577
429.44        65.48894
429.88        65.08404
430.33        65.56295
430.77        66.48795
431.22        66.31204
431.66        65.21138
432.11        64.83236
432.56        65.22203
433.00        65.63789
433.45        65.92204
433.89        66.30906
434.34        63.80453
434.78        66.69581
435.23        66.43723
435.67        64.85905
436.12        65.29287
436.57        65.32351
437.01        66.21752
437.46        67.44016
437.90        67.18309
438.35        66.10561
438.79        66.76988
439.24        66.45963
439.68        66.10575
440.13        66.01163
440.57        66.19824
441.02        66.09493
441.46        65.73557
441.91         66.1298
442.35        66.92966
442.80        66.82478
443.24        66.03189
443.69        66.22315
444.13        67.22655
444.58        67.73396
445.02        67.26655
445.47        66.98576
445.91        66.90942
446.36        66.96507
446.80        67.16379
447.24        67.53339
447.69        67.93443
448.13        68.13039
448.58        68.08252
449.02        67.84246
449.47        67.54502
449.91        67.36102
450.36        67.35717
450.80        67.44843
451.25        67.58949
451.69        67.67673
452.13        67.68459
452.58        67.65434
453.02        67.58057
453.47        67.48066
453.91        67.35502
454.36        67.19571
454.80        67.01123
455.24        66.89672
455.69        66.88793
456.13        66.84196
456.58        66.71399
457.02        66.96209
457.46        66.61648
457.91        66.51403
458.35        66.34984
458.79         66.3746
459.24        66.53682
459.68        66.23595
460.13        65.58528
460.57         65.4676
461.01        66.04633
461.46         65.1777
461.90        65.69646
462.34        65.86358
462.79        65.21303
463.23        64.90814
463.68        64.67977
464.12        64.65271
464.56        64.75443
465.01        64.95123
465.45         65.1241
465.89        65.10666
466.34        64.92731
466.78        64.95842
467.22        65.29034
467.67        64.73309
468.11        64.97417
468.55        64.91256
468.99        64.99384
469.44        64.92461
469.88        64.71085
470.32         64.4552
470.77        64.21033
471.21          64.087
471.65        64.08678
472.10        64.16753
472.54        64.27268
472.98        64.29107
473.42        64.18604
473.87        64.16184
474.31        64.12717
474.75        63.66312
475.20        62.97686
475.64        62.82783
476.08        63.16398
476.52        63.30397
476.97        63.20087
477.41        63.24421
477.85        63.31779
478.29        63.87592
478.74        63.34103
479.18        64.10416
479.62         63.9938
480.06        64.05202
480.50        63.71387
480.95        63.53819
481.39         63.6555
481.83        62.63987
482.27        62.98082
482.72        63.23193
483.16        63.15676
483.60        63.37001
484.04        63.70252
484.48        63.59806
484.93        63.02008
485.37        64.13422
485.81        65.06165
486.25        63.79986
486.69        66.37899
487.14        66.41129
487.58         63.1707
488.02        63.47683
488.46        64.22043
488.90        62.79631
489.34        63.48491
489.79         63.1056
490.23        63.17636
490.67        63.41998
491.11        63.76274
491.55        63.76737
491.99        63.42764
492.43        63.27478
492.88        63.33734
493.32        63.38592
493.76         63.3758
494.20        63.34874
494.64        63.29055
495.08         63.2262
495.52        63.21061
495.96        63.17646
496.41        63.14709
496.85        63.47961
497.29        63.99556
497.73        63.79074
498.17        63.01445
498.61        62.94388
499.05        63.51578
499.49        63.46386
499.93        62.84716
500.37        62.68187
500.82        62.95213
501.26        63.01487
501.70        62.85142
502.14         62.7938
502.58         62.8573
503.02         62.9166
503.46        62.96542
503.90        63.03968
504.34        63.09739
504.78         63.0634
505.22        62.91947
505.66        62.70944
506.10        62.49015
506.54        62.35521
506.98        62.32584
507.42        62.65905
507.86        62.27892
508.30        63.01927
508.74        62.47566
509.18        62.38803
509.62        62.21678
510.06        62.17397
510.50        62.28316
510.94        62.50489
511.38        62.73934
511.82        62.76627
512.26         62.5513
512.70        62.17195
513.14        61.76367
513.58        61.53629
514.02        61.53833
514.46        61.69545
514.90        61.91979
515.34        62.06496
515.78        62.08632
516.22        62.04676
516.66        61.96018
517.10        61.84531
517.54        61.72482
517.98        61.57934
518.42         61.4861
518.86        61.57522
519.30        61.85483
519.74        62.28392
520.18        62.71288
520.62        62.89289
521.06        62.76844
521.50        62.41476
521.93         61.9806
522.37        61.72218
522.81        61.70098
523.25        61.84246
523.69        62.04805
524.13        62.15879
524.57        62.13273
525.01        62.03389
525.45        61.91443
525.89        61.84998
526.32        61.86008
526.76        61.91539
527.20        62.00285
527.64        62.11578
528.08         62.2414
528.52        62.38286
528.96        62.50352
529.40        62.54476
529.83        62.48635
530.27        62.35266
530.71        62.19228
531.15        62.09245
531.59        62.07397
532.03        62.12433
532.46        62.17968
532.90        62.13693
533.34        61.98893
533.78        61.78664
534.22        61.61565
534.66         61.5992
535.09        61.74131
535.53        61.99054
535.97        62.27502
536.41        62.43553
536.85        62.42044
537.28        62.44209
537.72        62.46477
538.16        62.04868
538.60        61.41276
539.04        61.41484
539.47        61.94504
539.91        62.14149
540.35        61.95539
540.79        61.88539
541.22        61.91547
541.66        61.93294
542.10        61.77831
542.54        61.55756
542.97        61.31068
543.41        61.42006
543.85        61.79259
544.29        61.92163
544.72        61.78305
545.16        61.76207
545.60        61.84605
546.04        61.83053
546.47        61.71828
546.91        61.62144
547.35        61.57266
547.79        61.57333
548.22        61.63182
548.66        61.81148
549.10        62.05857
549.53        62.28262
549.97        62.41621
550.41        62.43521
550.84        62.30272
551.28        62.05706
551.72        61.79122
552.15        61.50006
552.59        61.21585
553.03        61.58992
553.46        61.38754
553.90        61.49547
554.34         61.4874
554.77        61.55012
555.21        61.77493
555.65        61.30518
556.08        61.84506
556.52        61.99569
556.96        62.18038
557.39        62.22168
557.83        62.16581
558.27        62.09859
558.70        62.03869
559.14        62.08019
559.57        62.16717
560.01          62.087
560.45        61.87687
560.88        61.84639
561.32        61.98578
561.75        61.96459
562.19        61.85555
562.63         61.7761
563.06        61.76558
563.50        62.14352
563.93        62.71262
564.37        62.55033
564.80        61.81918
565.24        61.78345
565.68        62.34137
566.11        62.40129
566.55        62.15284
566.98        61.87957
567.42        61.74253
567.85        62.01295
568.29         62.2119
568.72        62.33241
569.16        62.31594
569.60         62.3928
570.03        62.51241
570.47        62.69151
570.90        62.95206
571.34        62.50834
571.77        63.19912
572.21        62.93716
572.64        63.01554
573.08         62.5327
573.51        63.26987
573.95        63.05005
574.38        62.68655
574.82        62.10641
575.25        63.52195
575.69        63.70425
576.12        63.47445
576.56         62.5863
576.99        62.52447
577.42        63.58314
577.86        63.26123
578.29         63.3872
578.73        63.68135
579.16        63.72094
579.60        63.56461
580.03        63.46106
580.47        63.36651
580.90        63.48534
581.33         62.6472
581.77        63.32768
582.20        64.37293
582.64        64.09722
583.07        64.17484
583.51        63.50275
583.94        63.18916
584.37        62.87952
584.81        62.92643
585.24        62.86718
585.68        63.62793
586.11        63.45125
586.54        63.50592
586.98        62.72245
587.41        62.27415
587.85        63.12145
588.28        63.42166
588.71        62.73925
589.15        62.45256
589.58        63.22657
590.01        62.24952
590.45        62.23602
590.88        62.59729
591.31        62.90805
591.75        63.05049
592.18        62.80716
592.61        62.49596
593.05        62.01224
593.48        63.42521
593.91        63.55227
594.35         63.5116
594.78        63.25136
595.21        63.04483
595.65        62.93917
596.08        62.87005
596.51         63.3697
596.94         63.2805
597.38        63.21093
597.81        62.75816
598.24        63.18915
598.68        63.01745
599.11        62.02701
599.54         63.7635
599.97        63.23814
600.41        63.25868
600.84        63.09927
601.27        63.25836
601.70        62.92184
602.14        62.79425
602.57        62.68554
603.00        62.72675
603.43         63.2218
603.87        62.94552
604.30        63.03722
604.73        63.21599
605.16        62.58128
605.60        62.27138
606.03        62.35492
606.46        63.02465
606.89        62.74904
607.32        63.05009
607.76        62.33344
608.19        62.95607
608.62        62.99218
609.05        62.91124
609.48        62.79253
609.92        62.93448
610.35        62.17566
610.78        63.64848
611.21        64.12558
611.64        63.66925
612.07        63.45726
612.50         63.3713
612.94        63.14359
613.37        62.78122
613.80        63.00052
614.23        62.77608
614.66        62.75191
615.09        62.68484
615.52        62.82845
615.96        63.10023
616.39        63.28615
616.82        63.39806
617.25         62.9617
617.68        63.36889
618.11        62.90691
618.54        62.22295
618.97        62.07537
619.40         62.4895
619.84        62.79999
620.27        62.87787
620.70        63.13876
621.13        63.52123
621.56        62.85928
621.99        62.27783
622.42        62.22247
622.85        62.92279
623.28        62.73526
623.71        62.23023
624.14        62.38339
624.57        61.98089
625.00        62.01771
625.43        62.27048
625.86        62.37802
626.29        62.23806
626.72        63.13459
627.15        62.68121
627.58        62.79491
628.01        62.75562
628.44        62.61621
628.87        62.44303
629.30        62.12343
629.73        62.27756
630.16        62.26027
630.59        62.17057
631.02        62.19609
631.45        62.32182
631.88        62.38451
632.31        62.33896
632.74        62.60147
633.17        62.46334
633.60        62.44482
634.03           62.34
634.46        62.17699
634.89        61.98333
635.32        61.82029
635.75        61.71374
636.18        61.64572
636.61        61.60893
637.04        61.59048
637.47        61.58602
637.89        61.58863
638.32        61.56859
638.75        61.57101
639.18        61.60691
639.61        61.43628
640.04        61.49262
640.47        61.44076
640.90        61.41544
641.33        61.40326
641.76        61.42564
642.18        61.51767
642.61        61.65359
643.04        61.82896
643.47        61.99984
643.90        62.09649
644.33        62.09602
644.76        62.02185
645.18        61.92035
645.61        61.78565
646.04        61.63432
646.47        61.61665
646.90        61.76545
647.33        61.40135
647.75        61.68436
648.18         61.6447
648.61        61.67495
649.04        61.85187
649.47        62.15129
649.89        62.48108
650.32        62.70024
650.75        62.65757
651.18        62.40633
651.61        62.15528
652.03        62.02443
652.46         62.1033
652.89        62.24968
653.32        62.27306
653.74        62.36741
654.17        61.92938
654.60         61.3354
655.03        62.79704
655.46        61.83346
655.88        61.60543
656.31        64.11607
656.74        69.89958
657.16        67.61343
657.59        64.22725
658.02        63.40689
658.45        63.50548
658.87         63.7795
659.30        62.23606
659.73        62.20717
660.15        62.71111
660.58        62.16678
661.01        62.19883
661.44        62.00725
661.86        61.74394
662.29        61.43658
662.72        61.55729
663.14        62.02147
663.57        61.92292
664.00        61.38235
664.42        61.36627
664.85        61.84689
665.27        62.01055
665.70        61.82489
666.13        61.79062
666.55        61.91386
666.98        61.92281
667.41         61.8438
667.83        61.81791
668.26        61.84962
668.69        61.92649
669.11        61.98042
669.54        61.88952
669.96        61.64544
670.39        61.30736
670.82        61.02774
671.24        60.98983
671.67        61.23432
672.09        61.77641
672.52        62.45036
672.94        62.57835
673.37        62.77983
673.80        62.37938
674.22        61.80994
674.65        61.55422
675.07        61.71552
675.50        62.06585
675.92        62.45122
676.35        62.64885
676.77        62.59869
677.20        62.38299
677.62        62.11744
678.05        61.98313
678.47        62.02513
678.90        62.17926
679.32        62.37703
679.75        62.56737
680.17        62.72194
680.60        62.78257
681.02        62.73323
681.45        62.92346
681.87         62.7028
682.30        62.63896
682.72        62.56261
683.15        62.42348
683.57         62.2888
684.00        62.38697
684.42        62.65803
684.85        62.78428
685.27         62.7291
685.70        62.62154
686.12        62.50366
686.54        62.52527
686.97        62.65227
687.39        62.66572
687.82        62.53703
688.24        62.49009
688.66        62.51022
689.09        62.31622
689.51        62.09483
689.94         62.0687
690.36        62.31882
690.78        62.59798
691.21        62.73574
691.63        63.33954
692.06        62.78832
692.48        62.91537
692.90        63.20343
693.33        63.28205
693.75        63.15099
694.17        62.96066
694.60        62.77664
695.02        63.09979
695.44        63.04821
695.87         63.3558
696.29        63.65086
696.71        63.68834
697.14        63.45016
697.56        63.09312
697.98        62.77627
698.41        62.63525
698.83        62.68475
699.25         62.9323
699.68        63.23759
700.10        63.41524
700.52        63.38481
700.94         63.2123
701.37        62.97873
701.79        62.83926
702.21        62.82442
702.64        62.88553
703.06        62.97327
703.48        63.01543
703.90        62.99742
704.33         62.9579
704.75        62.91761
705.17        62.88975
705.59        62.88326
706.01        62.87647
706.44        62.90499
706.86        63.04326
707.28         63.2699
707.70        63.60396
708.12        63.93633
708.55        63.98588
708.97        63.76848
709.39        63.58304
709.81        63.49803
710.23        63.42082
710.66        63.38513
711.08        63.50602
711.50        63.71832
711.92        63.86959
712.34        63.92976
712.76         63.9398
713.19        63.91217
713.61        63.92462
714.03        63.96535
714.45         64.0023
714.87        64.01595
715.29        63.98322
715.71        63.89714
716.13        63.77533
716.56        63.60698
716.98        63.43967
717.40        63.27407
717.82        63.11821
718.24        63.00689
718.66        62.99276
719.08         63.0779
719.50        63.23502
719.92        63.42636
720.34        63.58926
720.76        63.70293
721.19        63.77363
721.61        63.79811
722.03        63.77352
722.45        63.73822
722.87        63.54766
723.29        63.26362
723.71        63.41671
724.13        64.03128
724.55         63.5707
724.97         63.9828
725.39        63.93781
725.81        64.01647
726.23        63.99329
726.65        63.91136
727.07        63.89514
727.49        63.94548
727.91        64.04572
728.33        64.17341
728.75        64.29452
729.17        64.39288
729.59        64.47499
730.01        64.55089
730.43          64.633
730.85        64.72063
731.27        64.80521
731.69        64.85838
732.10        64.84577
732.52        64.76218
732.94        64.61642
733.36          64.448
733.78        64.34399
734.20         64.3358
734.62        64.34963
735.04         64.4268
735.46        64.49879
735.88        64.42692
736.30        64.33969
736.72        64.26513
737.13         64.2752
737.55        64.33492
737.97        64.61913
738.39        65.00454
738.81        64.82493
739.23        64.25327
739.65         64.4235
740.06        65.16117
740.48        65.30705
740.90        64.79971
741.32          64.292
741.74        63.96345
742.16        63.81303
742.57        63.91381
742.99         64.2467
743.41        64.68913
743.83        65.02251
744.25        65.17793
744.67        65.19579
745.08        65.15527
745.50        65.15186
745.92        65.23324
746.34        65.35323
746.75        65.44762
747.17        65.44344
747.59        65.31987
748.01        65.09669
748.42        64.85762
748.84        64.72796
749.26        64.69776
749.68        64.76897
750.09        64.89485
750.51        64.73079
750.93        64.45644
751.35        64.92683
751.76        65.94534
752.18        66.30402
752.60        65.90494
753.01        65.38881
753.43        64.96469
753.85        64.73739
754.27        64.77818
754.68        65.01982
755.10        65.35558
755.52        65.61549
755.93        65.77473
756.35        65.93147
756.77        66.00665
757.18          66.034
757.60        66.06756
758.02        65.57626
758.43        64.90496
758.85         65.7627
759.26        67.75309
759.68        67.97544
760.10        66.53807
760.51        65.82156
760.93        66.13969
761.34        66.06227
761.76        66.48718
762.18         66.3679
762.59        66.13832
763.01        65.71281
763.42        66.44727
763.84        66.42848
764.26        66.08017
764.67        65.72365
765.09         65.5073
765.50        65.65565
765.92        66.05331
766.33        65.86708
766.75        65.12255
767.16         65.3849
767.58        65.73583
768.00         66.2476
768.41         66.5405
768.83        67.02335
769.24        67.45872
769.66        67.05682
770.07        66.05547
770.49        65.41187
770.90         65.2915
771.32         65.5658
771.73        66.08842
772.15        66.44841
772.56          66.587
772.97         66.7287
773.39        66.87352
773.80        66.97916
774.22        67.01408
774.63        67.02366
775.05        66.97049
775.46        66.85831
775.88        66.68079
776.29        66.46884
776.70        66.27977
777.12        66.21095
777.53        66.29868
777.95        66.49519
778.36        66.72034
778.77        66.80388
779.19        66.72211
779.60        66.54601
780.02        66.35535
780.43        66.31238
780.84        66.47189
781.26        66.64709
781.67        66.86992
782.09        67.38359
782.50        68.07176
782.91         68.2416
783.33        68.30869
783.74        68.22984
784.15        68.12365
784.57        67.77251
784.98        67.31013
785.39        67.05817
785.81         67.0742
786.22         67.2895
786.63        67.56362
787.04        67.65817
787.46        67.53941
787.87        67.25816
788.28        66.98219
788.70        66.94411
789.11        67.16791
789.52        67.58874
789.93        68.04802
790.35        68.26917
790.76        68.19864
791.17        67.95403
791.58        67.69171
792.00        67.51637
792.41        67.48615
792.82        68.00267
793.23        68.25564
793.65        68.52953
794.06        68.63245
794.47        68.91273
794.88           69.23
795.29        69.25879
795.71        68.76414
796.12        68.21662
796.53        67.72192
796.94        67.29455
797.35        67.11781
797.76        67.65398
798.18        68.61934
798.59        69.09254
799.00        68.89812
799.41        68.45847
799.82        68.00736
800.23        67.77982
800.64        67.86896
801.06        68.15678
801.47         68.5574
801.88          68.811
802.29        68.82763
802.70        68.67993
803.11        68.45172
803.52        68.26848
803.93        68.17899
804.34        68.15102
804.75        68.14391
805.17        68.09387
805.58        68.01129
805.99        67.89614
806.40        67.82364
806.81        67.90736
807.22        68.14577
807.63        68.49727
808.04        68.84482
808.45        68.95706
808.86        68.77257
809.27        68.35968
809.68        67.89301
810.09        67.67561
810.50        67.79172
810.91        68.15751
811.32        68.60103
811.73        68.83073
812.14        68.76229
812.55        68.48515
812.96        68.13071
813.37        67.92895
813.78        67.95649
814.19        68.13279
814.60        68.37077
815.01        68.55079
815.42        68.63538
815.83        68.66297
816.24        68.66106
816.65        68.67253
817.05        68.71485
817.46        68.73193
817.87        68.72987
818.28        68.67392
818.69        68.56305
819.10        68.42043
819.51         68.2872
819.92        68.23264
820.33        68.27597
820.74         68.3856
821.14        68.53104
821.55        68.68835
821.96        68.83026
822.37        68.97296
822.78        69.07986
823.19        69.08568
823.60        68.98791
824.00        68.82336
824.41        68.65009
824.82        68.64568
825.23        68.84461
825.64         69.1951
826.04        69.63183
826.45        69.94182
826.86        70.09079
827.27        70.12902
827.68        70.07198
828.08        69.97299
828.49        69.82014
828.90        69.61415
829.31        69.43335
829.72        69.41026
830.12        69.59536
830.53        69.90832
830.94        70.23448
831.35        70.31581
831.75        70.10409
832.16        69.62893
832.57        69.08266
832.97        68.74418
833.38        68.69247
833.79        68.84841
834.20        69.08524
834.60        69.19604
835.01        69.14246
835.42        68.99116
835.82        68.84302
836.23         68.8111
836.64        68.94366
837.04        69.21227
837.45        69.49771
837.86        69.72465
838.26        69.86639
838.67        69.91169
839.08        69.88686
839.48         69.8102
839.89        69.69179
840.29        69.49423
840.70        69.28222
841.11        69.09542
841.51        68.96545
841.92        68.90867
842.33        68.85191
842.73        68.67163
843.14        68.31993
843.54        67.85754
843.95        67.51056
844.35        67.67004
844.76        68.35481
845.17        69.46668
845.57        70.66467
845.98        71.20887
846.38        70.95844
846.79        70.12318
847.19        69.08936
847.60        68.48984
848.00        68.47949
848.41        68.84643
848.81          69.441
849.22         69.9083
849.62        70.16711
850.03        70.27035
850.43        70.25787
850.84        70.06562
851.24        69.76205
851.65        69.32906
852.05        68.87633
852.46        68.58994
852.86        68.48727
853.27        68.54993
853.67        68.68741
854.07        68.94607
854.48         69.2489
854.88         69.6637
855.29        69.92984
855.69        69.79475
856.10        69.11595
856.50         68.0715
856.90        67.00356
857.31        66.44418
857.71        66.54419
858.12        67.13156
858.52        68.01269
858.92        68.62106
859.33        68.74483
859.73          68.564
860.13        68.24037
860.54        68.07289
860.94        68.17821
861.34        68.41375
861.75        68.64213
862.15        68.75076
862.55        68.65396
862.96         68.4384
863.36        68.14665
863.76        67.84156
864.17        67.55549
864.57        67.30157
864.97        67.09149
865.38        66.93049
865.78         66.8539
866.18        66.83047
866.58        66.87081
866.99        66.98672
867.39        67.17308
867.79        67.38417
868.19        67.52641
868.60        67.43922
869.00          67.119
869.40        66.64829
869.80        66.13713
870.21        65.78911
870.61        65.71252
871.01        65.81429
871.41        66.09862
871.81        66.57376
872.22        67.18056
872.62        67.95377
873.02        68.71423
873.42        69.11125
873.82        69.04679
874.22        68.62122
874.63        68.08603
875.03        67.80116
875.43        67.86171
875.83        68.13682
876.23        68.52029
876.63        68.81168
877.03         68.9466
877.44         69.0543
877.84        69.03709
878.24        68.75697
878.64        68.23026
879.04        67.45397
879.44        66.78775
879.84        66.76823
880.24         67.4403
880.64        68.67466
881.04        69.87429
881.44        69.96613
881.84        68.75224
882.24        66.66249
882.65        64.54032
883.05        63.48423
883.45        63.76327
883.85        65.04073
884.25        66.79946
884.65         68.0782
885.05        68.50485
885.45        68.34357
885.85        67.89168
886.25        67.61031
886.65        67.63545
887.05        67.77753
887.45        67.90318
887.85        67.83822
888.25        67.54421
888.65        67.15097
889.04        66.75106
889.44        66.48022
889.84        66.37372
890.24         66.4017
890.64        66.55306
891.04        66.81673
891.44         67.1585
891.84        67.54832
892.24        67.95861
892.64        68.34663
893.04        68.70087
893.44         69.0473
893.83        69.33583
894.23         69.4107
894.63        69.28363
895.03        68.94663
895.43        68.63204
895.83        68.70553
896.23        69.21758
896.63        70.08849
897.02        70.89047
897.42        70.92412
897.82        70.08962
898.22        68.62441
898.62        67.13818
899.01        66.48571
899.41        66.84836
899.81        68.01447
900.21        69.40572
900.61        69.93131
901.00        69.28371
901.40        67.88515
901.80        66.47076
902.20        66.04468
902.59        66.81829
902.99          68.466
903.39        70.39951
903.79        71.38614
904.18        71.00353
904.58        69.69645
904.98        68.19213
905.38        67.47744
905.77        67.74027
906.17        68.67618
906.57        69.82869
906.96        70.48965
907.36        70.39014
907.76        69.77895
908.15        68.99966
908.55        68.53379
908.95        68.56478
909.34        68.90198
909.74        69.30373
910.14        69.38118
910.53        69.05373
910.93         68.5006
911.33        67.94008
911.72         67.7223
912.12         67.9216
912.52         68.3832
912.91        68.95319
913.31        69.37011
913.70        69.56685
914.10        69.58343
914.49        69.43893
914.89         69.0904
915.29        68.60397
915.68        68.00373
916.08        67.46058
916.47        67.19163
916.87        67.26677
917.26        67.57613
917.66        68.02528
918.05        68.45155
918.45        68.76113
918.84        69.04227
919.24         69.1492
919.64         68.9652
920.03        68.50226
920.42        67.79408
920.82        67.13509
921.21          66.822
921.61        66.91293
922.00        67.37215
922.40        67.94922
922.79        68.29347
923.19        68.25052
923.58        67.93483
923.98        67.58809
924.37        67.53893
924.77        67.86244
925.16        68.47375
925.55        69.14243
925.95        69.45208
926.34        69.32538
926.74        68.87429
927.13         68.3324
927.52        68.04819
927.92        68.10508
928.31        68.37602
928.70         68.7215
929.10         68.8933
929.49        68.83958
929.89        68.66952
930.28        68.46336
930.67        68.29977
931.07        68.21263
931.46        68.16965
931.85        68.26276
932.24        68.67553
932.64        69.37976
933.03        70.37524
933.42        71.34064
933.82        71.75687
934.21        71.53601
934.60        70.81612
934.99        69.96661
935.39        69.53551
935.78        69.64294
936.17        70.09978
936.56        70.67771
936.96        70.99307
937.35        70.95964
937.74        70.70683
938.13        70.23431
938.53        69.52397
938.92        68.64686
939.31        67.70047
939.70        66.96412
940.09        66.87943
940.49        67.45686
940.88        68.54078
941.27        69.89632
941.66        71.09052
942.05         71.8734
942.44        72.34466
942.84        72.21727
943.23        71.06754
943.62           69.06
944.01        66.53198
944.40        64.27847
944.79        63.28713
945.18        63.67996
945.57        65.21689
945.97        67.32698
946.36        69.05614
946.75        69.81812
947.14         69.8648
947.53        69.51562
947.92        69.35986
948.31        69.57368
948.70        69.85072
949.09         70.1571
949.48        70.49469
949.87        70.80966
950.26         71.2113
950.65        71.39603
951.04        70.82277
951.43        69.48634
951.82        67.59866
952.21        65.80992
952.60        65.10481
952.99        65.65251
953.38        67.14563
953.77        68.92982
954.16        69.86189
954.55        69.58112
954.94        68.40427
955.33         66.8217
955.72        65.65357
956.11        65.18573
956.50         65.2034
956.89        65.47495
957.28        65.62399
957.66        65.55216
958.05        65.41001
958.44        65.39751
958.83        65.78809
959.22        66.61398
959.61        67.70285
960.00        68.80141
960.39        69.50481
960.78        69.66746
961.16        69.41241
961.55        68.85814
961.94        68.18764
962.33        67.51949
962.72        66.83205
963.11        66.28062
963.49        66.13251
963.88        66.38149
964.27        66.98808
964.66        67.72855
965.04        68.21519
965.43        68.27921
965.82        68.05325
966.21         67.6647
966.60        67.35746
966.98        67.22781
967.37        67.14725
967.76          67.144
968.15        67.25279
968.53        67.46982
968.92        67.78291
969.31        68.03879
969.69        67.94961
970.08        67.44682
970.47        66.63207
970.86        65.81045
971.24        65.47227
971.63        65.74759
972.02        66.57784
972.40        67.68888
972.79        68.51981
973.17        68.96775
973.56        69.08205
973.95        69.27136
974.33        70.21696
974.72         71.9538
975.11         74.2822
975.49        76.68423
975.88        77.93707
976.26        77.62323
976.65        76.07984
977.04        73.82617
977.42        71.52428
977.81        69.48566
978.19         67.5541
978.58        65.95505
978.96         64.8429
979.35        64.25155
979.74         64.1373
980.12        64.35096
980.51        64.46058
980.89        64.42751
981.28        64.36848
981.66        64.32414
982.05        64.32883
982.43        64.44548
982.82        64.54016
983.20        64.96131
983.59        66.30547
983.97        68.70204
984.35        72.02192
984.74         75.2104
985.12        76.55415
985.51        75.41953
985.89        72.47736
986.28        69.10196
986.66        66.91115
987.04         66.3586
987.43        66.86448
987.81        68.02533
988.20        68.88087
988.58        69.10826
988.96        69.11936
989.35        68.70965
989.73         67.6446
990.12        65.99788
990.50        63.76973
990.88        61.86366
991.27        61.65554
991.65        63.40373
992.03        66.98149
992.42        71.01095
992.80        72.79298
993.18        71.22559
993.56        67.37885
993.95        63.42334
994.33         61.6419
994.71        62.51933
995.10         65.2931
995.48        69.03424
995.86        71.15155
996.24        70.56547
996.63        68.32111
997.01        65.55293
997.39        63.69863
997.77        63.14835
998.15        63.27457
998.54        64.15144
998.92        66.00323
999.30        68.66666
999.68        72.21783
1000.06          75.402
1000.45        75.84938
1000.83        73.29376
1001.21        68.48723
1001.59        63.43394
1001.97        60.86157
1002.35        61.29729
1002.73        64.05516
1003.12        67.98529
1003.50        70.93145
1003.88        71.94625
1004.26        71.60492
1004.64        70.62917
1005.02        70.22012
1005.40        70.67129
1005.78        71.38734
1006.16         71.8727
1006.54        71.41321
1006.92         69.7977
1007.30        67.44505
1007.69        64.60733
1008.07         61.9141
1008.45        59.89306
1008.83        58.50907
1009.21        57.99923
1009.59        58.58955
1009.97        60.24152
1010.35        63.07395
1010.73        66.50102
1011.11        68.88892
1011.49        69.35437
1011.86        67.87222
1012.24        65.86536
1012.62        65.67521
1013.00        67.99283
1013.38        72.70071
1013.76        77.88998
1014.14        78.64632
1014.52        73.97985
1014.90        66.79094
1015.28        60.66685
1015.66        58.67555
1016.04        60.90888
1016.41        66.82032
1016.79        75.08456
1017.17        82.16808
1017.55        85.25916
1017.93        84.67106
1018.31        80.69215
1018.69        75.21347
1019.06        69.92784
1019.44        65.29087
1019.82        61.79895
1020.20        59.58233
1020.58        58.32196
1020.95        58.12661
1021.33        58.76944
1021.71        59.63385
1022.09        60.34798
1022.46        60.54541
1022.84        61.04132
1023.22        63.02399
1023.60        66.93102
1023.97        73.35115
1024.35        80.00544
1024.73         80.0499
