SpectraSmart Spectrum 2.9.0.0
--------- Device Information -----------
Spectrum Name :  反射率_0
Saving Time :  2024/05/03 20:00:14
Spectro-Module Model Name : SE2030-DUVN
Spectro-Module Serial Number : OS361AC55029948
Wavelength Start : 200
Wavelength End : 1025
Wavelength Unit : Wavelength(nm)
Spectrum Unit : Reflectance(%)
-----------Spectrum Setting ------------
Integration Time : 20ms
Average : 10
Boxcar : 0
Background removal :  enabled
linearity correction :  enabled
SC :  disabled
Intensity correction :  disabled
DWT denoise :  enabled
savitzky-golay :  disabled
FFT :  disabled
Running average :  disabled
Kalman :  disabled
High pass :  disabled
---------------BEGIN--------------------
Wavelength(nm)             Reflectance(%)
200.29               0
200.75       -22.15915
201.21        -56.4593
201.67        2307.555
202.13        95.05018
202.58        59.07198
203.04        46.00202
203.50        41.45868
203.96         45.8506
204.42        63.99318
204.88        136.4948
205.34       -2476.277
205.80       -225.1816
206.26       -233.0345
206.72       -47745.26
207.18        143.1583
207.64         80.8503
208.10        75.26302
208.55        112.9495
209.01        549.2148
209.47        785.3799
209.93        145.5801
210.39        80.59298
210.85        64.22864
211.31        62.36211
211.77        69.10954
212.23        90.04102
212.69        147.1002
213.14        195.3341
213.60        127.1024
214.06        78.55907
214.52        60.26592
214.98        58.53076
215.44        71.31288
215.90        132.3984
216.36       -746.9667
216.81       -131.6861
217.27       -126.5289
217.73       -211.7383
218.19       -756.3227
218.65       -15157.64
219.11       -1109.138
219.57       -302.5717
220.02       -174.5176
220.48       -265.3307
220.94        257.2503
221.40        68.32554
221.86        41.82827
222.32        36.43071
222.77         38.9445
223.23        48.61777
223.69         65.6874
224.15         76.9446
224.61         71.2056
225.06        58.18267
225.52        48.72864
225.98         46.9433
226.44        51.62971
226.90        61.12144
227.36        72.95329
227.81          78.189
228.27        72.28481
228.73        61.04957
229.19        49.49733
229.65        40.85274
230.10        35.17072
230.56        31.47991
231.02        29.45307
231.48        29.07726
231.93        29.91083
232.39        31.68419
232.85        33.77955
233.31        35.33146
233.77        36.16107
234.22        36.46154
234.68        36.53754
235.14        36.93621
235.60        37.85666
236.05        39.19531
236.51         40.7473
236.97        42.16155
237.43        43.18097
237.88        44.02802
238.34        44.91014
238.80        46.12933
239.26        48.07975
239.71         53.1931
240.17        59.82739
240.63        69.57757
241.08        77.33311
241.54         78.8866
242.00        76.90219
242.46        77.73769
242.91        83.99778
243.37        96.88341
243.83        118.4442
244.28        135.8808
244.74        123.7426
245.20        88.69284
245.66        55.36795
246.11        40.49009
246.57        41.39218
247.03        50.21075
247.48        60.15941
247.94        65.13794
248.40        64.78023
248.85        61.46334
249.31        56.67355
249.77        53.24175
250.22        52.60786
250.68         53.4924
251.14        55.55356
251.59        59.45261
252.05        66.09595
252.51        77.18868
252.96        93.57726
253.42         108.759
253.88        113.7827
254.33        108.5033
254.79        98.79204
255.25        89.80049
255.70        83.03846
256.16        78.72812
256.62        75.71169
257.07         73.2185
257.53        71.32172
257.99        69.42629
258.44        67.46814
258.90        66.06801
259.35        64.75394
259.81        63.83957
260.27         62.6842
260.72        60.71379
261.18        58.48928
261.63        56.07199
262.09        54.11176
262.55        52.84447
263.00        52.08793
263.46        51.69648
263.91        51.28589
264.37        50.64423
264.83        49.68557
265.28         48.5316
265.74        47.35201
266.19        46.11271
266.65        44.93366
267.11        43.71356
267.56        42.53588
268.02        41.60964
268.47        40.88944
268.93        40.36399
269.38        39.79404
269.84        38.79471
270.30        37.37393
270.75        35.69461
271.21        34.19493
271.66        33.38983
272.12        33.33656
272.57        33.79239
273.03        34.35275
273.48        34.39132
273.94         33.7572
274.39        32.66642
274.85        31.38299
275.31        30.19662
275.76        29.21145
276.22        28.39162
276.67        27.72838
277.13        27.31525
277.58        27.06882
278.04        26.98842
278.49        26.91018
278.95        26.63312
279.40        26.09901
279.86        25.44514
280.31         24.7497
280.77        24.22051
281.22        23.82722
281.68        23.54983
282.13        23.30786
282.59        23.04854
283.04        22.74936
283.50        22.46536
283.95        22.22413
284.41        22.07984
284.86        22.03222
285.32        22.08634
285.77        22.19961
286.22        22.36464
286.68        22.56972
287.13        22.76979
287.59        22.98715
288.04        23.21741
288.50        23.46524
288.95        23.69637
289.41        23.86667
289.86        23.86255
290.32        23.71116
290.77         23.4684
291.22        23.25276
291.68        23.21734
292.13        23.40509
292.59        23.81394
293.04        24.42237
293.50        25.19126
293.95        26.07751
294.40         27.0818
294.86        28.20049
295.31         29.4398
295.77        30.80883
296.22        32.28828
296.68        33.83402
297.13        35.35777
297.58        36.80577
298.04         38.2137
298.49        39.58373
298.95        40.99701
299.40        42.47148
299.85        43.99748
300.31        45.65413
300.76        47.51658
301.21        49.59154
301.67        51.86594
302.12        54.13941
302.58        56.12868
303.03        57.74787
303.48        59.09025
303.94        60.43357
304.39        62.11697
304.84         64.2454
305.30        66.68937
305.75        69.17616
306.20        71.32295
306.66        73.03899
307.11        74.40019
307.57        75.59809
308.02        76.78606
308.47        78.07602
308.93         79.4213
309.38        80.77165
309.83        82.14994
310.29        83.54686
310.74         84.9479
311.19        86.31113
311.65        87.54053
312.10        88.57288
312.55        89.40553
313.00         90.0647
313.46        90.62109
313.91        91.08006
314.36        91.48256
314.82        91.82552
315.27        92.06818
315.72        92.24596
316.18        92.39769
316.63        92.63615
317.08        93.14596
317.53        93.95079
317.99        94.97191
318.44        96.05502
318.89        96.88202
319.35        97.35229
319.80        97.53549
320.25        97.56264
320.70        97.68004
321.16        97.94099
321.61        98.29123
322.06        98.62314
322.51        98.76817
322.97        98.68327
323.42        98.47619
323.87         98.2313
324.32        98.08546
324.78        98.07481
325.23        98.19023
325.68        98.39758
326.13        98.65833
326.59         98.9181
327.04        99.23451
327.49        99.55911
327.94        99.84671
328.39        100.0811
328.85        100.2292
329.30        100.3664
329.75          100.49
330.20        100.6176
330.66        100.7272
331.11        100.8867
331.56        101.0875
332.01        101.3399
332.46        101.6454
332.92        101.9702
333.37        102.3751
333.82        102.8148
334.27        103.2758
334.72        103.7294
335.17        104.1332
335.63        104.4428
336.08          104.72
336.53        104.9394
336.98        105.1173
337.43        105.2694
337.88        105.3993
338.34        105.5325
338.79        105.7327
339.24        106.0075
339.69        106.3624
340.14         106.761
340.59        107.1361
341.05         107.468
341.50        107.7787
341.95        108.1166
342.40        108.5772
342.85        109.1669
343.30        109.8375
343.75        110.4897
344.20        110.9689
344.66        111.2573
345.11        111.3938
345.56        111.4624
346.01        111.5881
346.46        111.8136
346.91        112.0938
347.36        112.4311
347.81        112.8283
348.26        113.2627
348.72        113.7365
349.17        114.1458
349.62        114.3498
350.07        114.3236
350.52        114.1046
350.97        113.8074
351.42         113.624
351.87        113.5974
352.32        113.6671
352.77        113.7409
353.22        113.6685
353.67         113.416
354.13          113.07
354.58        112.6478
355.03        112.2427
355.48        111.8927
355.93        111.5811
356.38        111.3138
356.83        111.1058
357.28        110.9396
357.73        110.7839
358.18        110.6156
358.63        110.3974
359.08        110.1051
359.53        109.7476
359.98         109.254
360.43        108.5259
360.88        107.5649
361.33        106.4044
361.78        105.2206
362.23        104.2741
362.68        103.6216
363.13        103.2185
363.58        102.8502
364.03        102.1691
364.48        101.1163
364.93        99.80016
365.38        98.51875
365.83        97.72521
366.28        97.49633
366.73        97.67894
367.18        97.91866
367.63        97.65044
368.08        96.74089
368.53          95.369
368.98         93.8849
369.43        92.81412
369.88        92.28001
370.33         92.1286
370.78        92.07648
371.23        91.65721
371.68        90.75906
372.13        89.55405
372.58        88.32994
373.03        87.50251
373.48        87.15346
373.93        87.12556
374.38        87.16941
374.83        86.89386
375.28        86.19094
375.72        85.16928
376.17         84.0778
376.62        83.14216
377.07        82.42165
377.52        81.83687
377.97        81.29774
378.42        80.68446
378.87          79.983
379.32        79.25697
379.77        78.59287
380.22        78.08472
380.67        77.73292
381.11        77.51214
381.56        77.28786
382.01        76.91466
382.46        76.37297
382.91        75.72338
383.36        75.09489
383.81        74.66861
384.26        74.46796
384.71        74.42575
385.15        74.41446
385.60        74.26176
386.05        73.91067
386.50        73.41542
386.95        72.86593
387.40        72.39618
387.85        72.04639
388.29        71.75092
388.74        71.50636
389.19        71.14923
389.64        70.65076
390.09        70.04737
390.54        69.46817
390.98        69.04903
391.43        68.85301
391.88        68.94966
392.33        69.14737
392.78        68.82585
393.23        68.13522
393.67        67.87061
394.12        68.04469
394.57        67.93906
395.02         67.5559
395.47        67.32477
395.91        67.27516
396.36        67.17695
396.81        67.05199
397.26        67.01141
397.71        66.93956
398.15        66.69501
398.60        66.36333
399.05        65.69189
399.50        64.94632
399.95        65.06702
400.39        65.84944
400.84        65.79308
401.29        64.94378
401.74        64.56301
402.18        64.70253
402.63        64.66483
403.08         64.5126
403.53        64.14017
403.97        64.45338
404.42        64.57262
404.87        64.69968
405.32         64.6786
405.76        64.48476
406.21        64.30869
406.66        64.10809
407.11        63.68169
407.55         63.2007
408.00        62.93206
408.45         62.9453
408.90        63.47577
409.34         64.1655
409.79        63.81414
410.24        62.68088
410.68         62.2394
411.13        62.57466
411.58        62.85002
412.03        62.88752
412.47        62.81296
412.92        62.56779
413.37           62.14
413.81        61.71562
414.26        61.63354
414.71        61.91195
415.15         62.5093
415.60         63.1472
416.05        63.39859
416.49        63.14998
416.94        62.55724
417.39        61.92506
417.83        61.69285
418.28        61.96226
418.73        62.58363
419.17        63.33564
419.62         63.7917
420.07        63.82628
420.51        63.55774
420.96        63.17497
421.41        62.86016
421.85        62.65343
422.30        62.63341
422.74        62.69962
423.19        62.62089
423.64        62.42483
424.08        62.62595
424.53        63.19613
424.98        63.28658
425.42        63.64381
425.87         63.8667
426.31        64.19606
426.76         64.2894
427.21        64.25741
427.65        64.60545
428.10        65.14397
428.54        65.29505
428.99        65.08313
429.44        64.59614
429.88        64.07533
430.33        64.33305
430.77        65.08137
431.22         65.2797
431.66        64.91754
432.11        64.81693
432.56        65.01508
433.00        65.25945
433.45        65.42599
433.89        65.97749
434.34        63.99616
434.78        66.10876
435.23        66.05142
435.67        65.07561
436.12        64.76469
436.57        64.98701
437.01        66.33053
437.46        67.38998
437.90        66.93483
438.35        66.57198
438.79        66.81441
439.24        66.64843
439.68         66.3286
440.13        66.29872
440.57        66.56656
441.02        66.37094
441.46        65.84492
441.91        66.49583
442.35         67.8279
442.80        67.61169
443.24        66.43826
443.69        66.51647
444.13        67.78367
444.58        68.19093
445.02        67.66225
445.47        67.30447
445.91        67.26624
446.36        67.32756
446.80        67.49139
447.24         67.9247
447.69        68.44559
448.13        68.50781
448.58        68.18634
449.02        68.09907
449.47        68.28883
449.91        68.30008
450.36        68.16404
450.80        68.14386
451.25        68.22559
451.69        68.20822
452.13        68.08746
452.58        67.93507
453.02        67.77918
453.47        67.68769
453.91        67.66492
454.36        67.68719
454.80        67.72183
455.24        67.74305
455.69        67.75165
456.13        67.72305
456.58        67.67516
457.02        67.63567
457.46        67.53171
457.91        67.40867
458.35        67.21909
458.79        67.21167
459.24          67.299
459.68        66.96722
460.13        66.37222
460.57        66.11652
461.01        66.29189
461.46        66.29161
461.90        66.28455
462.34        66.60407
462.79        65.85334
463.23        65.67619
463.68        65.68779
464.12        65.73528
464.56        65.75327
465.01        65.87861
465.45        66.02183
465.89        65.93378
466.34        65.69427
466.78        65.81396
467.22        66.28333
467.67        65.89252
468.11        65.72988
468.55        65.48397
468.99        65.50325
469.44        65.44366
469.88        65.32726
470.32        65.32291
470.77        65.39897
471.21         65.4655
471.65        65.48048
472.10         65.4578
472.54        65.41027
472.98        65.33137
473.42        65.21252
473.87         65.2421
474.31        65.29107
474.75        64.82858
475.20        64.08382
475.64        63.96827
476.08        64.38537
476.52        64.54623
476.97        64.41841
477.41        64.25344
477.85        64.04942
478.29        64.86989
478.74        64.37877
479.18        64.99172
479.62        64.68115
480.06         64.6964
480.50        64.58365
480.95        64.49341
481.39        64.49247
481.83        64.06947
482.27        63.83396
482.72        64.49706
483.16         64.2672
483.60        64.24789
484.04        64.56529
484.48        64.35512
484.93        63.86855
485.37        64.70651
485.81        65.54623
486.25         65.1539
486.69        67.05636
487.14          67.394
487.58        64.10528
488.02        64.12835
488.46        64.87543
488.90        63.48048
489.34        63.79449
489.79        64.00247
490.23        64.48963
490.67         64.7161
491.11        64.48482
491.55        64.41908
491.99        64.49765
492.43        64.44135
492.88        64.26112
493.32        64.17061
493.76        64.18146
494.20        64.16632
494.64        64.10005
495.08        64.17763
495.52        64.36001
495.96        64.11501
496.41        63.61467
496.85        63.95954
497.29        64.89532
497.73        64.91084
498.17        64.10621
498.61        63.78829
499.05         64.0519
499.49        64.34452
499.93        64.50327
500.37        64.29127
500.82        63.78191
501.26        63.52702
501.70        63.57829
502.14        63.60996
502.58        63.59676
503.02        63.63543
503.46        63.71315
503.90        63.81437
504.34        63.90861
504.78         63.9351
505.22        63.87981
505.66        63.75931
506.10          63.592
506.54        63.50293
506.98        63.52842
507.42        63.56503
507.86        63.19741
508.30        63.87692
508.74        63.26676
509.18        63.19875
509.62        63.08289
510.06        63.10349
510.50        63.26697
510.94        63.54418
511.38        63.84494
511.82        63.96116
512.26        63.85386
512.70        63.58717
513.14         63.2629
513.58        63.04266
514.02        62.97004
514.46        62.99156
514.90        63.06133
515.34        63.10184
515.78        63.08986
516.22        63.06941
516.66        63.03444
517.10        62.96854
517.54        62.87932
517.98        62.75812
518.42        62.67471
518.86        62.74573
519.30        62.97884
519.74        63.33699
520.18        63.69073
520.62        63.81672
521.06        63.67455
521.50        63.35781
521.93        62.98567
522.37        62.74596
522.81        62.68833
523.25        62.76175
523.69        62.90334
524.13        63.00309
524.57        63.03014
525.01         63.0372
525.45        63.02573
525.89        62.99168
526.32        62.94131
526.76        62.86918
527.20        62.83424
527.64        62.94366
528.08        63.20242
528.52        63.57102
528.96        63.92591
529.40        64.07082
529.83        63.95364
530.27        63.64724
530.71        63.27214
531.15        63.02579
531.59        62.96196
532.03        63.03596
532.46        63.15187
532.90        63.15453
533.34        63.01896
533.78        62.81521
534.22        62.64038
534.66        62.63192
535.09        62.79519
535.53        63.06582
535.97         63.3629
536.41        63.51632
536.85        63.47225
537.28        63.45466
537.72        63.43056
538.16        62.95702
538.60        62.26385
539.04        62.22549
539.47         62.7444
539.91        62.95777
540.35         62.8149
540.79        62.83342
541.22        62.98671
541.66        63.03474
542.10        62.97453
542.54        62.78109
542.97        62.54531
543.41        62.65308
543.85        63.01168
544.29        63.10473
544.72        62.91503
545.16        62.83421
545.60        62.84674
546.04        62.79388
546.47        62.67705
546.91        62.47093
547.35        62.26336
547.79        62.37418
548.22        62.72825
548.66        62.92261
549.10        62.94003
549.53        63.13169
549.97        63.44423
550.41        63.55507
550.84        63.41049
551.28        63.24153
551.72        63.11582
552.15        62.82664
552.59        62.37864
553.03        62.82631
553.46        62.31134
553.90        62.40401
554.34        62.50971
554.77         62.6721
555.21        62.88286
555.65        62.76047
556.08        63.03436
556.52        63.05974
556.96        63.05138
557.39        63.04136
557.83        63.06565
558.27        63.03138
558.70        62.93251
559.14        62.96734
559.57        63.07288
560.01         62.8843
560.45        62.52595
560.88        62.59121
561.32        63.07619
561.75        63.18979
562.19        62.99346
562.63        62.81159
563.06        62.73874
563.50        63.04229
563.93        63.55507
564.37        63.51684
564.80        62.99548
565.24          62.884
565.68        63.12591
566.11        63.12433
566.55        62.92146
566.98        62.72915
567.42        62.60689
567.85        62.97186
568.29        63.31526
568.72        63.34526
569.16        63.00346
569.60        63.47209
570.03        63.30171
570.47        63.57236
570.90        63.86622
571.34        63.37239
571.77        64.18744
572.21        63.85699
572.64         63.8798
573.08        63.85919
573.51        63.89763
573.95        63.70095
574.38        63.56287
574.82        62.91726
575.25        64.57989
575.69        64.71037
576.12        64.02523
576.56        63.37149
576.99          63.271
577.42        64.49578
577.86        63.63974
578.29        64.22646
578.73        64.25082
579.16        64.37668
579.60         64.2187
580.03        64.15897
580.47        64.13638
580.90         64.1759
581.33           63.46
581.77        64.19171
582.20        64.90292
582.64        65.07282
583.07         65.0552
583.51        64.45042
583.94        63.79866
584.37        63.44419
584.81        63.66418
585.24        63.67266
585.68        64.47865
586.11        63.88466
586.54        64.50493
586.98        63.55605
587.41        62.87442
587.85        63.72854
588.28        64.23926
588.71        63.66188
589.15        63.46577
589.58         63.8275
590.01        63.32384
590.45        62.93617
590.88        63.34267
591.31        63.62638
591.75        63.93574
592.18        63.68676
592.61        63.18396
593.05         63.1279
593.48        64.45341
593.91        64.67672
594.35        64.49275
594.78         63.8777
595.21        63.91299
595.65        63.67133
596.08         63.3145
596.51        64.02211
596.94         63.6811
597.38        63.64695
597.81        63.17724
598.24         64.2522
598.68        63.68621
599.11        63.36061
599.54        64.37154
599.97        64.05107
600.41        63.89515
600.84        63.76991
601.27         63.9964
601.70        63.75218
602.14        63.77913
602.57        63.85633
603.00        64.13694
603.43        64.09543
603.87        63.79562
604.30        64.00402
604.73        64.09857
605.16        63.99049
605.60        63.28148
606.03        63.24975
606.46        63.77737
606.89        63.43257
607.32        63.89897
607.76        63.30131
608.19        63.71992
608.62        63.73532
609.05        63.72919
609.48        63.53017
609.92        63.45142
610.35        62.99366
610.78        64.32397
611.21         65.1739
611.64        64.21475
612.07        64.08652
612.50        64.29501
612.94         64.1754
613.37        63.70968
613.80         63.9806
614.23        63.68122
614.66         63.7612
615.09        63.83613
615.52        63.94627
615.96        64.03799
616.39        64.17783
616.82        64.27171
617.25         63.9654
617.68        64.39117
618.11        63.82632
618.54        62.91437
618.97        62.79218
619.40        63.47825
619.84        63.62427
620.27        63.91724
620.70        64.01566
621.13        64.29234
621.56        63.98154
621.99        63.38116
622.42        63.20625
622.85        63.56007
623.28        63.48194
623.71        63.09315
624.14        63.77419
624.57        63.19634
625.00        62.87833
625.43        63.34229
625.86        63.35707
626.29        63.22813
626.72         63.5294
627.15        63.46035
627.58        63.59697
628.01        63.58683
628.44        63.55682
628.87         63.4888
629.30        62.87111
629.73        62.97192
630.16        63.28723
630.59        62.89077
631.02        62.96002
631.45        63.09591
631.88        63.19414
632.31        63.20747
632.74        63.25649
633.17        63.22619
633.60        63.18653
634.03        63.10875
634.46        63.00255
634.89        62.87727
635.32        62.75612
635.75         62.6515
636.18        62.55772
636.61        62.49599
637.04         62.5005
637.47        62.57634
637.89        62.70167
638.32        62.80063
638.75        62.85049
639.18        62.84645
639.61        62.54369
640.04        62.47456
640.47        62.36337
640.90        62.37846
641.33        62.48266
641.76          62.632
642.18        62.75492
642.61         62.8013
643.04        62.79414
643.47        62.77097
643.90        62.80997
644.33         62.9111
644.76        63.01836
645.18        63.10273
645.61        63.07302
646.04        62.91433
646.47         62.7903
646.90        62.79963
647.33        62.37173
647.75        62.70824
648.18        62.78235
648.61        62.92778
649.04        63.10807
649.47        63.29052
649.89        63.46324
650.32        63.51702
650.75        63.35396
651.18         63.0627
651.61        62.74636
652.03        62.55292
652.46         62.8613
652.89        63.42958
653.32        63.39972
653.74        63.01646
654.17        62.42554
654.60        62.47213
655.03        63.23619
655.46        62.85945
655.88         62.2901
656.31        64.74187
656.74        69.52522
657.16        67.73915
657.59        64.85611
658.02        63.76159
658.45        63.95636
658.87        64.63054
659.30        63.25334
659.73        62.59855
660.15        63.44888
660.58        62.78777
661.01        62.85615
661.44        62.49809
661.86        62.24961
662.29        62.11182
662.72        62.25182
663.14        62.61784
663.57        62.56678
664.00        62.19391
664.42        62.24076
664.85        62.66959
665.27         62.7692
665.70        62.54248
666.13        62.50525
666.55        62.67478
666.98        62.77523
667.41        62.79319
667.83        62.80451
668.26        62.79834
668.69        62.78258
669.11        62.73739
669.54        62.60149
669.96        62.37805
670.39        62.15456
670.82        62.03418
671.24        61.98589
671.67        62.08842
672.09        62.69905
672.52        63.61239
672.94        63.74218
673.37        63.74714
673.80        63.30405
674.22        62.84637
674.65        62.60885
675.07        62.69025
675.50        62.99066
675.92        63.36918
676.35        63.56908
676.77        63.53102
677.20        63.34112
677.62        63.10303
678.05        62.98136
678.47        63.01591
678.90        63.14532
679.32        63.30666
679.75        63.45908
680.17        63.58183
680.60        63.62158
681.02        63.56516
681.45        63.76743
681.87        63.57745
682.30         63.5668
682.72        63.55803
683.15        63.53084
683.57        63.51337
684.00        63.59996
684.42        63.75073
684.85        63.82014
685.27        63.78605
685.70        63.64943
686.12        63.45285
686.54        63.46499
686.97        63.60883
687.39        63.49075
687.82        63.12841
688.24         62.9321
688.66        62.92646
689.09        62.86931
689.51        62.77686
689.94        62.83685
690.36        63.07144
690.78        63.30172
691.21        63.38822
691.63        63.97077
692.06        63.42942
692.48        63.60907
692.90        63.96837
693.33        64.10152
693.75         63.9943
694.17        63.80318
694.60        63.61712
695.02        63.95705
695.44        63.92793
695.87         64.3327
696.29        64.74255
696.71        64.66394
697.14        64.14477
697.56        63.73957
697.98        63.58533
698.41         63.4711
698.83        63.40772
699.25        63.60921
699.68        63.94109
700.10        64.12838
700.52        64.08735
700.94        63.90212
701.37        63.67307
701.79        63.58703
702.21        63.67394
702.64        63.86868
703.06        64.06827
703.48        64.12072
703.90        63.99901
704.33        63.76779
704.75        63.51871
705.17        63.38147
705.59         63.3972
706.01        63.51213
706.44        63.70144
706.86        63.94804
707.28        64.20126
707.70        64.47491
708.12        64.70549
708.55        64.75777
708.97        64.62753
709.39         64.4151
709.81        64.19511
710.23        64.05695
710.66        64.04462
711.08        64.16621
711.50        64.35726
711.92        64.51376
712.34        64.60266
712.76        64.65173
713.19        64.64832
713.61        64.62853
714.03         64.5796
714.45        64.49465
714.87        64.39558
715.29        64.32029
715.71        64.27481
716.13        64.25191
716.56        64.22427
716.98        64.20982
717.40        64.18672
717.82        64.16338
718.24        64.13847
718.66         64.1218
719.08        64.10727
719.50        64.05784
719.92        64.01125
720.34        64.05131
720.76        64.18894
721.19        64.39015
721.61        64.58552
722.03        64.64248
722.45        64.56097
722.87        64.26756
723.29        63.89708
723.71        63.88593
724.13        64.62404
724.55        64.25357
724.97        64.78242
725.39        64.76014
725.81        64.75758
726.23         64.5839
726.65        64.34393
727.07        64.26344
727.49          64.365
727.91        64.59544
728.33        64.89206
728.75        65.15159
729.17        65.32946
729.59        65.45415
730.01        65.53374
730.43        65.57925
730.85          65.598
731.27        65.57713
731.69        65.52724
732.10        65.47699
732.52         65.4317
732.94         65.3943
733.36        65.35227
733.78        65.27917
734.20        65.17924
734.62        65.07503
735.04        64.99319
735.46        64.96814
735.88         65.0028
736.30        65.08469
736.72        65.20506
737.13        65.32627
737.55        65.38715
737.97        65.51991
738.39        65.69456
738.81        65.57919
739.23          65.297
739.65        65.52035
740.06        66.07929
740.48        66.18634
740.90        65.78475
741.32        65.31367
741.74        64.93612
742.16        64.73626
742.57        64.79189
742.99        65.05701
743.41        65.44102
743.83        65.77838
744.25        66.00514
744.67        66.14852
745.08        66.23662
745.50        66.27274
745.92        66.28471
746.34        66.26043
746.75        66.18491
747.17        66.05844
747.59        65.88319
748.01        65.66644
748.42        65.47759
748.84        65.38884
749.26        65.38306
749.68        65.53994
750.09        65.78889
750.51        65.63839
750.93        65.29343
751.35         65.7923
751.76        66.91636
752.18        67.27757
752.60        66.77188
753.01        66.13971
753.43        65.63573
753.85        65.39729
754.27        65.50587
754.68          65.881
755.10        66.36183
755.52        66.68623
755.93         66.8105
756.35        66.86758
756.77        66.81062
757.18         66.7323
757.60        66.77857
758.02        66.25292
758.43        65.49374
758.85        66.56828
759.26        68.46896
759.68        68.76769
760.10        67.26472
760.51        66.62842
760.93        66.65772
761.34        66.46591
761.76        66.93638
762.18        66.84398
762.59        66.55019
763.01        66.53974
763.42        66.87052
763.84        66.93755
764.26         66.7531
764.67        66.65214
765.09        66.68601
765.50        66.66225
765.92        66.60549
766.33        66.52606
766.75        66.42545
767.16        66.50398
767.58        66.72652
768.00        67.00539
768.41        67.32331
768.83         67.6588
769.24        67.89246
769.66        67.85687
770.07        67.54195
770.49        66.97746
770.90        66.34996
771.32        66.27762
771.73        66.73046
772.15        66.98287
772.56        67.01208
772.97        67.25957
773.39        67.65255
773.80        67.90078
774.22        67.92416
774.63        67.83289
775.05        67.66531
775.46         67.5489
775.88        67.50237
776.29         67.5037
776.70        67.52395
777.12        67.52699
777.53        67.52177
777.95        67.51661
778.36        67.51082
778.77        67.46223
779.19          67.381
779.60        67.28143
780.02        67.21591
780.43        67.30861
780.84        67.61094
781.26        67.91073
781.67        68.14082
782.09        68.56995
782.50        69.18793
782.91        68.38577
783.33        68.68992
783.74         68.4094
784.15        68.30533
784.57        68.17446
784.98        68.06725
785.39         68.0639
785.81         68.1479
786.22        68.33601
786.63        68.53528
787.04        68.59015
787.46        68.49358
787.87        68.25489
788.28         68.0266
788.70        68.02841
789.11        68.27406
789.52        68.70719
789.93        69.15733
790.35         69.3295
790.76        69.18501
791.17        68.82181
791.58          68.406
792.00         68.1886
792.41        68.26688
792.82         68.5248
793.23        68.88295
793.65        69.27867
794.06        69.65489
794.47        69.84764
794.88        69.77605
795.29         69.8576
795.71        69.43453
796.12         68.9634
796.53        68.42874
796.94        68.30347
797.35        68.63718
797.76         69.1475
798.18        69.62192
798.59        69.92442
799.00        69.94154
799.41         69.6515
799.82        69.23373
800.23        69.04137
800.64        69.15117
801.06        69.41542
801.47        69.76347
801.88        69.95562
802.29        69.91282
802.70        69.71591
803.11        69.43892
803.52         69.1853
803.93        69.00308
804.34        68.86853
804.75        68.78078
805.17        68.73309
805.58        68.74272
805.99        68.80168
806.40        68.91383
806.81        69.04249
807.22        69.17587
807.63        69.37769
808.04        69.58515
808.45        69.60234
808.86        69.40292
809.27        69.07764
809.68        68.74304
810.09        68.58131
810.50        68.64785
810.91         68.8859
811.32        69.21108
811.73        69.47531
812.14        69.62156
812.55        69.69512
812.96        69.68592
813.37        69.58146
813.78        69.40504
814.19        69.16267
814.60        68.94286
815.01        68.88323
815.42        69.00864
815.83        69.28926
816.24        69.64247
816.65        69.89106
817.05        69.96854
817.46        69.88819
817.87        69.73665
818.28         69.5989
818.69        69.51191
819.10        69.45328
819.51        69.43584
819.92        69.48777
820.33        69.60164
820.74        69.75504
821.14        69.92252
821.55        70.08187
821.96        70.20922
822.37        70.32559
822.78        70.37122
823.19        70.24811
823.60        69.95634
824.00        69.54287
824.41        69.14853
824.82        69.08182
825.23         69.4026
825.64        70.03194
826.04        70.77405
826.45        71.18683
826.86        71.17786
827.27        70.85558
827.68        70.39411
828.08        70.11644
828.49        70.07938
828.90        70.20334
829.31         70.4132
829.72        70.58798
830.12        70.71026
830.53        70.78054
830.94        70.80628
831.35        70.74106
831.75         70.6054
832.16        70.35077
832.57        70.09174
832.97        69.98813
833.38        70.06999
833.79        70.29602
834.20        70.54055
834.60        70.59359
835.01        70.43017
835.42        70.11719
835.82        69.79333
836.23        69.63748
836.64        69.71987
837.04        70.00765
837.45        70.35767
837.86        70.64615
838.26        70.82237
838.67        70.87247
839.08         70.8412
839.48        70.77769
839.89         70.6964
840.29          70.558
840.70        70.37225
841.11        70.09285
841.51        69.75323
841.92        69.40712
842.33        69.10152
842.73        68.91698
843.14          68.843
843.54        68.85483
843.95        69.03777
844.35        69.56875
844.76        70.38965
845.17        71.44771
845.57        72.42978
845.98        72.65677
846.38        72.04929
846.79        70.83392
847.19        69.44286
847.60        68.57159
848.00         68.3911
848.41        68.67498
848.81        69.30083
849.22        69.94311
849.62        70.50096
850.03        71.00874
850.43        71.35969
850.84        71.24787
851.24        70.69184
851.65        69.73837
852.05        68.70284
852.46        68.12568
852.86        68.11447
853.27        68.53697
853.67        69.12797
854.07        69.70172
854.48        70.13109
854.88        70.55119
855.29        70.77866
855.69         70.7051
856.10        70.22188
856.50         69.4346
856.90        68.59164
857.31        68.10151
857.71        68.09514
858.12        68.45683
858.52        69.05905
858.92        69.45301
859.33        69.47433
859.73          69.253
860.13        68.96113
860.54        68.91017
860.94         69.1963
861.34         69.6881
861.75        70.10828
862.15         70.1094
862.55        69.57493
862.96        68.66142
863.36        67.66393
863.76        67.05926
864.17        66.97165
864.57        67.29402
864.97        67.77608
865.38        67.99733
865.78         67.8782
866.18        67.50634
866.58        67.08757
866.99        66.97418
867.39        67.26617
867.79        67.80237
868.19        68.33278
868.60        68.46851
869.00        68.13875
869.40        67.49545
869.80        66.75582
870.21         66.2938
870.61        66.26864
871.01        66.53868
871.41        66.99084
871.81        67.46364
872.22        67.87175
872.62        68.30458
873.02        68.74096
873.42        69.11723
873.82        69.39774
874.22        69.56035
874.63        69.64525
875.03        69.71125
875.43        69.78049
875.83        69.81248
876.23         69.8026
876.63         69.7298
877.03        69.60863
877.44        69.52225
877.84         69.3762
878.24        69.03753
878.64        68.51167
879.04        67.80733
879.44        67.24408
879.84        67.28477
880.24        67.96291
880.64        69.16765
881.04        70.32163
881.44        70.40113
881.84        69.21548
882.24        67.15215
882.65        65.07018
883.05         64.0947
883.45        64.49091
883.85        65.93559
884.25         67.8056
884.65        68.95135
885.05        68.98644
885.45        68.25106
885.85        67.27415
886.25        66.85853
886.65        67.20158
887.05        68.01213
887.45        68.91734
887.85        69.33769
888.25        69.10814
888.65        68.45421
889.04        67.66447
889.44        67.18629
889.84        67.12852
890.24        67.36919
890.64        67.72338
891.04        67.89674
891.44        67.82012
891.84        67.60999
892.24        67.45271
892.64        67.62185
893.04        68.17263
893.44        68.99316
893.83        69.91307
894.23        70.57126
894.63        70.86938
895.03        70.85163
895.43        70.65095
895.83        70.48743
896.23        70.43222
896.63        70.45961
897.02        70.41367
897.42         70.0462
897.82         69.3575
898.22         68.4577
898.62        67.68073
899.01        67.47301
899.41        67.91884
899.81        68.90998
900.21        70.03483
900.61        70.50903
901.00        70.10819
901.40         69.1294
901.80        68.12758
902.20        67.89008
902.59        68.58714
902.99        69.94745
903.39        71.52896
903.79        72.37665
904.18        72.14984
904.58        71.20262
904.98        70.04222
905.38        69.35259
905.77        69.28136
906.17        69.62927
906.57        70.16192
906.96        70.54128
907.36        70.60339
907.76        70.49195
908.15        70.33785
908.55        70.25787
908.95        70.32545
909.34        70.45365
909.74        70.57812
910.14          70.585
910.53        70.45176
910.93        70.25103
911.33        70.06003
911.72        70.00744
912.12        70.11946
912.52        70.34615
912.91        70.63348
913.31        70.86859
913.70        71.03528
914.10        71.10829
914.49        71.12097
914.89        71.05117
915.29        70.93493
915.68        70.79189
916.08         70.6403
916.47        70.45374
916.87        70.27827
917.26        70.08438
917.66        70.00037
918.05        70.20577
918.45        70.68072
918.84        71.41616
919.24         72.0845
919.64        72.22789
920.03        71.73218
920.42        70.73042
920.82        69.65271
921.21        68.96617
921.61        68.77819
922.00        69.01286
922.40        69.37139
922.79        69.44131
923.19        69.08311
923.58        68.47272
923.98        67.95906
924.37        68.00594
924.77         68.7038
925.16        69.91654
925.55        71.27843
925.95        72.11713
926.34        72.24213
926.74        71.79481
927.13         71.1026
927.52        70.68047
927.92        70.66016
928.31        70.87612
928.70        71.12128
929.10        71.03694
929.49        70.57486
929.89        69.92426
930.28        69.29158
930.67        68.93928
931.07        68.94058
931.46        69.18943
931.85        69.68504
932.24        70.45873
932.64        71.41507
933.03        72.58894
933.42        73.61909
933.82        73.93601
934.21        73.46045
934.60        72.33513
934.99        71.06464
935.39        70.40223
935.78        70.51688
936.17        71.20259
936.56        72.07384
936.96        72.46361
937.35        72.22021
937.74        71.53967
938.13        70.66014
938.53        69.94508
938.92        69.51835
939.31        69.33263
939.70        69.34525
940.09         69.5171
940.49        69.75031
940.88        70.02304
941.27        70.40328
941.66        71.01058
942.05        71.78822
942.44        72.70077
942.84        73.19036
943.23        72.36538
943.62        70.26431
944.01        67.39009
944.40        64.76717
944.79        63.67472
945.18        64.28962
945.57        66.28272
945.97        68.90971
946.36        70.88038
946.75        71.48952
947.14        71.10067
947.53        70.26463
947.92        69.92597
948.31        70.34238
948.70         71.0841
949.09         71.9381
949.48        72.60435
949.87        72.93172
950.26         73.1405
950.65        73.00812
951.04        72.12074
951.43        70.54243
951.82        68.44841
952.21        66.54099
952.60        65.88978
952.99        66.66441
953.38        68.54041
953.77        70.75875
954.16        71.98138
954.55        71.78242
954.94        70.51192
955.33        68.74461
955.72        67.45283
956.11        66.97438
956.50        67.06333
956.89        67.42507
957.28        67.58154
957.66        67.41089
958.05        67.09143
958.44        66.91754
958.83        67.30958
959.22        68.31781
959.61        69.71534
960.00        71.09294
960.39         71.7783
960.78        71.57357
961.16        70.71515
961.55        69.49854
961.94        68.38046
962.33        67.56154
962.72        66.93246
963.11        66.60316
963.49        66.76172
963.88        67.34337
964.27         68.3279
964.66        69.39082
965.04        69.97475
965.43        69.88132
965.82        69.28121
966.21        68.45428
966.60        67.90945
966.98        67.82655
967.37        68.02766
967.76        68.42796
968.15        68.86294
968.53        69.26105
968.92        69.64468
969.31        69.94978
969.69        70.03914
970.08        69.85863
970.47        69.43523
970.86        68.91001
971.24        68.52821
971.63        68.37459
972.02        68.48058
972.40         68.7597
972.79        68.98386
973.17        69.16204
973.56        69.25601
973.95        69.55613
974.33        70.53406
974.72          72.172
975.11        74.38206
975.49         76.6622
975.88        77.81837
976.26        77.47281
976.65        75.89693
977.04        73.78146
977.42        72.06271
977.81        71.02129
978.19        70.37676
978.58        69.95624
978.96        69.28753
979.35        68.29747
979.74        67.15028
980.12        66.11884
980.51        65.49299
980.89        65.45864
981.28        65.93278
981.66        66.68372
982.05        67.24349
982.43         67.4866
982.82        67.43449
983.20        67.53595
983.59        68.52433
983.97        70.58338
984.35        73.50522
984.74        76.24954
985.12        77.20667
985.51        75.79285
985.89        72.69593
986.28        69.26382
986.66        67.02464
987.04        66.42451
987.43        66.95506
987.81        68.19612
988.20        69.15196
988.58         69.5013
988.96         69.6021
989.35        69.42368
989.73          69.038
990.12        68.46513
990.50        67.49352
990.88          66.623
991.27        66.64969
991.65        67.72768
992.03        69.93499
992.42        72.09496
992.80        72.15014
993.18        69.46247
993.56        65.00064
993.95        61.05845
994.33        60.04236
994.71        62.39079
995.10        67.44313
995.48        73.70781
995.86        77.15181
996.24        76.10047
996.63        71.92152
997.01        66.84042
997.39         63.8716
997.77        63.73097
998.15        65.45777
998.54        68.29274
998.92        70.88822
999.30        72.58047
999.68        73.88294
1000.06        74.61389
1000.45        74.35362
1000.83        73.33661
1001.21        71.53886
1001.59         69.6986
1001.97        68.92417
1002.35        69.41523
1002.73        70.96527
1003.12        73.10167
1003.50        74.94875
1003.88        76.05156
1004.26         76.6324
1004.64        76.86095
1005.02         77.0882
1005.40         77.3684
1005.78        77.35886
1006.16        77.09144
1006.54        76.68535
1006.92         76.1311
1007.30        75.59607
1007.69        74.54572
1008.07        72.17818
1008.45        68.77551
1008.83         65.0518
1009.21        62.24608
1009.59        61.59629
1009.97        63.14487
1010.35        66.68013
1010.73        71.30436
1011.11        74.61954
1011.49        75.32595
1011.86        73.62272
1012.24        71.09071
1012.62        70.32504
1013.00        72.09407
1013.38        76.07168
1013.76        80.49866
1014.14        80.95683
1014.52         76.6136
1014.90        70.24971
1015.28        64.94667
1015.66        63.26801
1016.04         65.3204
1016.41         70.6433
1016.79        78.35159
1017.17        86.08411
1017.55        91.55216
1017.93        94.77849
1018.31        94.77572
1018.69        91.01292
1019.06        84.66946
1019.44        77.41943
1019.82        71.12281
1020.20        66.98919
1020.58        64.65222
1020.95         63.7622
1021.33         63.8992
1021.71        64.22512
1022.09        64.35867
1022.46        64.26472
1022.84        64.57676
1023.22        66.06366
1023.60        69.02391
1023.97        73.82533
1024.35        78.90749
1024.73        79.68125
