SpectraSmart Spectrum 2.9.0.0
--------- Device Information -----------
Spectrum Name :  反射率_0
Saving Time :  2024/05/03 20:13:07
Spectro-Module Model Name : SE2030-DUVN
Spectro-Module Serial Number : OS361AC55029948
Wavelength Start : 200
Wavelength End : 1025
Wavelength Unit : Wavelength(nm)
Spectrum Unit : Reflectance(%)
-----------Spectrum Setting ------------
Integration Time : 20ms
Average : 10
Boxcar : 0
Background removal :  enabled
linearity correction :  enabled
SC :  disabled
Intensity correction :  disabled
DWT denoise :  enabled
savitzky-golay :  disabled
FFT :  disabled
Running average :  disabled
Kalman :  disabled
High pass :  disabled
---------------BEGIN--------------------
Wavelength(nm)             Reflectance(%)
200.29               0
200.75       -50.35803
201.21       -96.66226
201.67        3147.268
202.13        118.0282
202.58        73.31004
203.04        59.80252
203.50        56.43509
203.96        61.43797
204.42         78.9597
204.88        148.9654
205.34       -2353.877
205.80        -191.303
206.26       -184.9488
206.72       -36997.39
207.18        112.8578
207.64        66.28641
208.10        65.14346
208.55        105.3848
209.01        571.3196
209.47        915.6087
209.93        179.5638
210.39        100.1579
210.85        78.26242
211.31        72.67702
211.77          74.681
212.23         86.0766
212.69        115.5799
213.14        123.6399
213.60        71.46404
214.06        44.56074
214.52        37.04504
214.98        39.36767
215.44        52.67809
215.90        109.9664
216.36       -704.8991
216.81       -134.9135
217.27       -131.9423
217.73       -216.6735
218.19       -756.8187
218.65       -15238.52
219.11       -1159.258
219.57       -338.8205
220.02       -217.1395
220.48       -374.3764
220.94        406.0148
221.40        117.4101
221.86        75.56355
222.32        66.77554
222.77        70.65867
223.23        85.83266
223.69        111.9439
224.15        127.0195
224.61        114.7293
225.06        91.98672
225.52        76.82867
225.98         75.9508
226.44        87.69037
226.90        110.4105
227.36        139.4512
227.81        155.4435
228.27        147.5018
228.73        126.6109
229.19        105.0429
229.65        91.77004
230.10        86.02629
230.56        84.46416
231.02        84.43166
231.48        83.79484
231.93        82.25716
232.39        80.99152
232.85        80.40271
233.31        81.15165
233.77        83.31482
234.22        86.32658
234.68        90.03559
235.14        94.29918
235.60        98.93502
236.05        104.2885
236.51        109.0797
236.97        111.0812
237.43        109.8052
237.88        105.9927
238.34        102.2799
238.80        102.2596
239.26        107.4572
239.71         120.167
240.17        143.7263
240.63        170.8239
241.08        185.5346
241.54        178.8508
242.00        163.2797
242.46        157.8375
242.91        167.5677
243.37        193.0003
243.83        240.7914
244.28        292.2804
244.74        293.7988
245.20        249.9337
245.66        193.1959
246.11        149.8358
246.57        122.4655
247.03        103.0119
247.48        90.80457
247.94        84.97611
248.40        83.63728
248.85        86.82178
249.31         91.8648
249.77        92.19656
250.22        87.54717
250.68         81.7108
251.14        78.88057
251.59        83.72831
252.05        98.19265
252.51        124.8371
252.96        165.9104
253.42        205.8209
253.88        222.2646
254.33         215.279
254.79        196.0372
255.25        175.9022
255.70        160.0914
256.16        149.6163
256.62        143.4871
257.07        141.2035
257.53        142.1405
257.99        144.2137
258.44        145.8824
258.90        146.5245
259.35        145.2719
259.81        143.8162
260.27        141.6751
260.72        138.4483
261.18         135.331
261.63        131.8622
262.09        129.3432
262.55        128.1273
263.00        127.7609
263.46        128.0472
263.91        128.0086
264.37        127.0141
264.83        124.8815
265.28        122.0132
265.74        118.9515
266.19        115.7474
266.65        112.8027
267.11        109.9049
267.56        107.3197
268.02        105.6578
268.47        104.7865
268.93        104.5817
269.38        104.4213
269.84        103.2782
270.30        101.0227
270.75         98.0251
271.21        95.05727
271.66        92.99542
272.12        92.01328
272.57        91.66724
273.03        91.55299
273.48        91.03606
273.94        89.97133
274.39        88.58886
274.85        86.98625
275.31        85.07059
275.76        82.91364
276.22        80.70119
276.67        78.71222
277.13        77.62989
277.58        77.30313
278.04         77.5545
278.49        77.77727
278.95        77.15662
279.40        75.50891
279.86        73.37151
280.31        71.09381
280.77        69.38529
281.22        68.19109
281.68         67.3899
282.13        66.75762
282.59        66.16949
283.04        65.50423
283.50        64.89352
283.95        64.27582
284.41        63.66342
284.86        63.01815
285.32        62.41618
285.77        61.84078
286.22         61.4058
286.68        61.14751
287.13        60.93411
287.59        60.84109
288.04        60.84172
288.50        60.94724
288.95        61.10479
289.41         61.1619
289.86        60.79121
290.32        60.03919
290.77        59.01216
291.22        58.06928
291.68         57.6915
292.13        57.94814
292.59        58.75085
293.04        59.85077
293.50        60.84354
293.95        61.59156
294.40        62.21583
294.86        62.93227
295.31        64.03978
295.77        65.61526
296.22        67.51544
296.68        69.52684
297.13        71.29759
297.58         72.6834
298.04        73.83172
298.49        74.82249
298.95        75.89619
299.40        77.09512
299.85        78.37261
300.31        79.80241
300.76        81.43447
301.21        83.27184
301.67        85.32003
302.12        87.33942
302.58         89.0218
303.03        90.25368
303.48        91.14095
303.94        92.01214
304.39        93.22303
304.84        94.90159
305.30        96.91885
305.75        98.94917
306.20        100.5587
306.66         101.684
307.11        102.4263
307.57        103.0785
308.02        103.8839
308.47        104.9759
308.93        106.2578
309.38        107.5974
309.83        108.9266
310.29        110.1951
310.74        111.3989
311.19        112.4905
311.65         113.367
312.10        113.9825
312.55        114.3595
313.00        114.5739
313.46        114.7726
313.91        114.9775
314.36          115.22
314.82        115.5037
315.27         115.783
315.72        116.0764
316.18        116.4105
316.63        116.8273
317.08        117.4119
317.53        118.1574
317.99        118.9873
318.44        119.8202
318.89        120.4539
319.35        120.8246
319.80        120.9901
320.25        120.9998
320.70         120.969
321.16        120.9288
321.61        120.8736
322.06        120.8335
322.51         120.865
322.97        120.9662
323.42        121.1746
323.87        121.3881
324.32        121.4458
324.78        121.3098
325.23        121.0731
325.68        120.8627
326.13        120.9167
326.59        121.2595
327.04        121.8718
327.49        122.6047
327.94        123.2533
328.39        123.7338
328.85        124.0487
329.30        124.2967
329.75        124.4755
330.20        124.6124
330.66        124.6633
331.11        124.7286
331.56        124.8411
332.01        125.0317
332.46        125.3097
332.92        125.6302
333.37        126.0496
333.82        126.5122
334.27        127.0114
334.72        127.5282
335.17        128.0371
335.63        128.4787
336.08        128.9001
336.53        129.2384
336.98        129.4676
337.43         129.591
337.88        129.6348
338.34        129.6182
338.79        129.6028
339.24        129.6157
339.69        129.6797
340.14        129.8429
340.59         130.168
341.05        130.6563
341.50        131.2923
341.95        132.0149
342.40        132.7411
342.85        133.4238
343.30        134.0531
343.75        134.5976
344.20        135.0244
344.66        135.3489
345.11        135.5573
345.56         135.689
346.01        135.8021
346.46        135.9263
346.91        136.0583
347.36        136.2255
347.81        136.4603
348.26        136.7615
348.72        137.1293
349.17        137.4796
349.62        137.7079
350.07        137.7855
350.52         137.727
350.97        137.6023
351.42        137.5366
351.87        137.5406
352.32        137.5502
352.77        137.4775
353.22         137.189
353.67        136.6652
354.13        136.0106
354.58        135.2337
355.03        134.4229
355.48        133.6401
355.93        132.9003
356.38         132.277
356.83         131.881
357.28        131.7066
357.73        131.6783
358.18        131.7055
358.63        131.6405
359.08        131.4108
359.53        131.0407
359.98        130.4501
360.43        129.5377
360.88        128.3167
361.33        126.8222
361.78        125.2794
362.23        124.0263
362.68        123.1415
363.13        122.5737
363.58        122.0682
364.03        121.2085
364.48        119.9172
364.93        118.3159
365.38        116.7519
365.83        115.7495
366.28        115.4002
366.73        115.5401
367.18        115.7335
367.63        115.2877
368.08        114.0532
368.53        112.2481
368.98        110.3683
369.43         109.161
369.88        108.7842
370.33        109.0166
370.78        109.3828
371.23          109.09
371.68        107.9426
372.13        106.2098
372.58        104.3863
373.03        103.2073
373.48        102.8334
373.93        103.0156
374.38        103.3424
374.83        103.1505
375.28        102.2629
375.72        100.8852
376.17        99.42605
376.62        98.31429
377.07        97.65227
377.52        97.28284
377.97        97.00563
378.42        96.52982
378.87        95.79006
379.32         94.9046
379.77        94.04426
380.22        93.41817
380.67        93.05373
381.11        92.89672
381.56        92.73442
382.01        92.30868
382.46        91.57925
382.91        90.65059
383.36        89.75889
383.81        89.23578
384.26        89.12733
384.71        89.31864
385.15        89.55755
385.60        89.47516
386.05        88.97337
386.50        88.17366
386.95        87.29901
387.40        86.68418
387.85        86.40646
388.29        86.31963
388.74        86.32254
389.19        86.07832
389.64        85.52971
390.09        84.78403
390.54        84.04222
390.98        83.53461
391.43        83.34677
391.88        83.51864
392.33        83.83904
392.78        83.53339
393.23        82.76003
393.67        82.65923
394.12        83.13344
394.57        82.73577
395.02        81.65058
395.47        81.35045
395.91        81.80499
396.36        81.82716
396.81        81.39927
397.26        81.17941
397.71        81.10225
398.15        80.84421
398.60        80.50813
399.05        79.90392
399.50        79.24104
399.95           79.32
400.39        79.96805
400.84        79.83022
401.29        78.97643
401.74        78.62313
402.18        78.78368
402.63        78.64869
403.08        78.34997
403.53        77.90249
403.97        78.42211
404.42        78.74466
404.87        79.03458
405.32        79.04833
405.76        78.73447
406.21        78.27977
406.66        77.75397
407.11        77.19137
407.55        76.76469
408.00        76.59428
408.45        76.67603
408.90        77.08833
409.34        77.53284
409.79        77.16638
410.24        76.22028
410.68        75.82195
411.13        76.04617
411.58        76.25867
412.03        76.28043
412.47        76.13091
412.92        75.74913
413.37        75.17006
413.81        74.58756
414.26         74.3587
414.71        74.49697
415.15        74.95495
415.60         75.4593
416.05        75.61854
416.49        75.32812
416.94        74.74235
417.39         74.1226
417.83        73.83879
418.28        73.98225
418.73         74.4155
419.17        74.98085
419.62        75.35735
420.07        75.43407
420.51        75.27711
420.96        75.00003
421.41        74.63283
421.85        74.19141
422.30        73.91137
422.74        73.70855
423.19        73.24864
423.64        72.66862
424.08        72.79638
424.53        73.53281
424.98        73.98015
425.42         74.0343
425.87        74.36364
426.31        74.76274
426.76        74.72842
427.21        74.36253
427.65         74.5399
428.10        75.09911
428.54        75.20103
428.99        74.88598
429.44        74.40527
429.88         73.9417
430.33        74.16785
430.77         74.7889
431.22        74.75027
431.66        74.20229
432.11         74.0213
432.56        74.22912
433.00        74.47985
433.45        74.65255
433.89        75.08355
434.34        72.41833
434.78        75.42661
435.23         74.9304
435.67        73.65096
436.12        73.58769
436.57        73.61785
437.01        74.72512
437.46        75.35312
437.90        75.12336
438.35        74.20923
438.79         74.5808
439.24        74.24496
439.68         73.8247
440.13        73.68439
440.57        73.85616
441.02        73.69945
441.46         73.2719
441.91        73.90321
442.35        75.06911
442.80        74.71728
443.24        73.22464
443.69        73.30453
444.13        74.76914
444.58        75.27279
445.02        74.69203
445.47        74.24825
445.91        74.14164
446.36        74.15707
446.80        74.29137
447.24        74.75574
447.69        75.42094
448.13        75.10721
448.58        75.32876
449.02        74.96237
449.47        74.62152
449.91        74.41515
450.36         74.4257
450.80         74.5742
451.25        74.77692
451.69        74.88859
452.13        74.87309
452.58        74.79039
453.02        74.65772
453.47        74.52561
453.91        74.39391
454.36        74.26003
454.80        74.16418
455.24        74.02574
455.69        73.83437
456.13        73.90546
456.58        74.28064
457.02         73.4481
457.46        73.70387
457.91        73.51258
458.35        73.47269
458.79        73.51595
459.24        73.55867
459.68        73.15777
460.13        72.44072
460.57        72.14111
461.01        72.38496
461.46         72.1652
461.90        71.83372
462.34        72.73547
462.79        71.70055
463.23         71.6289
463.68        71.58652
464.12        71.55788
464.56        71.51911
465.01        71.64345
465.45        71.81901
465.89        71.85918
466.34        71.78371
466.78        71.68438
467.22        71.61877
467.67        71.51844
468.11        71.44318
468.55         71.3958
468.99         71.3727
469.44        71.32337
469.88        71.25317
470.32        71.18587
470.77        71.11989
471.21         71.0659
471.65        71.00012
472.10        70.91109
472.54        70.81255
472.98        70.68872
473.42        70.52918
473.87        70.56435
474.31        70.64546
474.75        70.13968
475.20        69.27518
475.64        69.15086
476.08        69.72556
476.52        69.82226
476.97        69.34283
477.41        69.64955
477.85        69.77472
478.29        69.53803
478.74        69.50779
479.18        69.82759
479.62        70.22521
480.06        70.34531
480.50        70.00639
480.95        69.80474
481.39        69.85673
481.83        68.96168
482.27        69.35882
482.72          69.355
483.16        69.47211
483.60         69.5241
484.04        69.71893
484.48        69.39285
484.93        68.69941
485.37        69.82273
485.81        70.47861
486.25        69.96031
486.69        71.86694
487.14        71.47436
487.58        69.00202
488.02        68.78928
488.46        70.08025
488.90        68.48702
489.34        69.24019
489.79        69.14566
490.23        69.43935
490.67        69.62211
491.11        69.57404
491.55         69.3703
491.99        69.05299
492.43        68.88142
492.88        68.89291
493.32        69.03624
493.76        69.21837
494.20        69.28266
494.64        69.17994
495.08        69.05853
495.52        68.98454
495.96        68.73927
496.41        68.45671
496.85         68.8688
497.29        69.70777
497.73         69.6612
498.17        68.81857
498.61        68.50568
499.05        68.78793
499.49        68.78647
499.93        68.51054
500.37        68.47281
500.82        68.61416
501.26        68.61847
501.70        68.45356
502.14        68.21828
502.58        67.98571
503.02        67.86578
503.46        67.88489
503.90        67.99357
504.34        68.13187
504.78        68.21337
505.22        68.20975
505.66        68.13385
506.10         67.9956
506.54        67.92802
506.98        67.96939
507.42        67.87684
507.86         67.5845
508.30        68.11098
508.74        67.62082
509.18        67.60183
509.62        67.54193
510.06        67.54016
510.50        67.59139
510.94        67.69538
511.38        67.81019
511.82        67.81805
512.26        67.70469
512.70        67.50694
513.14        67.29352
513.58        67.17342
514.02        67.16898
514.46        67.23788
514.90        67.33556
515.34        67.38735
515.78        67.37211
516.22        67.32917
516.66        67.25475
517.10        67.14022
517.54        66.99947
517.98        66.82901
518.42        66.70681
518.86        66.76007
519.30         66.9994
519.74        67.38143
520.18        67.77158
520.62         67.9475
521.06         67.8575
521.50        67.56963
521.93        67.20619
522.37        66.98332
522.81        66.95244
523.25        67.04841
523.69        67.20081
524.13         67.2957
524.57        67.30126
525.01        67.26967
525.45        67.22079
525.89        67.17912
526.32        67.15436
526.76        67.13531
527.20         67.1489
527.64        67.25091
528.08        67.44048
528.52        67.69876
528.96        67.94575
529.40        68.05414
529.83        67.98615
530.27        67.78961
530.71        67.54815
531.15        67.40446
531.59        67.39267
532.03        67.48032
532.46        67.58028
532.90        67.55297
533.34        67.38233
533.78        67.13735
534.22        66.91445
534.66        66.85032
535.09        66.95359
535.53        67.16676
535.97        67.42651
536.41        67.58463
536.85        67.58982
537.28        67.66736
537.72        67.75564
538.16        67.33907
538.60        66.64585
539.04        66.61745
539.47        67.16238
539.91        67.37816
540.35         67.2183
540.79        67.23445
541.22        67.38406
541.66        67.39068
542.10        67.25056
542.54        66.94302
542.97         66.6044
543.41        66.70467
543.85        67.15519
544.29        67.38737
544.72        67.31684
545.16        67.28522
545.60        67.26495
546.04        67.04433
546.47        66.70431
546.91        66.51936
547.35        66.53491
547.79        66.65603
548.22        66.82566
548.66        67.04442
549.10        67.23486
549.53        67.37668
549.97        67.46888
550.41        67.46449
550.84        67.33639
551.28        67.52988
551.72        67.22179
552.15        67.04209
552.59        66.79281
553.03         66.5183
553.46        66.30299
553.90        66.21046
554.34         66.2891
554.77        66.68758
555.21        66.96326
555.65        66.93678
556.08        67.20326
556.52        67.15646
556.96        67.06114
557.39        67.02753
557.83        67.10896
558.27        67.16804
558.70        67.16576
559.14        67.25063
559.57        67.34134
560.01        67.11909
560.45        66.70502
560.88        66.66116
561.32        66.95929
561.75        67.04569
562.19        66.95943
562.63        66.86979
563.06        66.82877
563.50        67.20015
563.93        67.77831
564.37        67.58286
564.80        66.78605
565.24        66.68222
565.68        67.16738
566.11        67.27625
566.55        67.02168
566.98        66.72218
567.42        66.56834
567.85         66.9401
568.29        67.27453
568.72        67.27171
569.16        66.92899
569.60        66.87089
570.03        67.06979
570.47        67.27132
570.90        67.43758
571.34        67.17574
571.77        67.75146
572.21        67.44389
572.64        67.33457
573.08        67.03892
573.51        67.43738
573.95        67.39079
574.38         67.3524
574.82        66.70747
575.25        68.09917
575.69        68.14989
576.12        67.89629
576.56        66.92469
576.99        67.32826
577.42         68.3419
577.86        67.37792
578.29        67.78736
578.73        67.81523
579.16        67.95148
579.60        67.80963
580.03        67.77316
580.47        67.77998
580.90        67.79259
581.33         67.0438
581.77        67.86012
582.20        68.52744
582.64        68.38054
583.07        68.32589
583.51        67.79243
583.94        67.51824
584.37        67.18261
584.81        66.97224
585.24        67.35257
585.68        68.29093
586.11        67.40797
586.54        67.85508
586.98         67.1657
587.41        66.58405
587.85        67.72799
588.28        68.26594
588.71        67.74167
589.15        67.43269
589.58        67.87749
590.01        66.87912
590.45        66.60748
590.88        67.19302
591.31        67.60072
591.75        67.84495
592.18        67.66002
592.61        67.30685
593.05        66.98012
593.48        68.12421
593.91        68.12057
594.35        68.11243
594.78        67.57929
595.21        67.45149
595.65        67.27802
596.08        67.16798
596.51        67.84743
596.94        67.62387
597.38        67.64969
597.81        67.36498
598.24        67.64273
598.68        67.63055
599.11        66.62049
599.54        68.03267
599.97        67.57162
600.41        67.62182
600.84        67.49987
601.27        67.60963
601.70        67.49791
602.14        67.22006
602.57        67.38368
603.00        67.86868
603.43        67.77765
603.87        67.23855
604.30        67.23998
604.73        67.72697
605.16        67.43652
605.60         67.0139
606.03        66.87005
606.46        67.12886
606.89        67.11606
607.32        67.35201
607.76        66.63257
608.19        67.16924
608.62         67.1833
609.05        67.08295
609.48        67.10011
609.92        67.46447
610.35        66.74574
610.78        67.79228
611.21        68.70476
611.64        68.03268
612.07        67.93697
612.50        67.83119
612.94        67.67897
613.37        67.51675
613.80        67.41234
614.23        67.38387
614.66        67.39169
615.09        67.43152
615.52        67.44586
615.96        67.41734
616.39        67.44923
616.82        67.56413
617.25        67.29283
617.68        67.62644
618.11        67.27686
618.54        66.30559
618.97         66.2422
619.40        66.90226
619.84        67.29861
620.27        67.35297
620.70        67.45796
621.13        67.64538
621.56        67.33288
621.99        66.59863
622.42        66.99448
622.85        67.34409
623.28        67.00356
623.71        66.71249
624.14        66.93029
624.57        66.63322
625.00        66.41756
625.43        66.67251
625.86        66.73692
626.29        66.76646
626.72        67.03333
627.15        66.96805
627.58        67.00302
628.01        66.95084
628.44        66.90096
628.87        66.80475
629.30        66.69839
629.73        66.54227
630.16        66.78549
630.59        66.51231
631.02        66.55324
631.45        66.68948
631.88         66.7319
632.31        66.60796
632.74        67.38874
633.17        67.14856
633.60        67.24638
634.03        67.10649
634.46        66.81767
634.89        66.46117
635.32        66.20882
635.75        66.12344
636.18        66.14392
636.61        66.22298
637.04        66.26617
637.47         66.2271
637.89         66.2017
638.32        66.20498
638.75        66.10987
639.18        65.88683
639.61        66.27138
640.04        65.98594
640.47        66.07632
640.90        66.16341
641.33        66.27806
641.76        66.39312
642.18        66.49924
642.61        66.57475
643.04        66.60954
643.47        66.62495
643.90        66.65514
644.33        66.70381
644.76        66.77671
645.18        66.84558
645.61        66.77606
646.04        66.55538
646.47        66.37509
646.90        66.36984
647.33        65.96584
647.75        66.43427
648.18        66.70132
648.61        67.04758
649.04        67.26646
649.47        67.31938
649.89        67.34509
650.32        67.29615
650.75        67.02575
651.18        66.66704
651.61        66.51616
652.03        66.60837
652.46        66.90971
652.89        67.18995
653.32        67.00983
653.74        66.65294
654.17        66.24379
654.60        65.85921
655.03        67.22398
655.46        66.50224
655.88        66.08847
656.31         69.0801
656.74        73.47578
657.16        70.35703
657.59        66.63799
658.02        66.97509
658.45        68.23541
658.87        68.54823
659.30        66.80501
659.73        66.48906
660.15        66.99634
660.58        66.40096
661.01        66.46884
661.44        66.25253
661.86        66.03027
662.29        65.80633
662.72         65.9301
663.14        66.34089
663.57        66.26888
664.00        65.81947
664.42        65.82549
664.85        66.25436
665.27        66.35693
665.70        66.12395
666.13        66.06918
666.55        66.20516
666.98         66.2505
667.41        66.21581
667.83        66.21674
668.26        66.25146
668.69        66.32053
669.11        66.35614
669.54        66.23936
669.96        65.96474
670.39        65.57885
670.82        65.26419
671.24        65.25367
671.67        65.57986
672.09        66.25199
672.52        67.05177
672.94        67.12721
673.37        67.17891
673.80        66.69028
674.22        66.12959
674.65        65.85189
675.07          65.969
675.50        66.34105
675.92        66.80961
676.35        67.08862
676.77        67.10518
677.20        66.95647
677.62        66.74087
678.05        66.61377
678.47        66.61732
678.90        66.69209
679.32        66.79507
679.75        66.92328
680.17        67.06528
680.60        67.14996
681.02        67.13972
681.45           67.39
681.87        67.19644
682.30        67.12321
682.72        67.01435
683.15        66.96773
683.57        67.00699
684.00        67.11153
684.42         67.2289
684.85        67.27537
685.27        67.22907
685.70        67.05235
686.12        66.80193
686.54        66.80973
686.97        67.00242
687.39        66.91901
687.82         66.5758
688.24        66.48111
688.66        66.61874
689.09        66.55404
689.51        66.33439
689.94        66.37368
690.36        66.71175
690.78        67.02237
691.21        67.12967
691.63        67.77135
692.06        67.19801
692.48        67.24519
692.90         67.3975
693.33        67.42445
693.75        67.33368
694.17         67.2156
694.60         67.1197
695.02        67.49282
695.44         67.3961
695.87        67.84203
696.29        68.34565
696.71        68.21243
697.14        67.52803
697.56        66.98483
697.98        66.71562
698.41        66.85458
698.83        66.58253
699.25        66.86231
699.68        67.30386
700.10        67.59656
700.52        67.63673
700.94        67.52885
701.37        67.37112
701.79        67.32645
702.21        67.42544
702.64        67.60496
703.06        67.77966
703.48        67.83144
703.90        67.73911
704.33        67.55353
704.75        67.35329
705.17        67.24413
705.59        67.25686
706.01        67.34886
706.44         67.4883
706.86        67.63731
707.28        67.75117
707.70        67.88923
708.12        68.02084
708.55        67.98177
708.97         67.8118
709.39         67.7693
709.81        67.86095
710.23        67.89324
710.66        67.86505
711.08        67.91774
711.50        68.03622
711.92        68.15012
712.34        68.24883
712.76        68.34499
713.19        68.40509
713.61        68.43617
714.03         68.4093
714.45        68.32523
714.87        68.20976
715.29        68.10385
715.71         68.0163
716.13         67.9418
716.56        67.84684
716.98        67.74458
717.40        67.61866
717.82        67.48986
718.24        67.38882
718.66        67.36175
719.08        67.41283
719.50        67.51175
719.92        67.64532
720.34        67.79244
720.76        67.94186
721.19        68.09332
721.61        68.20661
722.03        68.21626
722.45        68.14666
722.87        67.85523
723.29         67.4565
723.71        67.59359
724.13        68.30901
724.55        67.94391
724.97         68.5089
725.39        68.47055
725.81        68.43053
726.23        68.18638
726.65        67.87752
727.07        67.77934
727.49        67.92111
727.91         68.2384
728.33        68.61875
728.75        68.87333
729.17        68.94152
729.59        68.88292
730.01        68.77364
730.43        68.73177
730.85        68.79143
731.27        68.90633
731.69        69.03054
732.10        69.10678
732.52        69.11079
732.94         69.0631
733.36        68.98622
733.78        68.90927
734.20         68.8598
734.62         68.8534
735.04        68.86243
735.46        68.86441
735.88        68.84722
736.30        68.73422
736.72        68.62979
737.13         68.8138
737.55         69.1612
737.97        69.50673
738.39        69.71064
738.81        69.27272
739.23        68.46578
739.65        68.61389
740.06         69.5111
740.48        69.70791
740.90        69.13306
741.32        68.63163
741.74        68.38588
742.16        68.32314
742.57        68.51711
742.99        68.80434
743.41        69.35361
743.83        69.70442
744.25        69.87505
744.67        69.89247
745.08        69.84016
745.50        69.81914
745.92        69.87451
746.34        69.95623
746.75        70.00207
747.17        69.94381
747.59        69.77069
748.01        69.51283
748.42        69.23811
748.84        69.08766
749.26         69.0596
749.68        69.02554
750.09        69.00814
750.51        69.06594
750.93        69.24299
751.35        69.73217
751.76        70.38393
752.18        70.62284
752.60        70.39001
753.01        69.95402
753.43        69.49458
753.85        69.24294
754.27        69.26829
754.68        69.47178
755.10        69.77171
755.52        70.03333
755.93        70.23784
756.35        70.48278
756.77        70.64854
757.18        70.70033
757.60        70.70113
758.02        70.08862
758.43        69.23893
758.85        70.06307
759.26         72.2882
759.68         72.0858
760.10        71.63646
760.51        70.77964
760.93        70.52514
761.34          70.442
761.76        70.93933
762.18        70.84792
762.59        70.35169
763.01        70.31002
763.42        70.75503
763.84        70.84422
764.26        70.59071
764.67        70.38602
765.09        70.32525
765.50        70.37727
765.92        70.50011
766.33        70.34315
766.75        69.95329
767.16        69.96219
767.58        70.36442
768.00        70.80151
768.41        71.18266
768.83        71.55896
769.24         71.8155
769.66        71.62814
770.07          71.096
770.49        70.74971
770.90        70.62996
771.32        70.51369
771.73        70.43523
772.15        70.49604
772.56        70.71859
772.97        71.06586
773.39        71.43001
773.80        71.70795
774.22        71.81124
774.63        71.80077
775.05        71.69209
775.46        71.58041
775.88        71.47997
776.29        71.38779
776.70        71.31451
777.12        71.28605
777.53        71.32677
777.95        71.42257
778.36        71.53731
778.77         71.5649
779.19        71.49646
779.60        71.37096
780.02        71.25394
780.43        71.27457
780.84        71.46558
781.26        71.69678
781.67        71.96417
782.09        72.31957
782.50        72.66297
782.91        72.71933
783.33        72.49872
783.74        72.36044
784.15        72.30782
784.57        72.16856
784.98        71.97887
785.39        71.87512
785.81         71.8776
786.22        71.96165
786.63        72.08099
787.04        72.14907
787.46        72.16334
787.87        72.11507
788.28        72.07674
788.70        72.13863
789.11        72.29206
789.52        72.53336
789.93        72.78966
790.35        72.89413
790.76        72.87094
791.17        72.84839
791.58        72.86362
792.00        72.91876
792.41        73.05895
792.82         73.1605
793.23        73.25483
793.65        73.65232
794.06        74.21938
794.47        74.26701
794.88        73.80486
795.29        73.45512
795.71        73.20333
796.12        72.68222
796.53         72.0515
796.94        71.92918
797.35        72.35135
797.76        72.91035
798.18        73.36709
798.59        73.64603
799.00        73.62967
799.41        73.25858
799.82        72.74285
800.23         72.5059
800.64        72.63637
801.06        72.96709
801.47        73.40479
801.88        73.65693
802.29        73.63018
802.70        73.43205
803.11        73.15087
803.52         72.8921
803.93        72.70331
804.34        72.58305
804.75        72.56979
805.17         72.4939
805.58        72.68437
805.99         72.9538
806.40        73.31239
806.81        73.35533
807.22        73.15535
807.63        73.28555
808.04        73.68631
808.45        73.75642
808.86        73.45216
809.27          73.118
809.68        72.88042
810.09        72.79411
810.50        72.90387
810.91        73.20365
811.32         73.5559
811.73        73.72414
812.14        73.64335
812.55        73.36714
812.96        73.02619
813.37        72.85889
813.78        72.93674
814.19         73.1881
814.60        73.48613
815.01        73.64643
815.42         73.6273
815.83        73.48182
816.24        73.32069
816.65         73.3448
817.05         73.6094
817.46         73.9986
817.87        74.40016
818.28         74.6044
818.69        74.56358
819.10        74.33965
819.51        74.03688
819.92        73.84707
820.33         73.8343
820.74        73.93156
821.14        74.06434
821.55        74.14088
821.96        74.11759
822.37        74.04306
822.78        73.92469
823.19        73.76714
823.60        73.59572
824.00        73.43139
824.41        73.29323
824.82        73.30184
825.23        73.46891
825.64        73.75019
826.04        74.11562
826.45        74.40321
826.86        74.59827
827.27         74.7479
827.68        74.80365
828.08        74.71809
828.49        74.45894
828.90         74.0455
829.31        73.68597
829.72        73.72525
830.12        74.25452
830.53        75.13409
830.94        76.03654
831.35        76.32909
831.75        75.86538
832.16        74.77464
832.57         73.5161
832.97        72.80162
833.38        72.81856
833.79        73.35805
834.20        74.06676
834.60         74.3787
835.01        74.17569
835.42        73.65763
835.82        73.09551
836.23          72.867
836.64        73.09896
837.04        73.66558
837.45        74.35078
837.86        74.92556
838.26         75.2861
838.67        75.45602
839.08         75.4548
839.48        75.28856
839.89        74.98574
840.29        74.51748
840.70          74.006
841.11         73.5793
841.51        73.30372
841.92        73.19447
842.33         73.1703
842.73        73.08106
843.14        72.85655
843.54        72.54772
843.95        72.38013
844.35        72.75285
844.76        73.66959
845.17        75.02031
845.57         76.3922
845.98        76.91883
846.38         76.4537
846.79        75.26551
847.19        73.86858
847.60        73.09011
848.00         73.1237
848.41        73.68713
848.81        74.56579
849.22        75.28307
849.62        75.70541
850.03        75.92032
850.43        75.92063
850.84        75.55347
851.24        74.90224
851.65        73.97895
852.05        73.05836
852.46        72.60369
852.86        72.67931
853.27        73.16183
853.67        73.79385
854.07         74.4164
854.48        74.89865
854.88        75.37321
855.29        75.59009
855.69        75.34721
856.10        74.52945
856.50        73.30634
856.90         72.0602
857.31        71.39159
857.71        71.46337
858.12        72.09022
858.52        73.06048
858.92        73.74358
859.33        73.89898
859.73        73.72866
860.13        73.37157
860.54        73.09369
860.94        73.02293
861.34        73.03078
861.75         73.0512
862.15        73.10271
862.55        73.11958
862.96        73.13192
863.36        73.11715
863.76        73.02383
864.17        72.84363
864.57        72.63655
864.97        72.38229
865.38        72.03654
865.78        71.65314
866.18        71.20932
866.58        70.87531
866.99        70.94162
867.39        71.45296
867.79        72.26807
868.19        73.05672
868.60        73.28583
869.00        72.86079
869.40        71.97031
869.80        70.88731
870.21        70.11112
870.61        69.85999
871.01        69.95813
871.41        70.33486
871.81        70.88491
872.22        71.51177
872.62        72.30453
873.02        73.10722
873.42        73.59219
873.82        73.66187
874.22        73.38145
874.63        72.98553
875.03        72.82377
875.43        72.98806
875.83        73.35121
876.23        73.79562
876.63        74.10133
877.03        74.20428
877.44        74.24183
877.84        74.14664
878.24        73.82813
878.64        73.31196
879.04        72.58044
879.44        71.96484
879.84        71.95799
880.24        72.59619
880.64        73.76751
881.04        74.89066
881.44        74.92249
881.84        73.68122
882.24          71.589
882.65        69.49331
883.05        68.49343
883.45        68.85617
883.85        70.23927
884.25        72.10872
884.65         73.4692
885.05        73.93381
885.45        73.77499
885.85        73.29079
886.25        72.94621
886.65        72.88573
887.05        72.91985
887.45        72.94201
887.85         72.8259
888.25         72.5356
888.65        72.17648
889.04          71.804
889.44        71.49652
889.84        71.27534
890.24        71.14194
890.64        71.08981
891.04        71.11628
891.44        71.21506
891.84        71.36909
892.24        71.62159
892.64        72.03453
893.04        72.61126
893.44        73.34631
893.83        74.09903
894.23        74.54945
894.63        74.64783
895.03         74.4041
895.43        74.10367
895.83        74.21411
896.23        74.80749
896.63        75.76535
897.02        76.60522
897.42        76.54381
897.82        75.48474
898.22        73.73433
898.62        71.96655
899.01        71.11464
899.41        71.37708
899.81        72.49878
900.21        73.92703
900.61        74.60519
901.00        74.20451
901.40        73.14265
901.80        72.00754
902.20        71.61004
902.59        72.14436
902.99        73.30363
903.39        74.72718
903.79        75.63496
904.18        75.71339
904.58        75.24651
904.98        74.58884
905.38        74.22272
905.77        74.25407
906.17        74.52792
906.57        74.88789
906.96          75.138
907.36        75.15487
907.76        75.04656
908.15        74.87605
908.55          74.645
908.95        74.41599
909.34        74.16769
909.74        73.94337
910.14        73.77061
910.53        73.66138
910.93        73.64895
911.33        73.72993
911.72        73.90205
912.12        74.14695
912.52        74.43758
912.91        74.77895
913.31         75.1583
913.70        75.57574
914.10        75.95967
914.49        76.25167
914.89        76.27725
915.29        76.03862
915.68        75.60789
916.08        75.10625
916.47        74.67023
916.87        74.38898
917.26        74.18011
917.66        74.10819
918.05        74.24652
918.45        74.54565
918.84        75.04622
919.24        75.44594
919.64         75.3433
920.03        74.67256
920.42        73.56768
920.82        72.48711
921.21        71.93076
921.61        72.00658
922.00        72.62672
922.40        73.45101
922.79        73.98175
923.19        74.00213
923.58        73.65644
923.98         73.2898
924.37        73.37966
924.77        74.02843
925.16        75.11385
925.55        76.23065
925.95        76.65353
926.34        76.23461
926.74        75.17592
927.13        73.98364
927.52        73.41379
927.92        73.63099
928.31        74.39955
928.70        75.30375
929.10        75.63346
929.49        75.23089
929.89        74.35131
930.28        73.36913
930.67        72.83478
931.07        72.89382
931.46        73.35773
931.85        74.05814
932.24        74.75388
932.64        75.30243
933.03        75.86475
933.42        76.29571
933.82        76.38095
934.21        76.14137
934.60        75.58731
934.99        75.05278
935.39        75.04467
935.78        75.63678
936.17         76.6702
936.56        77.76083
936.96        78.24525
937.35        77.99303
937.74        77.20286
938.13        76.13262
938.53        75.19582
938.92        74.55058
939.31        74.15282
939.70         74.0435
940.09        74.29661
940.49        74.81486
940.88        75.54897
941.27        76.39094
941.66        77.14179
942.05        77.65453
942.44        77.97702
942.84        77.76141
943.23        76.48914
943.62        74.30582
944.01        71.59998
944.40        69.24178
944.79        68.30473
945.18        68.91582
945.57        70.80672
945.97        73.28799
946.36        75.19391
946.75        75.85307
947.14         75.5739
947.53        74.84538
947.92         74.5251
948.31        74.85988
948.70         75.4781
949.09        76.20797
949.48        76.81227
949.87        77.16608
950.26        77.44907
950.65        77.48335
951.04        76.92731
951.43        75.81891
951.82        74.29338
952.21        72.87712
952.60        72.37462
952.99        72.92166
953.38        74.28088
953.77        75.89904
954.16         76.8028
954.55        76.67463
954.94        75.75219
955.33        74.45879
955.72        73.51397
956.11        73.15035
956.50        73.17873
956.89        73.32266
957.28        73.13367
957.66        72.52955
958.05        71.70295
958.44        70.97733
958.83        70.82012
959.22        71.32578
959.61        72.29179
960.00        73.41732
960.39        74.19023
960.78        74.42088
961.16        74.26125
961.55        73.81498
961.94        73.24886
962.33        72.66968
962.72        72.02064
963.11        71.48318
963.49        71.38653
963.88        71.72841
964.27        72.46265
964.66        73.28117
965.04        73.65562
965.43        73.39954
965.82        72.70435
966.21        71.86031
966.60        71.36578
966.98        71.39358
967.37        71.76848
967.76        72.35681
968.15        72.91896
968.53        73.36692
968.92        73.72417
969.31        74.01164
969.69        74.23936
970.08        74.37852
970.47        74.41394
970.86        74.34844
971.24         74.2126
971.63          74.034
972.02        73.88859
972.40        73.84847
972.79        73.95224
973.17        74.28633
973.56        74.75038
973.95         75.4279
974.33        76.47632
974.72        77.79159
975.11        79.33311
975.49        80.86862
975.88         81.7394
976.26        81.73145
976.65        80.93881
977.04        79.59303
977.42        77.98285
977.81        76.31733
978.19        74.55486
978.58        72.94691
978.96        71.66618
979.35        70.79405
979.74        70.28094
980.12         70.0872
980.51        69.98132
980.89        69.97276
981.28        70.11644
981.66        70.36822
982.05         70.5742
982.43        70.72657
982.82        70.74997
983.20        70.95413
983.59        71.87186
983.97        73.63741
984.35        76.10292
984.74        78.41287
985.12        79.30628
985.51        78.29396
985.89        75.94128
986.28        73.28046
986.66        71.43359
987.04        70.76873
987.43        70.82482
987.81        71.47444
988.20        72.27625
988.58        73.07041
988.96        74.07052
989.35        74.75731
989.73        74.41713
990.12        72.98637
990.50        70.59415
990.88        68.35394
991.27        67.94664
991.65        69.71046
992.03        73.42972
992.42        77.56918
992.80        79.16743
993.18        77.07066
993.56        72.55285
993.95        67.99378
994.33        65.83725
994.71        66.60957
995.10         69.5089
995.48        73.62063
995.86        76.31068
996.24        76.40141
996.63        74.86365
997.01        72.78701
997.39        71.62627
997.77        71.77273
998.15        72.56206
998.54        73.92944
998.92        75.89234
999.30        78.23041
999.68        81.11478
1000.06        83.49133
1000.45        83.36914
1000.83        80.65121
1001.21        75.99472
1001.59        71.31725
1001.97        69.23155
1002.35         70.1742
1002.73        73.43723
1003.12        77.75549
1003.50        80.75795
1003.88        81.45658
1004.26        80.59524
1004.64        78.89414
1005.02        77.56297
1005.40        76.98055
1005.78        76.52576
1006.16        76.28021
1006.54          76.454
1006.92        77.01912
1007.30        78.26119
1007.69        79.19237
1008.07        78.02498
1008.45        74.70248
1008.83        70.11113
1009.21        66.27419
1009.59        65.39291
1009.97        67.61697
1010.35         72.5975
1010.73        78.68079
1011.11        81.74285
1011.49        79.92162
1011.86        74.02642
1012.24        67.23148
1012.62        64.37997
1013.00        66.90175
1013.38        74.27239
1013.76        83.79615
1014.14        87.90164
1014.52        84.10912
1014.90        76.23267
1015.28        68.89964
1015.66        66.20029
1016.04        68.37171
1016.41        74.43439
1016.79        82.91039
1017.17        90.08348
1017.55              93
1017.93        92.29678
1018.31        88.04642
1018.69        81.64685
1019.06        75.00647
1019.44        68.95956
1019.82        64.65564
1020.20        62.86702
1020.58        63.19552
1020.95        65.57227
1021.33        69.22436
1021.71        71.86813
1022.09        72.26868
1022.46        70.56983
1022.84        68.41695
1023.22         67.9759
1023.60        69.80366
1023.97        73.96824
1024.35        78.50272
1024.73         77.9411
