SpectraSmart Spectrum 2.9.0.0
--------- Device Information -----------
Spectrum Name :  反射率_0
Saving Time :  2024/05/03 19:56:25
Spectro-Module Model Name : SE2030-DUVN
Spectro-Module Serial Number : OS361AC55029948
Wavelength Start : 200
Wavelength End : 1025
Wavelength Unit : Wavelength(nm)
Spectrum Unit : Reflectance(%)
-----------Spectrum Setting ------------
Integration Time : 20ms
Average : 10
Boxcar : 0
Background removal :  enabled
linearity correction :  enabled
SC :  disabled
Intensity correction :  disabled
DWT denoise :  enabled
savitzky-golay :  disabled
FFT :  disabled
Running average :  disabled
Kalman :  disabled
High pass :  disabled
---------------BEGIN--------------------
Wavelength(nm)             Reflectance(%)
200.29               0
200.75       -53.77437
201.21       -78.81329
201.67         1892.55
202.13        66.26112
202.58        49.29188
203.04        51.16621
203.50        57.91108
203.96        67.55093
204.42        84.69122
204.88          145.09
205.34       -2002.643
205.80       -156.8049
206.26       -175.4534
206.72       -45377.74
207.18        179.7549
207.64        126.0614
208.10        134.5428
208.55        221.7526
209.01        1103.857
209.47        1417.586
209.93         223.303
210.39        105.9112
210.85        76.82137
211.31        73.53107
211.77        85.22076
212.23        122.1628
212.69        222.3938
213.14        300.4716
213.60        176.2538
214.06        89.87122
214.52        55.87568
214.98        47.42191
215.44        55.52224
215.90        106.2124
216.36       -645.9065
216.81       -119.2044
217.27       -113.7435
217.73       -188.0789
218.19       -659.5248
218.65       -12771.58
219.11       -888.3588
219.57       -221.2836
220.02       -118.9741
220.48       -209.8605
220.94        278.1527
221.40        100.1004
221.86        73.95593
222.32        66.30963
222.77        64.18954
223.23        65.46684
223.69        68.42152
224.15        66.69734
224.61         59.2391
225.06        51.51915
225.52        47.81094
225.98        49.11864
226.44        54.80957
226.90        64.57613
227.36        76.72933
227.81        83.63229
228.27        80.58928
228.73        71.86034
229.19        61.75749
229.65         53.3711
230.10        47.06167
230.56        42.41885
231.02        39.28298
231.48        37.75873
231.93        37.49485
232.39        38.23998
232.85        39.51229
233.31        40.71321
233.77        41.63822
234.22         42.3125
234.68        42.85299
235.14        43.45735
235.60        44.20656
236.05        45.18543
236.51        45.99337
236.97        46.05994
237.43        45.31595
237.88        44.14766
238.34        43.52034
238.80        44.63398
239.26        48.23269
239.71         57.5449
240.17        71.85426
240.63        89.22295
241.08        98.56892
241.54         94.0227
242.00         84.2961
242.46        82.98869
242.91        94.37408
243.37        121.2751
243.83        171.1459
244.28        226.4926
244.74        234.4622
245.20          194.62
245.66        140.9771
246.11        104.3141
246.57        86.60677
247.03        77.82987
247.48        74.05461
247.94        71.53519
248.40        68.89032
248.85        67.55299
249.31         67.3266
249.77        66.77033
250.22        66.03011
250.68        65.57077
251.14        66.61659
251.59        71.49572
252.05        81.45024
252.51        97.84458
252.96        121.4613
253.42        142.1049
253.88        146.4066
254.33        135.7249
254.79        117.9774
255.25        100.3271
255.70        86.43605
256.16        76.94675
256.62         70.8567
257.07        67.38881
257.53        65.88522
257.99        65.18242
258.44         64.4816
258.90        63.57928
259.35        62.04787
259.81        60.55742
260.27        58.95657
260.72        57.15417
261.18        55.57819
261.63         54.0087
262.09        52.73853
262.55        51.67918
263.00        50.68343
263.46        49.76487
263.91        48.81747
264.37        47.99963
264.83        47.25605
265.28        46.55083
265.74        45.78625
266.19        44.58762
266.65        43.06521
267.11        41.29489
267.56        39.58702
268.02        38.45407
268.47         37.9066
268.93         37.8045
269.38        37.79911
269.84        37.30919
270.30        36.25272
270.75        34.85775
271.21        33.52965
271.66        32.74511
272.12        32.58176
272.57        32.79012
273.03        33.11808
273.48        33.19686
273.94        32.91035
274.39        32.39435
274.85        31.67542
275.31        30.69945
275.76        29.53043
276.22        28.26143
276.67        27.12379
277.13        26.52385
277.58        26.41943
278.04        26.70569
278.49        27.01507
278.95        26.81722
279.40        26.00653
279.86        24.87334
280.31        23.71335
280.77        22.99664
281.22        22.71661
281.68        22.73416
282.13        22.82934
282.59        22.74449
283.04        22.40575
283.50        21.94438
283.95        21.45933
284.41        21.10098
284.86        20.90333
285.32        20.84147
285.77        20.86401
286.22         20.9528
286.68        21.09364
287.13        21.25638
287.59        21.46517
288.04        21.71519
288.50        22.00456
288.95        22.28934
289.41        22.51414
289.86        22.55388
290.32        22.42668
290.77        22.18832
291.22        21.95404
291.68        21.87329
292.13        21.99418
292.59        22.32239
293.04        22.84581
293.50        23.54112
293.95        24.37374
294.40         25.3404
294.86        26.44632
295.31        27.71029
295.77        29.13843
296.22        30.70818
296.68        32.34268
297.13        33.90008
297.58        35.31531
298.04          36.637
298.49        37.91924
298.95        39.31603
299.40        40.86803
299.85        42.56013
300.31        44.41484
300.76        46.41933
301.21        48.56521
301.67        50.85591
302.12        53.18869
302.58         55.4297
303.03         57.4953
303.48        59.40639
303.94        61.28219
304.39        63.23685
304.84        65.35448
305.30        67.60555
305.75        69.86984
306.20        71.99767
306.66        73.96067
307.11        75.75468
307.57         77.4939
308.02        79.21879
308.47        80.99242
308.93        82.78503
309.38        84.53884
309.83        86.26995
310.29        87.96358
310.74         89.5947
311.19        91.10773
311.65        92.39227
312.10        93.40298
312.55        94.17441
313.00        94.78819
313.46        95.39155
313.91        96.01265
314.36        96.67245
314.82        97.36007
315.27        98.01597
315.72        98.64559
316.18        99.27003
316.63         99.9439
317.08        100.7677
317.53        101.7465
317.99        102.8227
318.44        103.8809
318.89        104.6712
319.35        105.1279
319.80        105.3144
320.25         105.385
320.70        105.6171
321.16        106.0642
321.61        106.6681
322.06        107.2781
322.51        107.6473
322.97        107.7054
323.42        107.5749
323.87        107.3652
324.32         107.262
324.78        107.3207
325.23        107.5305
325.68        107.8491
326.13        108.2232
326.59        108.5995
327.04        109.0545
327.49         109.564
327.94        110.1228
328.39        110.7118
328.85        111.2576
329.30        111.7991
329.75        112.2614
330.20         112.627
330.66        112.8842
331.11        113.0847
331.56        113.1884
332.01        113.2254
332.46        113.2254
332.92        113.2504
333.37        113.5303
333.82         114.067
334.27        114.8186
334.72        115.6817
335.17        116.4707
335.63        117.0758
336.08        117.5811
336.53        117.9729
336.98        118.3075
337.43        118.6073
337.88        118.8502
338.34        119.0368
338.79         119.203
339.24        119.3686
339.69        119.5853
340.14        119.8685
340.59        120.2235
341.05         120.653
341.50        121.1484
341.95        121.7638
342.40        122.6016
342.85        123.6395
343.30         124.812
343.75        125.9018
344.20        126.5708
344.66        126.7757
345.11        126.6122
345.56        126.3202
346.01         126.275
346.46        126.5783
346.91        127.1099
347.36        127.7666
347.81        128.3763
348.26        128.8673
348.72        129.3122
349.17        129.6439
349.62        129.7776
350.07        129.7176
350.52        129.4738
350.97        129.1909
351.42        129.1189
351.87        129.2929
352.32        129.6217
352.77        129.9381
353.22        129.9686
353.67        129.6518
354.13        129.1241
354.58        128.4382
355.03        127.7554
355.48        127.1507
355.93        126.5967
356.38        126.1481
356.83        125.8901
357.28        125.8126
357.73        125.8725
358.18        125.9555
358.63        125.8705
359.08        125.5509
359.53         125.028
359.98        124.3289
360.43        123.5205
360.88        122.6301
361.33        121.6324
361.78        120.5761
362.23        119.5255
362.68         118.508
363.13         117.562
363.58        116.6119
364.03        115.5291
364.48        114.3183
364.93        113.0214
365.38        111.8535
365.83        111.1332
366.28        110.8911
366.73        111.0158
367.18        111.1698
367.63        110.8155
368.08        109.8315
368.53         108.375
368.98        106.8081
369.43        105.6817
369.88        105.1254
370.33        104.9936
370.78        104.9739
371.23        104.5455
371.68         103.586
372.13        102.2736
372.58         100.958
373.03        100.1548
373.48        99.95331
373.93        100.1583
374.38        100.4107
374.83        100.1378
375.28         99.1991
375.72        97.77467
376.17        96.24691
376.62        95.01452
377.07        94.18209
377.52        93.61951
377.97        93.18649
378.42        92.67722
378.87        92.04208
379.32        91.36909
379.77        90.74863
380.22        90.27901
380.67        89.96259
381.11        89.76331
381.56        89.53856
382.01        89.15007
382.46        88.57799
382.91        87.88169
383.36         87.1955
383.81        86.70372
384.26        86.43337
384.71        86.32739
385.15        86.24635
385.60        86.00063
386.05        85.53517
386.50        84.90712
386.95        84.25035
387.40        83.76472
387.85        83.48939
388.29        83.32665
388.74        83.20998
389.19        82.85201
389.64        82.21735
390.09        81.40309
390.54        80.60468
390.98        80.05351
391.43         79.8262
391.88         79.9492
392.33        80.23728
392.78        79.94024
393.23        79.19793
393.67        79.18751
394.12        79.73667
394.57        79.14679
395.02        77.68121
395.47        77.22095
395.91        77.76015
396.36         77.8111
396.81        77.35754
397.26        77.26024
397.71        77.39738
398.15        77.27087
398.60        76.96281
399.05        76.29813
399.50        75.54223
399.95        75.65397
400.39        76.42883
400.84        76.30385
401.29        75.35645
401.74        74.93223
402.18        75.09103
402.63        75.10918
403.08        75.02065
403.53        74.58157
403.97        74.83752
404.42        74.82304
404.87        74.80481
405.32         74.6564
405.76        74.36602
406.21        74.10559
406.66        73.86517
407.11        73.48893
407.55        73.13692
408.00        73.10411
408.45        73.36918
408.90        73.84885
409.34        74.23386
409.79        73.75832
410.24        72.69057
410.68        72.18838
411.13        72.34703
411.58        72.53546
412.03        72.57841
412.47        72.49715
412.92        72.22128
413.37        71.76742
413.81        71.32738
414.26        71.25729
414.71        71.56989
415.15        72.22181
415.60        72.88794
416.05        73.08137
416.49         72.6825
416.94        71.87326
417.39        71.03589
417.83        70.71939
418.28        71.04475
418.73        71.82876
419.17        72.77441
419.62        73.31516
420.07        73.28192
420.51        72.83088
420.96         72.2254
421.41        71.72259
421.85         71.3879
422.30         71.3589
422.74        71.45627
423.19        71.24205
423.64        70.80206
424.08        70.92684
424.53        71.57568
424.98         72.0131
425.42        72.16264
425.87        72.59295
426.31        73.21394
426.76        73.12622
427.21        72.58018
427.65        72.92281
428.10         73.8685
428.54        74.25816
428.99        73.60478
429.44         72.8194
429.88        72.10087
430.33        72.37094
430.77        73.26503
431.22        73.49033
431.66        73.02935
432.11        72.80187
432.56        72.87304
433.00        73.20415
433.45        73.68573
433.89        74.09913
434.34        71.64077
434.78        74.14326
435.23        74.55856
435.67        72.62782
436.12        71.83405
436.57        71.95337
437.01        74.07656
437.46        75.02721
437.90        74.56178
438.35        73.96092
438.79        74.32237
439.24        74.15408
439.68        73.80541
440.13         73.6675
440.57         73.7848
441.02        73.72703
441.46        73.50432
441.91        74.06856
442.35        74.98074
442.80        74.65817
443.24        73.45516
443.69        73.63856
444.13        75.02466
444.58        75.68738
445.02        75.42078
445.47        74.92857
445.91        74.45882
446.36        74.35673
446.80        74.66875
447.24        75.15566
447.69        75.61859
448.13        75.86699
448.58        75.84672
449.02        75.59309
449.47        75.28082
449.91        75.14255
450.36        75.25225
450.80        75.49236
451.25        75.78255
451.69        75.95769
452.13        75.98405
452.58        75.93896
453.02        75.81757
453.47        75.65228
453.91         75.4492
454.36        75.15003
454.80        74.83783
455.24        74.76733
455.69        74.92359
456.13        75.08041
456.58        75.10503
457.02         75.0802
457.46        74.32833
457.91        74.25033
458.35         74.4996
458.79        74.64291
459.24        74.55669
459.68         74.0881
460.13        73.43559
460.57        73.18138
461.01        73.45068
461.46        73.61028
461.90        73.27674
462.34         74.3214
462.79        72.49021
463.23        72.25816
463.68        72.43294
464.12        72.73519
464.56        72.95081
465.01        73.00821
465.45        72.90776
465.89        72.75231
466.34        72.63632
466.78        72.95409
467.22        73.29797
467.67        73.14597
468.11        73.12262
468.55        72.87279
468.99        72.69247
469.44        72.54347
469.88        72.47032
470.32        72.47602
470.77        72.52386
471.21         72.5798
471.65        72.60009
472.10        72.59218
472.54        72.54001
472.98        72.41126
473.42        72.20205
473.87        72.06139
474.31        71.92172
474.75        71.47787
475.20          70.873
475.64        70.74736
476.08        71.09769
476.52        71.12325
476.97        70.72829
477.41        71.24926
477.85         71.2577
478.29        71.12305
478.74        71.36769
479.18        71.58804
479.62        71.97017
480.06        72.00477
480.50        71.62846
480.95        71.40807
481.39         71.4826
481.83        70.44266
482.27        70.61926
482.72        71.01675
483.16        70.81362
483.60        70.96735
484.04        71.20541
484.48        71.10778
484.93        70.75967
485.37        71.23651
485.81        72.48936
486.25        71.40213
486.69        72.27277
487.14        72.52274
487.58        70.19001
488.02        70.12843
488.46        71.61887
488.90        69.80508
489.34        71.26229
489.79        71.36073
490.23        71.12612
490.67        71.17455
491.11        71.25222
491.55        71.21284
491.99        71.01227
492.43        70.87839
492.88        70.82681
493.32        70.84303
493.76        70.90427
494.20        70.91649
494.64         70.8469
495.08        70.88338
495.52        71.00833
495.96        70.74051
496.41        70.25677
496.85         70.6043
497.29        71.53712
497.73        71.59566
498.17        70.83572
498.61        70.52681
499.05        70.76037
499.49        70.81559
499.93         70.6563
500.37        70.64597
500.82        70.71378
501.26        70.48045
501.70        70.04829
502.14        69.96638
502.58        70.20953
503.02        70.28748
503.46        70.18024
503.90        70.18526
504.34        70.28242
504.78        70.29127
505.22        70.20005
505.66        70.05072
506.10        69.88226
506.54        69.81602
506.98        69.88094
507.42        69.93537
507.86        69.89688
508.30        70.20759
508.74        69.89214
509.18        69.75116
509.62        69.58114
510.06         69.5412
510.50        69.64865
510.94        69.86505
511.38        70.09666
511.82        70.16454
512.26          70.035
512.70        69.77497
513.14        69.47662
513.58        69.28312
514.02        69.23215
514.46        69.26731
514.90        69.36123
515.34        69.46807
515.78        69.56383
516.22        69.67838
516.66        69.75649
517.10        69.70683
517.54        69.52699
517.98        69.23583
518.42        68.96802
518.86        68.94363
519.30        69.19776
519.74        69.66235
520.18        70.15774
520.62        70.38609
521.06        70.27617
521.50        69.92172
521.93        69.48334
522.37         69.2365
522.81        69.24438
523.25        69.41648
523.69        69.64967
524.13        69.78114
524.57        69.76682
525.01        69.67897
525.45        69.55495
525.89        69.44608
526.32         69.3726
526.76        69.31323
527.20        69.29971
527.64        69.39619
528.08        69.59914
528.52        69.88866
528.96        70.16267
529.40        70.25697
529.83        70.12831
530.27        69.83772
530.71        69.49798
531.15        69.29721
531.59        69.28169
532.03        69.40791
532.46        69.56802
532.90         69.5875
533.34        69.43954
533.78        69.20181
534.22        68.98611
534.66        68.95287
535.09        69.11259
535.53        69.39511
535.97        69.71633
536.41        69.89532
536.85        69.87219
537.28        69.88958
537.72         69.9019
538.16         69.4062
538.60        68.64972
539.04        68.59865
539.47        69.14723
539.91        69.34889
540.35        69.15129
540.79        69.12537
541.22         69.2449
541.66        69.25164
542.10        69.14754
542.54         68.9044
542.97        68.63619
543.41        68.75466
543.85        69.14475
544.29        69.27692
544.72        69.14661
545.16        69.05936
545.60        68.96677
546.04        69.28707
546.47        69.00101
546.91         68.8039
547.35        68.51626
547.79        68.57909
548.22        68.92647
548.66         69.1723
549.10        69.26563
549.53        69.41313
549.97        69.57539
550.41        69.59662
550.84        69.43214
551.28        69.21374
551.72        69.02137
552.15         68.6926
552.59        68.23539
553.03        68.78096
553.46         68.3082
553.90        68.42142
554.34        68.47606
554.77        68.61662
555.21        68.51512
555.65        68.62937
556.08        68.82715
556.52          68.952
556.96        68.97532
557.39        68.90179
557.83        68.82928
558.27        68.92231
558.70        69.12791
559.14        69.26602
559.57        69.23692
560.01        68.97659
560.45         68.6105
560.88        68.43714
561.32        68.51471
561.75        68.75227
562.19        69.07953
562.63        69.02338
563.06        68.66416
563.50        68.93591
563.93        69.63967
564.37        69.40494
564.80        68.42908
565.24        68.29082
565.68        68.87622
566.11        69.00662
566.55        68.67642
566.98        68.41534
567.42        68.31306
567.85        68.55584
568.29        68.63353
568.72        68.72701
569.16         68.7597
569.60        68.77224
570.03        68.71381
570.47         68.9413
570.90        68.97458
571.34        68.48248
571.77        69.42465
572.21        68.82453
572.64        68.93301
573.08        68.74049
573.51        69.26695
573.95         69.0435
574.38        68.58961
574.82        68.15362
575.25        69.53955
575.69         69.7496
576.12        69.49557
576.56        68.45727
576.99        68.77531
577.42        69.26142
577.86        69.06078
578.29        69.10518
578.73        69.07143
579.16        69.36842
579.60        69.48241
580.03         69.4082
580.47        69.16929
580.90        69.21417
581.33        68.50557
581.77        68.64136
582.20        69.53091
582.64        69.46851
583.07        69.50548
583.51         68.8929
583.94        68.87109
584.37        68.70705
584.81        68.75294
585.24        68.70385
585.68        69.71967
586.11        68.72089
586.54        69.24593
586.98        68.32971
587.41        68.15076
587.85        68.91652
588.28        69.10526
588.71        68.96741
589.15        68.58716
589.58        68.98299
590.01        68.22608
590.45        68.14411
590.88        68.30605
591.31        68.73234
591.75        69.21781
592.18        68.90617
592.61        68.08098
593.05        68.06622
593.48        69.27483
593.91        69.29953
594.35        69.42966
594.78        68.75887
595.21        68.98224
595.65        68.74265
596.08         68.3755
596.51        69.08482
596.94        68.82131
597.38        68.84544
597.81        68.44305
598.24        69.10121
598.68        69.03409
599.11        68.12776
599.54        69.24228
599.97        68.89189
600.41        68.67014
600.84        68.55116
601.27        68.76717
601.70        68.43461
602.14         68.4417
602.57        68.59388
603.00        69.02335
603.43        69.01469
603.87        68.48212
604.30        68.61404
604.73        68.86962
605.16        68.82837
605.60        68.03461
606.03        68.11834
606.46        68.96022
606.89        68.04741
607.32        68.46529
607.76        67.98451
608.19        68.24625
608.62        68.37045
609.05        68.45467
609.48        68.34791
609.92        68.31857
610.35        67.67593
610.78        69.20114
611.21        69.65115
611.64        69.23351
612.07        69.01386
612.50        68.93643
612.94        68.78996
613.37        68.61684
613.80        68.58823
614.23         68.6566
614.66         68.5454
615.09        68.32078
615.52        68.35767
615.96        68.60716
616.39        68.85078
616.82         68.6506
617.25        68.67923
617.68        68.89437
618.11        68.51958
618.54        67.81303
618.97        67.63908
619.40        68.01865
619.84        68.32801
620.27        68.47249
620.70        68.70754
621.13        68.93763
621.56        68.60689
621.99        67.89261
622.42        67.84429
622.85        68.42373
623.28        68.37422
623.71         67.9694
624.14        67.97311
624.57        67.87678
625.00        67.61365
625.43        68.02235
625.86         68.1227
626.29        68.09058
626.72        68.66895
627.15        68.50529
627.58        68.51004
628.01        68.21745
628.44        68.46596
628.87        68.38215
629.30        67.87488
629.73        67.77994
630.16        68.13737
630.59        67.70522
631.02        67.73836
631.45        67.78707
631.88        67.86519
632.31         67.9407
632.74        68.05492
633.17        68.14836
633.60        68.17118
634.03        68.10355
634.46         67.9666
634.89        67.79618
635.32        67.65502
635.75        67.56508
636.18        67.51038
636.61        67.48363
637.04         67.4747
637.47        67.48125
637.89        67.49664
638.32        67.48141
638.75        67.47817
639.18        67.49816
639.61        67.25936
640.04        67.28885
640.47        67.21776
640.90        67.20929
641.33        67.24474
641.76        67.31773
642.18        67.41682
642.61        67.50421
643.04        67.58874
643.47        67.67304
643.90        67.76183
644.33        67.84805
644.76        67.93612
645.18        68.00911
645.61        67.95256
646.04        67.75655
646.47        67.61077
646.90        67.62715
647.33        67.17899
647.75        67.56077
648.18         67.7026
648.61        67.93396
649.04        68.11172
649.47        68.20561
649.89        68.32822
650.32        68.40815
650.75         68.2261
651.18        67.89278
651.61        67.81857
652.03        68.01441
652.46        68.17262
652.89        68.11285
653.32        67.92636
653.74        67.75447
654.17        67.16229
654.60        67.03188
655.03        68.25633
655.46        67.33981
655.88        66.61379
656.31        69.44614
656.74        72.77204
657.16        69.90941
657.59        67.39581
658.02        68.16712
658.45        68.93601
658.87        69.17911
659.30        68.22598
659.73        67.93243
660.15        68.33471
660.58        67.85349
661.01        67.64227
661.44         67.1635
661.86        66.95594
662.29        66.99678
662.72        67.20609
663.14        67.48183
663.57        67.29356
664.00         66.8031
664.42        66.82197
664.85        67.32584
665.27        67.56009
665.70        67.44985
666.13        67.41373
666.55        67.44794
666.98        67.30158
667.41        67.05784
667.83          66.954
668.26        67.01849
668.69           67.21
669.11        67.41284
669.54        67.43007
669.96        67.22862
670.39         66.8806
670.82        66.56975
671.24        66.53852
671.67        66.82887
672.09        67.41817
672.52         68.1218
672.94        68.19964
673.37        68.34636
673.80        67.88812
674.22        67.28204
674.65        66.97552
675.07        67.07675
675.50        67.37634
675.92        67.74289
676.35        67.97327
676.77        68.00748
677.20         67.9216
677.62        67.77374
678.05        67.65591
678.47        67.59892
678.90        67.56505
679.32        67.56135
679.75        67.66465
680.17        67.87659
680.60        68.09305
681.02        68.22227
681.45        68.53827
681.87        68.30298
682.30        68.12986
682.72        67.89067
683.15        67.71867
683.57        67.66936
684.00        67.73803
684.42        67.86647
684.85        67.97782
685.27        68.04755
685.70        67.96082
686.12        67.72141
686.54        68.00742
686.97        68.01725
687.39        67.90022
687.82        67.48521
688.24        67.26876
688.66        67.28302
689.09         67.2682
689.51        67.22432
689.94        67.30398
690.36        67.52328
690.78        67.70298
691.21         67.7259
691.63        68.32594
692.06        67.78223
692.48        68.04953
692.90        68.50911
693.33        68.66024
693.75          68.474
694.17        68.14246
694.60        67.80672
695.02        68.08913
695.44        68.05441
695.87        68.55386
696.29        69.09673
696.71        69.05452
697.14        68.48119
697.56        68.08606
697.98        67.99961
698.41        67.89288
698.83        67.77735
699.25        67.92782
699.68        68.21724
700.10        68.40196
700.52        68.41171
700.94        68.24944
701.37        67.96124
701.79        68.09614
702.21        67.96112
702.64        68.07939
703.06         68.1789
703.48        68.22092
703.90        68.19065
704.33        68.08219
704.75        67.92956
705.17        67.98109
705.59        67.88584
706.01        67.92101
706.44        67.98023
706.86        68.10345
707.28        68.26105
707.70        68.46703
708.12         68.6779
708.55        68.75481
708.97        68.70169
709.39        68.66748
709.81        68.66884
710.23        68.64069
710.66        68.59643
711.08        68.60236
711.50        68.65452
711.92        68.73472
712.34        68.83736
712.76         68.9663
713.19        69.06889
713.61        69.11695
714.03        69.07193
714.45        68.94328
714.87        68.78045
715.29        68.66071
715.71        68.59727
716.13        68.57288
716.56        68.53012
716.98        68.42066
717.40        68.21429
717.82        67.99624
718.24        67.83626
718.66        67.62502
719.08        67.72523
719.50        67.82091
719.92        67.99696
720.34        68.21832
720.76        68.46397
721.19        68.72166
721.61        68.93192
722.03        69.00627
722.45        68.96129
722.87        68.66398
723.29        68.22041
723.71        68.26917
724.13        68.85924
724.55        68.32251
724.97        68.74809
725.39         68.6958
725.81         68.7842
726.23        68.77979
726.65        68.71977
727.07        68.72065
727.49         68.7774
727.91        68.86804
728.33        68.97975
728.75        69.09857
729.17        69.21255
729.59        69.32688
730.01        69.42727
730.43        69.48663
730.85        69.50108
731.27        69.47617
731.69         69.4293
732.10        69.39789
732.52        69.38732
732.94        69.38171
733.36        69.35918
733.78        69.32843
734.20        69.30415
734.62        69.22491
735.04        69.06023
735.46        69.23795
735.88        68.97546
736.30         68.8841
736.72        68.82121
737.13        68.87819
737.55        69.00221
737.97        69.46147
738.39        70.05439
738.81        69.76226
739.23        68.83157
739.65        68.90651
740.06        69.81777
740.48         70.0034
740.90        69.39539
741.32        68.89684
741.74        68.68222
742.16        68.58372
742.57        68.65548
742.99        68.99183
743.41        69.46971
743.83        69.70097
744.25        69.69889
744.67         69.8718
745.08        70.22309
745.50        70.37946
745.92        70.33881
746.34        70.29591
746.75        70.25709
747.17        70.13779
747.59        69.93862
748.01        69.74831
748.42        69.58041
748.84        69.30612
749.26         68.9727
749.68        68.92741
750.09        69.14978
750.51        69.09045
750.93        68.90282
751.35        69.50714
751.76        70.68053
752.18        71.14687
752.60        70.78516
753.01        70.24957
753.43        69.73483
753.85        69.43368
754.27        69.42636
754.68        69.63354
755.10        69.94355
755.52         70.1797
755.93        70.30624
756.35        70.42243
756.77        70.46677
757.18        70.44377
757.60        70.40036
758.02        69.96864
758.43        69.42262
758.85        70.04356
759.26         71.5704
759.68        71.97263
760.10        71.17831
760.51        70.92269
760.93        70.72937
761.34        70.82973
761.76        70.96929
762.18        70.77602
762.59        70.36047
763.01        70.40106
763.42        70.90446
763.84        71.08794
764.26        70.92091
764.67        70.63155
765.09        70.37904
765.50         70.4053
765.92        70.64523
766.33        70.47536
766.75        69.93832
767.16        69.87479
767.58        70.28265
768.00        70.67493
768.41        70.99387
768.83        71.34068
769.24        71.58521
769.66        71.55562
770.07        71.26614
770.49        70.59926
770.90        70.06114
771.32        70.00914
771.73        70.49468
772.15        70.76666
772.56        70.79958
772.97        71.02965
773.39        71.39755
773.80        71.65108
774.22        71.71381
774.63        71.69191
775.05        71.58434
775.46        71.45755
775.88        71.32218
776.29        71.17922
776.70        71.06208
777.12        71.03778
777.53         71.1365
777.95        71.32629
778.36        71.53855
778.77        71.61607
779.19        71.53157
779.60        71.33922
780.02        71.13082
780.43        71.05219
780.84        71.15132
781.26         71.3616
781.67        71.65701
782.09        71.90905
782.50        72.12619
782.91        72.23894
783.33        72.62294
783.74        72.70519
784.15        72.56245
784.57        72.31534
784.98        72.06283
785.39        71.90825
785.81        71.88986
786.22        71.99011
786.63        72.13364
787.04        72.18881
787.46        72.14648
787.87        72.02095
788.28         71.8997
788.70        71.89767
789.11        72.01516
789.52        72.22104
789.93        72.45341
790.35        72.60399
790.76         72.6715
791.17        72.68834
791.58        72.67979
792.00        72.68191
792.41        72.73782
792.82        72.76213
793.23        72.78668
793.65        73.01018
794.06        73.39526
794.47        73.56027
794.88        73.42278
795.29        73.43871
795.71        73.09393
796.12        72.67014
796.53        72.17635
796.94        72.00253
797.35          72.225
797.76        72.73794
798.18        73.31029
798.59        73.61257
799.00          73.521
799.41        73.13572
799.82         72.6635
800.23        72.44189
800.64        72.55618
801.06        72.86436
801.47        73.28713
801.88        73.55846
802.29        73.58855
802.70        73.46073
803.11        73.24647
803.52        73.04922
803.93        72.90987
804.34        72.79433
804.75        72.70844
805.17        72.62975
805.58        72.57603
805.99        72.63993
806.40        72.79615
806.81        72.74505
807.22        72.57766
807.63        72.83584
808.04        73.42172
808.45        73.64194
808.86        73.41496
809.27        73.11892
809.68        72.86599
810.09        72.68585
810.50        72.63447
810.91         72.7114
811.32        72.86073
811.73         72.9836
812.14        73.04552
812.55        73.06862
812.96        73.08109
813.37        73.13146
813.78        73.22896
814.19        73.34725
814.60        73.44675
815.01        73.47889
815.42          73.437
815.83        73.33566
816.24        73.22658
816.65        73.20528
817.05        73.30292
817.46        73.45583
817.87        73.62629
818.28        73.70425
818.69        73.66365
819.10        73.53065
819.51        73.36471
819.92        73.27682
820.33        73.29746
820.74         73.3856
821.14        73.47874
821.55        73.50071
821.96        73.42609
822.37        73.30654
822.78        73.17449
823.19        73.08179
823.60        73.06119
824.00        73.10753
824.41        73.22968
824.82        73.52921
825.23        73.99448
825.64        74.57755
826.04        75.16734
826.45        75.47383
826.86        75.45965
827.27         75.2011
827.68        74.79069
828.08        74.41833
828.49        74.11919
828.90         73.8702
829.31        73.73651
829.72        73.81297
830.12        74.13039
830.53        74.62285
830.94        75.12682
831.35        75.29386
831.75        75.05344
832.16        74.43622
832.57        73.72208
832.97        73.34133
833.38        73.40264
833.79        73.78424
834.20        74.25037
834.60         74.4203
835.01        74.22563
835.42        73.79461
835.82        73.34222
836.23        73.16191
836.64        73.35159
837.04        73.82978
837.45        74.38419
837.86        74.78384
838.26        74.94573
838.67        74.90076
839.08         74.7314
839.48        74.54268
839.89        74.37874
840.29        74.17971
840.70        73.98804
841.11        73.81036
841.51        73.67233
841.92        73.60247
842.33        73.56617
842.73        73.49648
843.14        73.34698
843.54         73.1535
843.95        73.06507
844.35         73.3652
844.76        74.03776
845.17        74.99685
845.57        75.98093
845.98        76.38728
846.38        76.12327
846.79        75.37685
847.19        74.42331
847.60        73.72118
848.00        73.40202
848.41        73.31013
848.81         73.4677
849.22        73.80098
849.62         74.2915
850.03        74.89579
850.43        75.44196
850.84        75.49471
851.24         75.0208
851.65        74.11499
852.05        73.06339
852.46        72.35325
852.86        72.10555
853.27         72.2085
853.67        72.49476
854.07        72.92586
854.48        73.38572
854.88        73.97861
855.29        74.41889
855.69        74.39999
856.10        73.75118
856.50        72.66139
856.90        71.48965
857.31        70.81088
857.71        70.79828
858.12        71.26794
858.52        72.07963
858.92        72.74547
859.33        73.06155
859.73        73.18455
860.13         73.1728
860.54        73.15957
860.94        73.22152
861.34        73.25304
861.75        73.19925
862.15        73.10336
862.55        72.92529
862.96        72.70563
863.36        72.43817
863.76        72.10036
864.17        71.70461
864.57        71.31268
864.97        70.95353
865.38        70.65098
865.78        70.45364
866.18        70.31022
866.58         70.2759
866.99        70.44091
867.39        70.80724
867.79        71.30695
868.19        71.72971
868.60        71.73424
869.00        71.28218
869.40        70.49612
869.80        69.62949
870.21        69.14114
870.61        69.19624
871.01        69.61504
871.41        70.23601
871.81        70.81915
872.22        71.25414
872.62        71.66712
873.02        72.00439
873.42        72.15257
873.82        72.10442
874.22         71.8763
874.63        71.65137
875.03        71.69482
875.43         72.0512
875.83        72.60139
876.23        73.19178
876.63        73.53831
877.03        73.56277
877.44        73.42452
877.84        73.07285
878.24        72.45541
878.64        71.64491
879.04        70.64702
879.44        69.86399
879.84        69.88246
880.24        70.74162
880.64        72.28612
881.04        73.85703
881.44        74.25753
881.84        73.22469
882.24        71.19957
882.65         69.0331
883.05        67.83784
883.45        67.91105
883.85        68.93112
884.25        70.42342
884.65        71.50983
885.05        71.85728
885.45         71.7121
885.85        71.38597
886.25         71.3532
886.65        71.72171
887.05        72.27586
887.45        72.76389
887.85        72.82015
888.25        72.36376
888.65        71.58306
889.04        70.69513
889.44        70.03404
889.84        69.69759
890.24        69.61811
890.64        69.73938
891.04        69.96846
891.44          70.245
891.84        70.56881
892.24        70.94639
892.64        71.37641
893.04        71.85607
893.44        72.39915
893.83        72.89386
894.23        73.08555
894.63        72.96511
895.03         72.5403
895.43        72.15077
895.83        72.33725
896.23        73.16908
896.63        74.49792
897.02        75.73116
897.42        75.90466
897.82        74.86987
898.22         72.9716
898.62        70.97909
899.01        69.96778
899.41        70.17503
899.81        71.32268
900.21         72.7876
900.61        73.38997
901.00        72.78506
901.40        71.44333
901.80        70.08315
902.20        69.68232
902.59        70.45502
902.99         72.0552
903.39        73.96233
903.79        75.07399
904.18        74.98219
904.58        74.08468
904.98        72.95616
905.38        72.38216
905.77        72.52591
906.17        73.13356
906.57        73.91507
906.96        74.44933
907.36        74.53397
907.76        74.34073
908.15        74.00539
908.55        73.65081
908.95        73.38229
909.34        73.13923
909.74        72.91817
910.14        72.68131
910.53        72.43487
910.93         72.2523
911.33        72.19138
911.72        72.33942
912.12        72.69429
912.52        73.18592
912.91        73.76349
913.31        74.33118
913.70        74.85506
914.10        75.28016
914.49        75.54839
914.89        75.48994
915.29        75.12589
915.68        74.54242
916.08        73.88895
916.47        73.34936
916.87        73.02449
917.26        72.81147
917.66        72.78915
918.05        73.04919
918.45        73.53286
918.84        74.28267
919.24        74.89832
919.64        74.79671
920.03        73.89143
920.42        72.39349
920.82        70.93458
921.21        70.26024
921.61        70.51338
922.00        71.51717
922.40         72.8196
922.79        73.69379
923.19        73.82989
923.58        73.45616
923.98        72.93059
924.37        72.74638
924.77        73.03986
925.16         73.6698
925.55        74.38113
925.95        74.73357
926.34         74.6329
926.74        74.19167
927.13         73.6657
927.52        73.42551
927.92        73.54853
928.31        73.90556
928.70        74.26058
929.10        74.21275
929.49        73.70554
929.89        72.91114
930.28        72.10662
930.67        71.67989
931.07        71.73968
931.46        72.17746
931.85        72.88716
932.24        73.72102
932.64        74.54504
933.03        75.42778
933.42        76.19914
933.82        76.61413
934.21        76.64613
934.60        76.32318
934.99         75.8306
935.39        75.44531
935.78        75.24434
936.17        75.15747
936.56        75.13609
936.96         75.0955
937.35        75.04985
937.74        75.02719
938.13        74.93896
938.53        74.62108
938.92        74.06957
939.31        73.41976
939.70        72.89566
940.09        72.85754
940.49        73.30302
940.88        74.07108
941.27        75.03992
941.66        76.00057
942.05        76.77705
942.44        77.44808
942.84        77.56909
943.23        76.43504
943.62        74.17001
944.01        71.22444
944.40        68.60921
944.79        67.59781
945.18          68.346
945.57        70.51534
945.97        73.33582
946.36          75.465
946.75        76.14452
947.14        75.74113
947.53        74.74898
947.92        74.02802
948.31        73.86298
948.70        73.90205
949.09        74.10217
949.48        74.44243
949.87        74.85508
950.26        75.46126
950.65        75.96474
951.04        75.82087
951.43        74.97391
951.82        73.57309
952.21        72.16646
952.60         71.6024
952.99        72.04212
953.38        73.25773
953.77        74.65915
954.16        75.22408
954.55        74.66149
954.94         73.2484
955.33        71.60706
955.72        70.75581
956.11         70.9713
956.50        71.97243
956.89        73.17001
957.28        73.60374
957.66        73.04701
958.05        71.79762
958.44        70.47513
958.83        70.04848
959.22        70.74626
959.61        72.24078
960.00        73.93584
960.39        74.80161
960.78        74.53649
961.16        73.49947
961.55        72.16254
961.94        71.25245
962.33        70.99261
962.72        71.10548
963.11        71.48639
963.49        72.00498
963.88        72.50278
964.27        73.08727
964.66        73.50849
965.04        73.34032
965.43        72.48228
965.82        71.08424
966.21        69.61311
966.60        68.86961
966.98         69.0714
967.37        69.97882
967.76        71.18671
968.15        71.97749
968.53        72.14209
968.92        71.84058
969.31        71.32546
969.69          71.015
970.08        71.01804
970.47        71.19781
970.86        71.45117
971.24        71.63251
971.63        71.70915
972.02         71.8402
972.40        72.08725
972.79        72.45323
973.17        73.01343
973.56        73.62157
973.95         74.4511
974.33        75.83855
974.72        77.71021
975.11        79.99272
975.49         82.2345
975.88        83.31798
976.26        82.89455
976.65        81.22411
977.04        78.87919
977.42        76.61221
977.81        74.72924
978.19         73.0608
978.58        71.67806
978.96        70.47209
979.35        69.44488
979.74        68.63731
980.12        68.12456
980.51        67.85608
980.89        67.90052
981.28        68.26395
981.66        68.78746
982.05        69.13977
982.43        69.25743
982.82        69.10007
983.20        69.14507
983.59        70.18054
983.97        72.40321
984.35        75.64143
984.74        78.77615
985.12        80.00274
985.51        78.68352
985.89        75.55705
986.28        72.13572
986.66        70.21109
987.04         70.2698
987.43        71.68345
987.81        73.88601
988.20        75.54453
988.58        76.18922
988.96        76.30267
989.35        75.83761
989.73        74.83783
990.12        73.45068
990.50         71.5477
990.88        69.96516
991.27        70.00449
991.65        71.87835
992.03        75.47981
992.42        79.33604
992.80         80.6235
993.18        78.27827
993.56        73.55685
993.95        68.75794
994.33        66.19754
994.71        66.36429
995.10        68.45162
995.48        71.74667
995.86        74.10316
996.24        74.49786
996.63        73.72169
997.01        72.42319
997.39        71.43291
997.77        71.04623
998.15        70.81735
998.54         70.9889
998.92        72.16606
999.30        74.38033
999.68        77.60889
1000.06        80.79407
1000.45        81.87607
1000.83        80.54906
1001.21        77.40309
1001.59        73.93124
1001.97        72.19556
1002.35        72.61613
1002.73        74.64695
1003.12        77.47044
1003.50        79.63996
1003.88        80.47934
1004.26        80.43208
1004.64        79.91981
1005.02        79.64322
1005.40        79.76558
1005.78        79.83644
1006.16        79.72647
1006.54        79.29512
1006.92        78.47955
1007.30        77.56232
1007.69        76.20164
1008.07        73.94874
1008.45        71.08499
1008.83        68.02571
1009.21        65.85886
1009.59        65.72018
1009.97        67.64632
1010.35        71.55833
1010.73        76.30513
1011.11        78.94282
1011.49        78.10978
1011.86        74.23079
1012.24        69.74744
1012.62        68.49711
1013.00        71.61817
1013.38        78.76956
1013.76        87.50403
1014.14        90.98981
1014.52        87.13636
1014.90        79.51601
1015.28        72.46138
1015.66        69.76676
1016.04        71.65262
1016.41          77.269
1016.79        85.37027
1017.17        92.81671
1017.55          96.944
1017.93        98.21876
1018.31        96.16029
1018.69        91.09227
1019.06        84.54239
1019.44        77.77596
1019.82          72.462
1020.20        69.80026
1020.58        69.43038
1020.95        71.18008
1021.33        74.24302
1021.71        76.42606
1022.09        76.62943
1022.46        75.06519
1022.84        73.45168
1023.22        74.07502
1023.60        77.63983
1023.97        84.48601
1024.35        92.42128
1024.73        94.39931
