SpectraSmart Spectrum 2.9.0.0
--------- Device Information -----------
Spectrum Name :  反射率_0
Saving Time :  2024/05/03 20:13:32
Spectro-Module Model Name : SE2030-DUVN
Spectro-Module Serial Number : OS361AC55029948
Wavelength Start : 200
Wavelength End : 1025
Wavelength Unit : Wavelength(nm)
Spectrum Unit : Reflectance(%)
-----------Spectrum Setting ------------
Integration Time : 20ms
Average : 10
Boxcar : 0
Background removal :  enabled
linearity correction :  enabled
SC :  disabled
Intensity correction :  disabled
DWT denoise :  enabled
savitzky-golay :  disabled
FFT :  disabled
Running average :  disabled
Kalman :  disabled
High pass :  disabled
---------------BEGIN--------------------
Wavelength(nm)             Reflectance(%)
200.29               0
200.75       -39.93167
201.21       -89.06161
201.67        3296.401
202.13        130.5855
202.58        81.23775
203.04        65.19839
203.50          60.163
203.96        64.57796
204.42         83.0406
204.88        156.9125
205.34       -2586.476
205.80       -245.1688
206.26       -304.8037
206.72       -81669.52
207.18        317.9252
207.64        210.6885
208.10        203.1831
208.55        274.8271
209.01        1027.043
209.47        1177.555
209.93        221.5976
210.39        133.4526
210.85        112.9296
211.31         111.038
211.77        119.7474
212.23        147.3459
212.69        218.2266
213.14        255.0723
213.60        150.4159
214.06        88.35023
214.52        66.65427
214.98         64.0519
215.44        76.74237
215.90        138.6406
216.36       -782.9227
216.81       -151.5246
217.27        -167.978
217.73       -321.6023
218.19       -1240.723
218.65       -24879.18
219.11       -1700.462
219.57       -395.6829
220.02       -182.9531
220.48       -272.0971
220.94        349.1205
221.40        130.9186
221.86        101.4118
222.32        94.48785
222.77        95.16759
223.23        102.4988
223.69        116.3167
224.15         125.456
224.61         120.893
225.06        110.1796
225.52        103.3363
225.98        104.2017
226.44        112.1808
226.90        126.1844
227.36        143.7578
227.81        154.0751
228.27        150.1874
228.73        138.2247
229.19        124.4123
229.65        113.1561
230.10         104.732
230.56        98.71107
231.02          94.396
231.48        91.53056
231.93        89.73905
232.39         89.1379
232.85        89.43205
233.31        90.45942
233.77         92.0548
234.22        94.01865
234.68        96.26662
235.14        98.68765
235.60        101.1942
236.05        104.0455
236.51        106.3787
236.97        106.9827
237.43        105.7312
237.88        103.1493
238.34        101.0807
238.80         102.123
239.26        107.5891
239.71        119.7563
240.17        141.9832
240.63        168.4177
241.08          184.81
241.54        181.5995
242.00        169.0862
242.46        164.7903
242.91        173.8065
243.37        196.4176
243.83        238.9165
244.28        286.1386
244.74        291.0493
245.20        256.9336
245.66        210.6023
246.11        174.3398
246.57        151.0702
247.03        133.3712
247.48        121.3036
247.94        114.8872
248.40        112.4569
248.85        114.3298
249.31        117.3264
249.77        114.5111
250.22        106.6993
250.68        98.57862
251.14        95.02345
251.59        101.4211
252.05        120.0489
252.51        154.1759
252.96          206.23
253.42        255.4097
253.88        272.7467
254.33        258.7463
254.79        229.3914
255.25        200.4409
255.70        178.3316
256.16        163.7605
256.62        154.4446
257.07        148.8595
257.53        146.3882
257.99        145.1303
258.44        144.3247
258.90        144.3256
259.35        143.9219
259.81        143.9391
260.27        143.0974
260.72        140.2095
261.18        136.5845
261.63        132.2461
262.09        128.7825
262.55        126.7901
263.00        125.8596
263.46        125.6706
263.91        125.3156
264.37        124.2831
264.83         122.352
265.28        119.8452
265.74        117.1257
266.19        114.0079
266.65        110.8739
267.11        107.6245
267.56        104.6263
268.02        102.6233
268.47         101.534
268.93        101.1919
269.38        101.0253
269.84        100.0833
270.30        98.22667
270.75        95.79579
271.21        93.41915
271.66        91.78475
272.12        91.02179
272.57         90.6977
273.03        90.52862
273.48        90.08968
273.94        89.26444
274.39         88.2198
274.85        86.85441
275.31         84.7923
275.76        82.11909
276.22        79.18181
276.67        76.52621
277.13        75.16654
277.58        74.98678
278.04        75.66866
278.49         76.4186
278.95        76.11003
279.40        74.46725
279.86        72.14097
280.31        69.57758
280.77        67.59371
281.22        66.18113
281.68        65.19271
282.13        64.42051
282.59        63.76939
283.04        63.12232
283.50        62.59281
283.95        62.11998
284.41        61.70724
284.86        61.29198
285.32        60.92994
285.77        60.53726
286.22        60.12586
286.68        59.73328
287.13        59.28991
287.59        58.94804
288.04        58.79696
288.50        58.87609
288.95        59.08685
289.41        59.28249
289.86        59.14286
290.32         58.6785
290.77        57.97814
291.22        57.29214
291.68        56.94471
292.13        56.99446
292.59        57.40981
293.04        58.06623
293.50        58.77438
293.95        59.45479
294.40        60.15474
294.86        61.01389
295.31        62.21568
295.77        63.79184
296.22        65.63627
296.68        67.51979
297.13        69.06271
297.58        70.14214
298.04        70.92892
298.49        71.57387
298.95        72.41936
299.40        73.53084
299.85        74.82826
300.31        76.35186
300.76        78.09744
301.21        80.03376
301.67        82.16659
302.12        84.22953
302.58        85.87144
303.03         86.9837
303.48        87.69723
303.94        88.37089
304.39        89.41191
304.84        90.96647
305.30        92.89404
305.75        94.89664
306.20         96.5761
306.66        97.85535
307.11        98.81224
307.57        99.66551
308.02        100.5559
308.47        101.5965
308.93        102.7236
309.38        103.8602
309.83        105.0226
310.29        106.1892
310.74        107.3377
311.19        108.4089
311.65        109.2798
312.10        109.8969
312.55        110.2933
313.00        110.5431
313.46        110.7853
313.91         111.039
314.36        111.3288
314.82        111.6525
315.27        111.9628
315.72        112.2738
316.18        112.6073
316.63        113.0123
317.08        113.5818
317.53        114.3176
317.99        115.1594
318.44        116.0074
318.89        116.6306
319.35         116.964
319.80        117.0624
320.25        117.0485
320.70        117.1518
321.16        117.4142
321.61        117.7961
322.06        118.1748
322.51         118.355
322.97        118.2806
323.42        118.0562
323.87        117.7788
324.32        117.6154
324.78        117.6069
325.23        117.7518
325.68        117.9805
326.13         118.198
326.59        118.3414
327.04        118.4973
327.49        118.6915
327.94        119.0092
328.39        119.4582
328.85        119.9545
329.30        120.4804
329.75        120.8425
330.20        121.0021
330.66        120.9844
331.11         120.943
331.56        120.9964
332.01        121.2044
332.46        121.5301
332.92        121.9223
333.37        122.4339
333.82        122.9997
334.27        123.6253
334.72        124.2475
335.17        124.7585
335.63        125.0898
336.08        125.3107
336.53        125.4456
336.98        125.6151
337.43        125.8538
337.88        126.1383
338.34        126.4042
338.79        126.5714
339.24        126.6269
339.69        126.6433
340.14        126.6974
340.59         126.903
341.05        127.2841
341.50        127.7932
341.95        128.4156
342.40        129.1456
342.85        129.9412
343.30        130.7865
343.75        131.5274
344.20        131.9254
344.66        131.9681
345.11        131.7107
345.56        131.3819
346.01        131.3365
346.46        131.6587
346.91        132.2435
347.36          132.93
347.81        133.4504
348.26        133.7296
348.72        133.8692
349.17        133.9168
349.62        133.9772
350.07        134.0839
350.52        134.1736
350.97        134.2596
351.42        134.3857
351.87        134.5256
352.32        134.6464
352.77        134.6502
353.22        134.3771
353.67         133.816
354.13        133.0853
354.58         132.224
355.03        131.3752
355.48        130.6101
355.93          129.91
356.38        129.3598
356.83        129.0853
357.28        129.0654
357.73        129.2251
358.18        129.3699
358.63         129.183
359.08        128.5827
359.53        127.6631
359.98          126.53
360.43        125.3751
360.88        124.2695
361.33        123.1457
361.78        122.0706
362.23        121.1318
362.68        120.3322
363.13        119.6981
363.58        119.0303
364.03        117.9995
364.48        116.5787
364.93        114.8714
365.38        113.2484
365.83        112.2794
366.28        112.0563
366.73        112.3922
367.18        112.8402
367.63         112.675
368.08        111.7149
368.53        110.1781
368.98        108.4762
369.43        107.2342
369.88        106.6055
370.33         106.408
370.78        106.3259
371.23        105.8436
371.68        104.8369
372.13        103.4974
372.58         102.153
373.03        101.2736
373.48        100.9472
373.93        100.9977
374.38        101.1155
374.83        100.8116
375.28        99.96271
375.72        98.71281
376.17        97.39504
376.62        96.34063
377.07        95.62719
377.52         95.1316
377.97        94.71641
378.42        94.18255
378.87        93.48926
379.32        92.73299
379.77        92.00163
380.22        91.38779
380.67        90.90161
381.11        90.51514
381.56        90.13914
382.01        89.72231
382.46        89.25908
382.91        88.77859
383.36        88.32675
383.81        87.95896
384.26        87.67278
384.71        87.43947
385.15        87.19581
385.60        86.87856
386.05        86.46383
386.50        85.97356
386.95        85.45892
387.40        84.99625
387.85        84.60812
388.29        84.24394
388.74        83.93861
389.19        83.54447
389.64        83.04609
390.09        82.49194
390.54        81.97299
390.98        81.55112
391.43        81.27346
391.88        81.23746
392.33         81.3551
392.78        81.01705
393.23        80.38796
393.67        80.57816
394.12        81.36472
394.57        80.98051
395.02        79.64768
395.47        79.24029
395.91        79.74216
396.36         79.6835
396.81        79.06856
397.26        78.74312
397.71        78.64898
398.15        78.44312
398.60        78.24094
399.05        77.69283
399.50        77.01057
399.95        77.43963
400.39        78.63124
400.84        78.12691
401.29        76.24198
401.74        75.80665
402.18        76.78986
402.63        76.95071
403.08        76.31388
403.53        75.75439
403.97        76.34871
404.42        76.49075
404.87        76.44827
405.32        76.33604
405.76        76.13005
406.21        76.00475
406.66        75.88559
407.11        75.33527
407.55        74.58395
408.00        74.39802
408.45        74.76073
408.90        75.15228
409.34        75.29145
409.79        74.78583
410.24        73.89443
410.68        73.53465
411.13          73.783
411.58        74.10499
412.03        74.28728
412.47        74.24517
412.92        73.89117
413.37         73.2724
413.81        72.62655
414.26        72.37887
414.71        72.55612
415.15        73.09272
415.60        73.66252
416.05        73.77962
416.49        73.32596
416.94        72.49834
417.39         71.6503
417.83         71.2793
418.28        71.50061
418.73        72.13985
419.17        72.95708
419.62        73.48728
420.07        73.56995
420.51        73.31273
420.96        72.89599
421.41        72.43348
421.85         71.9641
422.30        71.74747
422.74        71.64763
423.19        71.12901
423.64        70.38024
424.08        70.53673
424.53        71.48792
424.98        72.05528
425.42        72.11659
425.87        72.42608
426.31        72.96529
426.76        72.97926
427.21        72.64336
427.65        72.94585
428.10        73.67807
428.54        73.83476
428.99        73.43952
429.44        72.82165
429.88        72.21229
430.33        72.32765
430.77         72.8696
431.22         72.8161
431.66         72.2041
432.11        71.89904
432.56         71.9362
433.00        72.29769
433.45        72.82798
433.89        73.18111
434.34        70.49688
434.78         73.3483
435.23        73.12007
435.67        71.88659
436.12        71.34222
436.57        71.45059
437.01        72.99896
437.46        73.70459
437.90        73.57688
438.35        72.55247
438.79        72.99898
439.24        72.80135
439.68        72.57737
440.13        72.44894
440.57        72.45199
441.02        72.04844
441.46        71.38922
441.91        72.08523
442.35        73.50516
442.80        73.03316
443.24        71.13054
443.69        71.18558
444.13        72.97698
444.58        73.55286
445.02        72.78887
445.47        72.33372
445.91        72.36553
446.36        72.42754
446.80        72.51344
447.24        73.07166
447.69        73.33966
448.13        73.53257
448.58        73.43193
449.02        73.09647
449.47        72.69398
449.91        72.46508
450.36        72.49169
450.80         72.6597
451.25         72.8807
451.69        72.97589
452.13         72.9119
452.58        72.76857
453.02        72.58148
453.47        72.43259
453.91        72.32821
454.36         72.2284
454.80        72.15556
455.24        72.13368
455.69        72.16087
456.13        72.34048
456.58        72.55297
457.02        72.35029
457.46        71.58279
457.91        71.49392
458.35        71.50143
458.79        71.63989
459.24        71.69093
459.68        71.38549
460.13        70.78137
460.57        70.85025
461.01        70.74114
461.46        70.57497
461.90        69.93533
462.34        70.76464
462.79        69.81576
463.23        69.70335
463.68        69.54047
464.12        69.46767
464.56        69.45892
465.01         69.6519
465.45        69.94006
465.89        69.88111
466.34        69.51998
466.78         69.5766
467.22          70.179
467.67        69.28237
468.11        69.78075
468.55        69.69118
468.99        69.82676
469.44        69.81658
469.88        69.67004
470.32        69.49688
470.77        69.30085
471.21        69.14417
471.65        69.01918
472.10        68.90668
472.54        68.81806
472.98        68.72944
473.42        68.62032
473.87         68.7224
474.31         68.8728
474.75        68.40686
475.20        67.57257
475.64        67.47041
476.08        68.03456
476.52        68.17889
476.97        67.84759
477.41        67.77744
477.85        68.03739
478.29        67.84337
478.74        68.10474
479.18        68.24364
479.62         68.5144
480.06          68.582
480.50        68.37926
480.95        68.34569
481.39        68.55003
481.83        67.66656
482.27        67.65744
482.72        68.05173
483.16        67.60575
483.60        67.61902
484.04        67.96809
484.48        67.81785
484.93        67.21767
485.37        68.42654
485.81        69.13114
486.25        68.33926
486.69        69.89117
487.14        70.20785
487.58        67.06892
488.02        67.07036
488.46        68.19019
488.90        66.82068
489.34        67.62904
489.79        68.06985
490.23        67.68433
490.67        67.74841
491.11         67.7254
491.55        67.65332
491.99        67.50935
492.43         67.4144
492.88         67.3987
493.32        67.50976
493.76        67.68228
494.20        67.72108
494.64        67.58279
495.08        67.46613
495.52        67.42236
495.96        67.12247
496.41        66.72266
496.85        67.15607
497.29        68.14632
497.73        68.12012
498.17        67.14716
498.61        67.00446
499.05        67.27115
499.49        67.17686
499.93        66.60851
500.37        66.39524
500.82        66.57985
501.26        66.31025
501.70        66.49064
502.14        66.55748
502.58        66.72001
503.02        66.80179
503.46         66.7905
503.90        66.61573
504.34         66.5148
504.78        66.41663
505.22        66.39737
505.66        66.43093
506.10        66.50145
506.54        66.53539
506.98        66.49904
507.42        66.63287
507.86        66.47459
508.30        66.44913
508.74        66.25951
509.18          66.062
509.62        65.86534
510.06         65.7866
510.50        65.84835
510.94        66.01437
511.38        66.21204
511.82        66.31396
512.26        66.28667
512.70        66.16949
513.14        66.01456
513.58        65.90665
514.02        65.86618
514.46        65.85498
514.90        65.85833
515.34        65.85361
515.78        65.83427
516.22        65.82992
516.66        65.80921
517.10        65.71609
517.54        65.55405
517.98        65.33511
518.42        65.16431
518.86        65.21143
519.30        65.49475
519.74        65.95195
520.18        66.42082
520.62        66.63649
521.06        66.53408
521.50        66.19507
521.93        65.75851
522.37        65.46547
522.81        65.37933
523.25        65.43284
523.69        65.55271
524.13        65.62006
524.57        65.60265
525.01         65.5545
525.45        65.50677
525.89        65.49966
526.32        65.54108
526.76        65.61008
527.20        65.70489
527.64        65.83807
528.08         66.0007
528.52        66.18715
528.96        66.34876
529.40        66.40925
529.83        66.34541
530.27        66.19181
530.71         66.0091
531.15        65.90298
531.59         65.8984
532.03        65.97466
532.46        66.06249
532.90        66.05005
533.34        65.92488
533.78        65.74091
534.22        65.57529
534.66        65.53842
535.09        65.63368
535.53        65.81357
535.97        66.02503
536.41        66.13805
536.85        66.10809
537.28        66.15033
537.72        66.20718
538.16         65.7781
538.60        65.08766
539.04        65.06031
539.47        65.59464
539.91        65.78993
540.35        65.59778
540.79        65.55727
541.22        65.65459
541.66         65.6656
542.10        65.59182
542.54        65.39964
542.97        65.17002
543.41        65.28181
543.85        65.63726
544.29        65.70978
544.72        65.48463
545.16        65.39599
545.60        65.43451
546.04        65.35897
546.47        65.19186
546.91        65.09518
547.35        65.08394
547.79        65.14215
548.22        65.23933
548.66          65.316
549.10        65.37445
549.53         65.5806
549.97        65.86544
550.41        65.97821
550.84        65.88097
551.28        65.71491
551.72        65.52692
552.15        65.29962
552.59         65.0808
553.03        65.03193
553.46         64.9018
553.90        64.86951
554.34        64.79652
554.77        65.00581
555.21        64.97425
555.65        65.00369
556.08        65.28796
556.52        65.73647
556.96        65.68539
557.39        65.74776
557.83        65.73669
558.27        65.56721
558.70        65.30319
559.14        65.22587
559.57        65.30035
560.01         65.2494
560.45        65.08747
560.88        65.03159
561.32         65.1061
561.75         65.1936
562.19        65.31989
562.63        65.30324
563.06        65.18958
563.50        65.54994
563.93        66.17616
564.37        65.97015
564.80        65.10968
565.24         64.9669
565.68        65.45045
566.11        65.52478
566.55        65.19925
566.98        64.96037
567.42        64.87186
567.85        65.08057
568.29         65.1456
568.72        65.14303
569.16        65.34608
569.60        65.43364
570.03        65.44538
570.47         65.5509
570.90         65.8199
571.34        65.27223
571.77        66.10418
572.21        65.93362
572.64        66.12995
573.08        65.59927
573.51        65.76337
573.95        65.51055
574.38        65.38989
574.82        65.27847
575.25        66.41479
575.69        66.52061
576.12        65.92683
576.56         65.4333
576.99        65.44895
577.42        66.47666
577.86        65.83913
578.29        65.92275
578.73        65.83281
579.16        65.91031
579.60        65.97073
580.03         66.0465
580.47        66.04596
580.90        65.89887
581.33        65.53365
581.77        66.04109
582.20        66.84934
582.64        66.64538
583.07        66.76196
583.51        66.30479
583.94        65.98225
584.37        65.73749
584.81        65.84379
585.24        65.78394
585.68        66.50259
586.11        66.27258
586.54        66.32993
586.98        65.08828
587.41        65.01115
587.85        66.13311
588.28        66.33501
588.71        65.97649
589.15        65.69325
589.58        65.95072
590.01        65.17368
590.45        64.81432
590.88        65.57066
591.31        65.90624
591.75         66.0112
592.18        65.72097
592.61        65.28246
593.05        65.31642
593.48        66.38595
593.91        66.41599
594.35        66.17692
594.78        65.95738
595.21        65.97784
595.65         65.8117
596.08        65.44985
596.51        65.86935
596.94        65.88576
597.38        65.87202
597.81        65.42021
598.24        65.94084
598.68        65.71334
599.11        64.92065
599.54         66.4692
599.97         65.5152
600.41          65.866
600.84        65.66629
601.27        65.78674
601.70        65.52067
602.14        65.34433
602.57         65.4722
603.00        65.93736
603.43        65.88228
603.87         65.3371
604.30        65.93533
604.73        65.69135
605.16        65.90637
605.60        65.02438
606.03         65.0857
606.46        65.74593
606.89        65.16893
607.32        65.62783
607.76        65.06459
608.19        65.44206
608.62        65.46278
609.05        65.42209
609.48        65.34988
609.92        65.48885
610.35        64.83128
610.78         65.9994
611.21        66.62656
611.64        66.08455
612.07        65.99338
612.50        66.03179
612.94        65.88783
613.37        65.55763
613.80        65.68997
614.23        65.56884
614.66        65.36927
615.09        65.45734
615.52         65.5333
615.96        65.65441
616.39        65.79443
616.82        66.03436
617.25        65.12391
617.68        65.91065
618.11        65.34283
618.54        64.54098
618.97        64.41389
619.40        64.96526
619.84        65.37599
620.27        65.49326
620.70        65.69739
621.13        65.90466
621.56         65.5599
621.99        64.85552
622.42        64.80639
622.85        65.32294
623.28        65.34641
623.71         64.8372
624.14        64.71514
624.57        64.40515
625.00        64.56195
625.43        64.79385
625.86        65.05168
626.29        65.07543
626.72        65.94411
627.15        65.48353
627.58        65.35229
628.01        65.13951
628.44        64.90527
628.87        64.78527
629.30        64.62537
629.73        64.51185
630.16        65.00587
630.59        64.66904
631.02        64.75603
631.45        64.84452
631.88        64.94987
632.31        65.05266
632.74        65.15755
633.17        65.23983
633.60        65.22619
634.03        65.11115
634.46         64.9203
634.89        64.69777
635.32        64.51524
635.75        64.39944
636.18        64.33638
636.61        64.31869
637.04        64.33415
637.47        64.37762
637.89        64.44001
638.32        64.48118
638.75        64.53772
639.18        64.61629
639.61        64.44468
640.04        64.51778
640.47        64.46991
640.90        64.45507
641.33        64.45558
641.76        64.48285
642.18        64.55514
642.61        64.64351
643.04         64.7526
643.47        64.85797
643.90        64.91898
644.33        64.92162
644.76        64.88497
645.18        64.83613
645.61        64.73329
646.04        64.58253
646.47        64.54681
646.90        64.68433
647.33        64.31598
647.75         64.6597
648.18        64.70891
648.61        64.83452
649.04        64.99458
649.47         65.1815
649.89        65.46198
650.32        65.69999
650.75         65.6302
651.18        65.34711
651.61        65.12394
652.03        65.03371
652.46        65.29852
652.89        65.67656
653.32        65.23459
653.74        64.41847
654.17        64.14217
654.60        64.52838
655.03          65.837
655.46        64.54478
655.88        63.70299
656.31        66.96093
656.74        71.81701
657.16        68.45602
657.59        64.81786
658.02        65.31502
658.45        66.05947
658.87        65.97816
659.30        65.00777
659.73        64.58538
660.15        65.01412
660.58        64.48768
661.01        64.35913
661.44        63.99111
661.86        63.85252
662.29        63.91163
662.72        64.13002
663.14         64.4257
663.57        64.30765
664.00        63.90753
664.42         63.9403
664.85         64.3783
665.27        64.53046
665.70        64.36181
666.13        64.31582
666.55        64.40197
666.98        64.37332
667.41        64.26437
667.83        64.22716
668.26        64.26604
668.69        64.35687
669.11        64.44888
669.54        64.41872
669.96        64.24431
670.39        64.06826
670.82        63.97759
671.24        63.82219
671.67        63.73068
672.09        64.27957
672.52        65.25817
672.94        65.37571
673.37        65.30563
673.80        64.83125
674.22        64.39299
674.65        64.16598
675.07        64.24471
675.50        64.54388
675.92        64.92171
676.35        65.11818
676.77        65.07706
677.20        64.88759
677.62        64.65296
678.05        64.53952
678.47        64.58337
678.90        64.71524
679.32        64.88714
679.75        65.06476
680.17        65.22104
680.60        65.35341
681.02        65.39568
681.45        65.48721
681.87        65.01176
682.30        64.90922
682.72        64.99765
683.15        64.93845
683.57        64.77647
684.00          64.873
684.42        65.16202
684.85         65.2884
685.27        65.21343
685.70        65.01874
686.12        64.78123
686.54        64.80344
686.97        65.01588
687.39        65.00421
687.82        64.74036
688.24        64.57498
688.66        64.51933
689.09        64.34435
689.51        64.12537
689.94        64.15174
690.36        64.46468
690.78        64.84508
691.21        65.09164
691.63        65.76783
692.06        65.18436
692.48         65.2744
692.90        65.51133
693.33        65.52628
693.75        65.32738
694.17        65.06197
694.60         64.8366
695.02        65.19717
695.44        65.22598
695.87        65.76886
696.29        66.34528
696.71        66.29709
697.14         65.6963
697.56        65.30724
697.98        65.23631
698.41        65.13322
698.83        64.89107
699.25        64.93555
699.68        65.14541
700.10        65.27679
700.52        65.26269
700.94        65.18436
701.37        65.09247
701.79        65.08428
702.21        65.16769
702.64        65.30267
703.06        65.42593
703.48        65.45222
703.90        65.37086
704.33        65.21864
704.75        65.06377
705.17        65.00052
705.59         65.0539
706.01        65.18246
706.44        65.35883
706.86        65.55327
707.28        65.71933
707.70        65.90154
708.12        66.05518
708.55        66.01594
708.97         65.8138
709.39        65.67387
709.81        65.63165
710.23        65.58376
710.66        65.54871
711.08        65.63115
711.50        65.79922
711.92        65.96587
712.34        66.10932
712.76        66.24406
713.19        66.33774
713.61        66.39726
714.03        66.39314
714.45        66.32317
714.87        66.20847
715.29        66.08472
715.71        65.96391
716.13        65.84776
716.56        65.71713
716.98        65.60632
717.40        65.50439
717.82         65.4215
718.24        65.37997
718.66         65.4119
719.08        65.51298
719.50        65.65602
719.92         65.8107
720.34        65.93021
720.76        66.00185
721.19        66.03222
721.61        66.01799
722.03         65.9556
722.45        65.88405
722.87         65.6527
723.29        65.33422
723.71        65.48734
724.13         66.1378
724.55        65.69948
724.97        66.15569
725.39         66.0853
725.81         66.0844
726.23        65.93481
726.65        65.73736
727.07        65.70781
727.49        65.86148
727.91        66.15293
728.33        66.49253
728.75        66.73034
729.17        66.81599
729.59        66.79076
730.01        66.72097
730.43        66.70826
730.85        66.78284
731.27        66.91597
731.69        67.04645
732.10        67.08612
732.52        67.00797
732.94        66.83968
733.36        66.65965
733.78        66.55371
734.20        66.54378
734.62        66.72817
735.04        66.99128
735.46        66.85827
735.88         66.4298
736.30        66.42404
736.72        66.81758
737.13         66.9286
737.55        66.67813
737.97        66.62052
738.39        66.76047
738.81        66.56818
739.23        66.19808
739.65        66.49407
740.06        67.25099
740.48        67.50754
740.90        67.18582
741.32        66.79971
741.74        66.49451
742.16        66.29779
742.57         66.2883
742.99        66.43703
743.41        66.69903
743.83        66.98566
744.25        67.25105
744.67        67.49736
745.08        67.72281
745.50        67.87619
745.92        67.96091
746.34        67.97712
746.75        67.90102
747.17        67.72595
747.59        67.46189
748.01        67.10868
748.42        66.77022
748.84        66.61467
749.26        66.63466
749.68        66.80154
750.09        67.02988
750.51        66.95895
750.93        66.72787
751.35        67.10133
751.76        67.93839
752.18        68.22948
752.60        67.90722
753.01        67.51383
753.43        67.21643
753.85        67.08156
754.27         67.1614
754.68        67.40696
755.10        67.72257
755.52        67.95506
755.93        68.08639
756.35         68.2008
756.77        68.23266
757.18          68.255
757.60        68.32829
758.02        67.90775
758.43        67.26987
758.85        68.21736
759.26        69.88168
759.68        70.06677
760.10        68.69887
760.51        68.00098
760.93        68.20088
761.34        68.26179
761.76         68.6694
762.18        68.38358
762.59         67.7585
763.01        67.86845
763.42        68.65852
763.84        68.82941
764.26        68.35757
764.67        67.80941
765.09         67.4481
765.50          67.648
765.92        68.25833
766.33        68.23927
766.75         67.6011
767.16        67.57556
767.58        68.18714
768.00        68.53096
768.41        68.58066
768.83         69.1134
769.24        69.86767
769.66        69.53933
770.07        68.36171
770.49        67.83459
770.90        68.00092
771.32        67.99728
771.73         67.8278
772.15        67.91022
772.56        68.26144
772.97        68.70792
773.39        69.12221
773.80        69.41518
774.22        69.49477
774.63        69.42241
775.05        69.23694
775.46        69.06603
775.88        68.93694
776.29        68.84365
776.70        68.78711
777.12        68.77341
777.53        68.81657
777.95        68.90441
778.36        69.00694
778.77        69.02925
779.19        68.96956
779.60         68.8683
780.02        68.76691
780.43        68.78707
780.84        68.96494
781.26        69.08846
781.67        69.21464
782.09        69.71432
782.50        70.39986
782.91        70.49874
783.33        70.04272
783.74        69.84691
784.15        69.93636
784.57        69.85365
784.98        69.64101
785.39        69.57599
785.81        69.67857
786.22        69.88489
786.63         70.0961
787.04        70.14277
787.46         70.0132
787.87        69.73827
788.28        69.46801
788.70         69.4025
789.11        69.55661
789.52        69.90076
789.93        70.29997
790.35        70.45596
790.76         70.3687
791.17        70.25806
791.58         70.1842
792.00        70.11531
792.41        70.10776
792.82        70.12805
793.23        70.22107
793.65        70.53947
794.06        71.02742
794.47        71.36248
794.88        71.41531
795.29        71.31699
795.71        71.02399
796.12        70.39552
796.53        69.66739
796.94        69.49477
797.35        69.95493
797.76        70.63358
798.18         71.2309
798.59        71.57403
799.00        71.52247
799.41        70.99986
799.82        70.36722
800.23        70.04968
800.64        70.19079
801.06        70.60345
801.47        71.15124
801.88        71.47562
802.29        71.45338
802.70        71.18817
803.11          70.823
803.52         70.5747
803.93        70.51537
804.34        70.58554
804.75        70.67686
805.17        70.62327
805.58        70.41823
805.99        70.07115
806.40         69.7352
806.81         69.7424
807.22           70.08
807.63        70.45671
808.04        70.76323
808.45        70.96674
808.86        71.00327
809.27        70.82809
809.68        70.55302
810.09        70.42958
810.50        70.52294
810.91        70.75078
811.32        71.04189
811.73         71.2831
812.14        71.42532
812.55        71.50332
812.96        71.51833
813.37        71.46671
813.78         71.3629
814.19        71.21385
814.60        71.04427
815.01        70.89177
815.42        70.76991
815.83        70.67478
816.24         70.6305
816.65        70.67223
817.05        70.80408
817.46        70.97892
817.87        71.16064
818.28        71.24536
818.69        71.21199
819.10        71.07841
819.51        70.91177
819.92        70.84406
820.33        70.90672
820.74        71.04753
821.14        71.19421
821.55        71.25484
821.96        71.19784
822.37        71.08199
822.78        70.92635
823.19        70.75977
823.60        70.62063
824.00        70.51972
824.41         70.5114
824.82        70.76628
825.23        71.29121
825.64        72.01893
826.04         72.8072
826.45        73.31051
826.86        73.46149
827.27        73.34382
827.68        73.03693
828.08        72.71535
828.49        72.41463
828.90        72.10796
829.31        71.88941
829.72        71.90699
830.12        72.20521
830.53        72.71295
830.94        73.23714
831.35         73.3733
831.75        73.03768
832.16        72.28333
832.57        71.42604
832.97        70.95316
833.38        70.98695
833.79        71.38621
834.20        71.89012
834.60        72.07682
835.01        71.87116
835.42        71.42647
835.82        70.96452
836.23        70.79173
836.64        71.00957
837.04        71.51315
837.45        72.12779
837.86        72.68274
838.26        73.09257
838.67        73.37244
839.08        73.47667
839.48        73.31145
839.89        72.89282
840.29        72.22299
840.70        71.53547
841.11        71.13166
841.51        71.10146
841.92        71.39966
842.33        71.80065
842.73        71.90404
843.14        71.57313
843.54        70.93993
843.95         70.3568
844.35         70.4249
844.76         71.2098
845.17        72.53409
845.57        73.94566
845.98        74.51279
846.38        74.05016
846.79        72.86027
847.19        71.42264
847.60        70.49535
848.00        70.27966
848.41        70.52561
848.81        71.09633
849.22        71.65875
849.62        72.11717
850.03        72.51097
850.43        72.80116
850.84        72.77995
851.24        72.47666
851.65        71.90515
852.05        71.23425
852.46        70.76347
852.86        70.55972
853.27        70.58293
853.67        70.74483
854.07        71.10036
854.48         71.5665
854.88        72.22158
855.29         72.7658
855.69        72.85915
856.10         72.3066
856.50        71.28734
856.90        70.17877
857.31        69.58565
857.71         69.6785
858.12        70.26498
858.52        71.11459
858.92        71.59074
859.33        71.47408
859.73        70.98448
860.13        70.35716
860.54         69.9969
860.94        70.04768
861.34        70.33991
861.75        70.67199
862.15        70.82406
862.55        70.67246
862.96        70.32501
863.36        69.87435
863.76        69.46509
864.17        69.15382
864.57        68.93784
864.97        68.77252
865.38        68.57332
865.78        68.36638
866.18        68.15582
866.58         68.0535
866.99        68.23723
867.39        68.73326
867.79        69.42653
868.19        70.09184
868.60        70.37565
869.00        70.21548
869.40        69.73309
869.80        69.10346
870.21        68.64919
870.61        68.52445
871.01        68.61237
871.41        68.87344
871.81        69.24717
872.22        69.66632
872.62        70.20124
873.02        70.76116
873.42        71.14533
873.82         71.2915
874.22        71.24247
874.63        71.12188
875.03         71.1083
875.43        71.24956
875.83         71.4463
876.23        71.67606
876.63        71.88695
877.03        72.05475
877.44        72.26796
877.84        72.32763
878.24        71.93913
878.64        71.10086
879.04        69.88115
879.44        68.78345
879.84        68.53528
880.24        69.21613
880.64        70.64771
881.04         72.1039
881.44        72.27863
881.84        70.91901
882.24        68.53928
882.65        66.13596
883.05        65.02594
883.45        65.51822
883.85        67.19382
884.25        69.42001
884.65        71.02449
885.05        71.55714
885.45         71.3541
885.85        70.76752
886.25         70.3424
886.65        70.25354
887.05        70.27727
887.45        70.32244
887.85        70.29233
888.25        70.14642
888.65        69.98949
889.04        69.81575
889.44        69.60117
889.84        69.35438
890.24        69.10594
890.64        68.92413
891.04        68.93784
891.44        69.16168
891.84        69.51469
892.24        69.97272
892.64        70.49611
893.04        71.05307
893.44        71.67918
893.83        72.22238
894.23        72.34444
894.63        72.03093
895.03        71.32793
895.43        70.63181
895.83        70.57854
896.23        71.26868
896.63        72.51929
897.02        73.76221
897.42        74.06476
897.82        73.25596
898.22        71.66353
898.62        69.93616
899.01        68.97435
899.41        68.99514
899.81        69.76735
900.21        70.81511
900.61         71.2465
901.00        70.79492
901.40        69.81942
901.80        68.88308
902.20        68.76331
902.59        69.62164
902.99        71.16316
903.39        72.89764
903.79        73.79075
904.18        73.48803
904.58        72.38947
904.98        71.06883
905.38         70.3022
905.77        70.25628
906.17        70.69046
906.57        71.37901
906.96        71.99446
907.36        72.34763
907.76        72.57822
908.15        72.69596
908.55        72.61337
908.95         72.3779
909.34        71.97606
909.74        71.53928
910.14        71.25088
910.53        71.16062
910.93        71.26421
911.33        71.50006
911.72        71.76129
912.12        71.99844
912.52        72.22055
912.91        72.46105
913.31        72.74924
913.70        73.09881
914.10        73.42065
914.49        73.65058
914.89        73.61259
915.29        73.31047
915.68         72.8309
916.08        72.29412
916.47         71.8292
916.87        71.52657
917.26        71.30632
917.66        71.25443
918.05        71.47836
918.45        71.93835
918.84        72.67309
919.24        73.33804
919.64        73.44194
920.03        72.88278
920.42        71.79577
920.82        70.71297
921.21        70.25739
921.61        70.55059
922.00        71.46996
922.40        72.55551
922.79        73.08166
923.19        72.79716
923.58        71.96278
923.98        71.09085
924.37        70.89172
924.77        71.52357
925.16        72.78247
925.55        74.23242
925.95         75.0726
926.34        75.07846
926.74        74.45986
927.13        73.59053
927.52        73.03747
927.92        72.95042
928.31        73.13613
928.70         73.3897
929.10        73.36449
929.49        73.00036
929.89        72.47451
930.28        71.95222
930.67        71.62744
931.07        71.56026
931.46        71.66998
931.85        71.98792
932.24        72.60301
932.64        73.44276
933.03        74.52752
933.42        75.51829
933.82        75.87669
934.21        75.52406
934.60         74.6019
934.99         73.5402
935.39        72.97834
935.78        73.06246
936.17        73.59975
936.56        74.31124
936.96        74.71617
937.35        74.70309
937.74        74.41812
938.13        73.93098
938.53        73.33729
938.92        72.71516
939.31        72.10823
939.70        71.68142
940.09         71.7131
940.49        72.17093
940.88        72.93845
941.27        73.89114
941.66        74.79727
942.05        75.48795
942.44        76.04594
942.84        76.06953
943.23        74.93197
943.62         72.7674
944.01        69.98808
944.40         67.5639
944.79        66.72266
945.18         67.6079
945.57         69.8941
945.97        72.79635
946.36        74.93561
946.75        75.54871
947.14        75.01659
947.53        73.86699
947.92        73.01598
948.31        72.76144
948.70        72.72928
949.09        72.88628
949.48        73.22161
949.87        73.65929
950.26        74.32914
950.65        74.85963
951.04        74.57995
951.43        73.43488
951.82        71.63096
952.21        69.85593
952.60        69.17517
952.99        69.78109
953.38        71.35355
953.77        73.19275
954.16        74.07988
954.55        73.64781
954.94        72.24568
955.33        70.46998
955.72        69.30465
956.11        69.06284
956.50        69.47366
956.89        70.16051
957.28        70.50954
957.66        70.35948
958.05        69.92564
958.44        69.52992
958.83        69.64716
959.22        70.37094
959.61        71.47208
960.00        72.62434
960.39        73.29864
960.78        73.30938
961.16        72.82729
961.55        72.02849
961.94        71.17318
962.33        70.40644
962.72        69.69259
963.11        69.13921
963.49        68.94061
963.88        69.07816
964.27        69.53396
964.66        70.17408
965.04        70.75718
965.43        71.13407
965.82        71.38252
966.21        71.48883
966.60        71.46903
966.98        71.36288
967.37        71.10806
967.76        70.85867
968.15        70.85936
968.53        71.17575
968.92        71.73586
969.31        72.31523
969.69        72.50697
970.08        72.18483
970.47        71.46712
970.86        70.68891
971.24         70.3889
971.63        70.70333
972.02        71.56027
972.40        72.60907
972.79        73.16484
973.17        73.13228
973.56        72.63303
973.95        72.24502
974.33        72.88779
974.72        74.65248
975.11        77.30107
975.49        80.20217
975.88        81.84869
976.26        81.71139
976.65        80.20238
977.04        77.93587
977.42         75.7284
977.81        73.92525
978.19        72.27188
978.58        70.97633
978.96        70.17714
979.35        69.87852
979.74        70.05374
980.12        70.45676
980.51        70.47371
980.89        70.05555
981.28        69.38337
981.66        68.68418
982.05         68.3161
982.43        68.43465
982.82        68.79062
983.20        69.60825
983.59        71.28682
983.97        73.87855
984.35        77.32015
984.74        80.45808
985.12        81.43076
985.51        79.63525
985.89        75.83901
986.28        71.68846
986.66        69.15239
987.04        68.73453
987.43        69.76158
987.81        71.67177
988.20         73.1318
988.58        73.66621
988.96        73.79263
989.35        73.33054
989.73        72.11252
990.12        70.25929
990.50        67.69419
990.88        65.50459
991.27        65.35317
991.65        67.54689
992.03        71.97691
992.42        76.88533
992.80        78.75607
993.18        76.29308
993.56        70.92265
993.95        65.56097
994.33        63.35541
994.71        64.92326
995.10        69.32468
995.48        75.17173
995.86        78.69359
996.24        78.24693
996.63        75.18329
997.01        71.29045
997.39        68.94031
997.77        68.75776
998.15        69.89836
998.54        71.95818
998.92        74.32787
999.30        76.55792
999.68        78.91905
1000.06        80.85782
1000.45        81.24893
1000.83        80.08681
1001.21        77.62897
1001.59        74.80625
1001.97        72.93869
1002.35        72.31772
1002.73        72.63667
1003.12        73.64399
1003.50        74.94421
1003.88        76.19418
1004.26        77.50158
1004.64         78.6126
1005.02        79.15177
1005.40        79.00045
1005.78         78.0384
1006.16         76.5965
1006.54        75.32449
1006.92        74.39903
1007.30        73.77904
1007.69        72.98598
1008.07        71.27094
1008.45        68.74986
1008.83        66.05547
1009.21        64.02139
1009.59         63.4177
1009.97        64.30429
1010.35        66.58131
1010.73        69.76592
1011.11        72.50414
1011.49        73.98331
1011.86         74.1443
1012.24        74.02558
1012.62        75.47536
1013.00        79.04047
1013.38        84.51997
1013.76        90.01831
1014.14        90.77204
1014.52        85.90472
1014.90        78.48783
1015.28        71.87608
1015.66         68.7332
1016.04         69.0756
1016.41        72.26625
1016.79        77.69517
1017.17        84.02583
1017.55        89.67287
1017.93        94.73789
1018.31        97.34121
1018.69        94.92924
1019.06        88.17143
1019.44        79.52277
1019.82        71.92153
1020.20        67.61497
1020.58        66.26169
1020.95        67.19027
1021.33        69.56376
1021.71        71.30056
1022.09         71.4052
1022.46           70.35
1022.84        69.34081
1023.22        69.84875
1023.60        72.34266
1023.97        76.81151
1024.35        82.04688
1024.73        84.26514
