SpectraSmart Spectrum 2.9.0.0
--------- Device Information -----------
Spectrum Name :  反射率_0
Saving Time :  2024/05/03 20:04:28
Spectro-Module Model Name : SE2030-DUVN
Spectro-Module Serial Number : OS361AC55029948
Wavelength Start : 200
Wavelength End : 1025
Wavelength Unit : Wavelength(nm)
Spectrum Unit : Reflectance(%)
-----------Spectrum Setting ------------
Integration Time : 20ms
Average : 10
Boxcar : 0
Background removal :  enabled
linearity correction :  enabled
SC :  disabled
Intensity correction :  disabled
DWT denoise :  enabled
savitzky-golay :  disabled
FFT :  disabled
Running average :  disabled
Kalman :  disabled
High pass :  disabled
---------------BEGIN--------------------
Wavelength(nm)             Reflectance(%)
200.29               0
200.75       -21.45714
201.21       -45.86238
201.67        1730.519
202.13        74.08491
202.58         51.2415
203.04        45.65206
203.50        46.11771
203.96         52.9055
204.42        70.92376
204.88        138.1291
205.34       -2255.259
205.80       -192.9973
206.26       -200.2632
206.72       -43461.66
207.18        140.2102
207.64        79.58035
208.10        65.74809
208.55        72.34455
209.01        202.6576
209.47        289.7245
209.93        85.75909
210.39        64.19128
210.85          59.771
211.31        62.43272
211.77        71.36611
212.23        94.21359
212.69        150.6882
213.14        181.1757
213.60          99.035
214.06        49.68454
214.52        31.71142
214.98        27.63293
215.44        32.64842
215.90        62.25967
216.36       -398.7591
216.81       -87.83688
217.27       -103.6791
217.73       -202.4778
218.19       -778.3873
218.65       -15280.68
219.11       -999.6994
219.57       -211.4865
220.02       -78.57747
220.48       -95.45811
220.94        136.2249
221.40        60.00254
221.86        51.39082
222.32        50.67004
222.77         53.1142
223.23        59.58812
223.69        70.32294
224.15        77.01637
224.61         73.0444
225.06        64.39242
225.52        58.37363
225.98          57.678
226.44        61.55747
226.90        68.91174
227.36        78.31055
227.81        83.65402
228.27        81.14638
228.73        74.52993
229.19        66.57908
229.65        59.07227
230.10        52.54576
230.56        47.12639
231.02        43.36363
231.48        42.12549
231.93        42.93634
232.39        45.18974
232.85        47.77398
233.31        49.18628
233.77        49.15701
234.22        48.12601
234.68        46.85263
235.14        46.63546
235.60        47.90949
236.05        50.41574
236.51        53.52489
236.97        55.97327
237.43         57.1368
237.88        57.47961
238.34        57.66567
238.80         58.6491
239.26        61.04004
239.71        66.94895
240.17        75.59231
240.63        87.38448
241.08        96.21322
241.54        97.48996
242.00        94.40397
242.46        94.04092
242.91        98.94901
243.37        109.0121
243.83        126.3014
244.28        142.4182
244.74        137.1234
245.20         115.311
245.66        90.35157
246.11        70.54749
246.57        57.12668
247.03        47.58648
247.48         42.4623
247.94        42.13398
248.40        45.68997
248.85        52.33747
249.31        60.25887
249.77        63.66769
250.22        61.48395
250.68        57.29675
251.14        53.78286
251.59        53.29736
252.05        56.46849
252.51        63.46927
252.96        76.23445
253.42        93.34822
253.88        107.5583
254.33        114.6557
254.79        113.2723
255.25         104.617
255.70        93.95709
256.16        85.23952
256.62        79.24282
257.07        76.32337
257.53        75.93637
257.99        76.45714
258.44        76.99622
258.90        77.29514
259.35         76.7251
259.81        76.09743
260.27         74.9819
260.72        72.98672
261.18        70.80399
261.63        68.36691
262.09        66.39558
262.55        65.11923
263.00        64.33591
263.46        63.92954
263.91        63.50211
264.37        62.87936
264.83        61.95793
265.28        60.85349
265.74        59.70457
266.19        58.36618
266.65        57.00326
267.11        55.55543
267.56        54.20103
268.02        53.31518
268.47        52.85086
268.93        52.71794
269.38        52.59148
269.84        51.93751
270.30        50.68906
270.75        49.03907
271.21        47.39871
271.66        46.22395
272.12        45.59917
272.57        45.30106
273.03        45.08452
273.48        44.58763
273.94        43.74394
274.39        42.70871
274.85         41.6018
275.31        40.46619
275.76        39.34982
276.22        38.30337
276.67        37.42117
277.13        36.97608
277.58        36.87809
278.04        37.05611
278.49        37.20344
278.95        36.91572
279.40         36.0989
279.86         35.0132
280.31         33.8553
280.77        33.00965
281.22        32.45218
281.68        32.11584
282.13        31.85695
282.59        31.55597
283.04         31.1574
283.50        30.74802
283.95        30.35613
284.41        30.05463
284.86        29.83717
285.32        29.70509
285.77        29.61008
286.22        29.55268
286.68        29.53437
287.13        29.51851
287.59        29.53427
288.04         29.5643
288.50        29.62044
288.95        29.66342
289.41        29.67998
289.86        29.59999
290.32        29.44839
290.77         29.2451
291.22        29.05202
291.68        28.93793
292.13        28.92543
292.59        29.04466
293.04        29.30541
293.50        29.73064
293.95        30.30658
294.40        31.01795
294.86        31.87324
295.31        32.88714
295.77        34.05263
296.22        35.33548
296.68        36.64096
297.13        37.80677
297.58        38.76409
298.04         39.5716
298.49        40.27519
298.95        41.01555
299.40        41.83156
299.85        42.71751
300.31        43.73018
300.76        44.90946
301.21        46.26369
301.67        47.78799
302.12        49.35865
302.58        50.80877
303.03        52.06034
303.48        53.15474
303.94         54.2344
304.39        55.44382
304.84        56.85866
305.30        58.43417
305.75        60.03083
306.20        61.47118
306.66        62.73111
307.11        63.83611
307.57        64.92687
308.02        66.09789
308.47        67.41426
308.93        68.83044
309.38        70.27029
309.83        71.70297
310.29         73.1031
310.74        74.46283
311.19        75.74478
311.65        76.87238
312.10        77.80759
312.55        78.56077
313.00        79.19456
313.46        79.82948
313.91        80.48195
314.36         81.1685
314.82        81.85882
315.27        82.46917
315.72        83.00259
316.18        83.48981
316.63          84.013
317.08        84.71468
317.53        85.61318
317.99        86.64448
318.44        87.68299
318.89        88.46795
319.35        88.92828
319.80        89.13422
320.25        89.22807
320.70        89.46487
321.16        89.89767
321.61        90.46713
322.06        91.05329
322.51        91.46021
322.97        91.62871
323.42        91.66432
323.87        91.63364
324.32        91.65002
324.78          91.753
325.23        91.94089
325.68        92.21915
326.13        92.61537
326.59        93.09298
327.04        93.68686
327.49        94.31857
327.94        94.88681
328.39        95.35074
328.85        95.68799
329.30        95.96489
329.75        96.17625
330.20        96.34054
330.66        96.43166
331.11        96.53737
331.56        96.69005
332.01        96.91659
332.46        97.22675
332.92        97.56927
333.37        97.96094
333.82        98.35515
334.27        98.75532
334.72         99.1842
335.17        99.68436
335.63        100.2226
336.08        100.8167
336.53        101.3668
336.98        101.7691
337.43        102.0006
337.88         102.099
338.34        102.1223
338.79        102.1899
339.24        102.3435
339.69        102.5818
340.14        102.8986
340.59        103.2738
341.05        103.6919
341.50        104.1592
341.95        104.6845
342.40        105.2929
342.85        105.9642
343.30        106.6637
343.75        107.2909
344.20        107.6959
344.66        107.8752
345.11        107.8746
345.56        107.8158
346.01        107.8812
346.46        108.1288
346.91        108.5045
347.36        108.9843
347.81        109.5228
348.26        110.0808
348.72        110.6694
349.17        111.1935
349.62        111.5289
350.07        111.6487
350.52        111.5711
350.97        111.3949
351.42        111.2957
351.87        111.3074
352.32        111.3712
352.77        111.3957
353.22        111.2316
353.67        110.8556
354.13        110.3708
354.58        109.8058
355.03        109.2648
355.48        108.7996
355.93           108.4
356.38        108.1007
356.83        107.9565
357.28        107.9516
357.73        108.0365
358.18        108.1387
358.63        108.1408
359.08        107.9904
359.53        107.7065
359.98        107.2506
360.43        106.5818
360.88        105.7185
361.33        104.6833
361.78        103.6189
362.23         102.737
362.68        102.0872
363.13         101.639
363.58        101.2378
364.03         100.627
364.48        99.76132
364.93        98.72141
365.38        97.70898
365.83        97.02874
366.28        96.73071
366.73        96.70602
367.18        96.72028
367.63         96.4052
368.08        95.67496
368.53        94.65144
368.98        93.55959
369.43        92.73082
369.88        92.24687
370.33          92.014
370.78        91.85979
371.23        91.50674
371.68        90.88062
372.13        90.06643
372.58        89.24667
373.03        88.68342
373.48        88.42073
373.93        88.37164
374.38        88.31095
374.83         87.8866
375.28        87.03223
375.72        85.84644
376.17        84.67365
376.62        83.88113
377.07        83.53352
377.52        83.50735
377.97          83.547
378.42         83.2485
378.87        82.53249
379.32        81.55196
379.77        80.56098
380.22        79.90219
380.67        79.63319
381.11        79.65347
381.56        79.72631
382.01        79.53029
382.46        78.99004
382.91        78.23077
383.36         77.4541
383.81        76.94112
384.26        76.74345
384.71        76.75983
385.15        76.82584
385.60         76.7146
386.05        76.35919
386.50        75.84432
386.95        75.29359
387.40        74.88585
387.85        74.66702
388.29         74.5425
388.74        74.49029
389.19        74.32056
389.64        73.99339
390.09        73.55067
390.54        73.10619
390.98        72.76684
391.43        72.59371
391.88        72.66965
392.33        72.82996
392.78        72.47774
393.23        71.77977
393.67        71.56101
394.12         71.8065
394.57        71.69965
395.02          71.244
395.47        70.94628
395.91        70.85087
396.36          70.716
396.81        70.56997
397.26        70.52399
397.71        70.48944
398.15         70.3342
398.60        70.13505
399.05        69.68922
399.50        69.17202
399.95        69.26868
400.39        69.82906
400.84        69.68909
401.29        68.92881
401.74        68.60868
402.18        68.75799
402.63         68.7248
403.08        68.57889
403.53        68.21196
403.97        68.58606
404.42        68.72739
404.87        68.84657
405.32        68.82677
405.76        68.64789
406.21        68.43268
406.66        68.15527
407.11        67.77717
407.55        67.41601
408.00        67.03292
408.45        66.74911
408.90        67.17892
409.34         67.9946
409.79        67.77265
410.24        66.72711
410.68        66.36565
411.13        66.75526
411.58        67.03676
412.03        67.04301
412.47        66.92848
412.92        66.64109
413.37        66.16632
413.81        65.67221
414.26        65.47198
414.71        65.58048
415.15        65.97097
415.60        66.40409
416.05        66.53046
416.49        66.26219
416.94        65.73507
417.39        65.20301
417.83        65.02707
418.28        65.28841
418.73          65.854
419.17        66.53011
419.62        66.93944
420.07        66.96225
420.51        66.68754
420.96        66.28174
421.41        65.87082
421.85        65.48892
422.30        65.31515
422.74        65.23357
423.19        64.87734
423.64        64.36725
424.08        64.48492
424.53        65.14424
424.98        65.58366
425.42        65.73432
425.87         65.9771
426.31        66.29376
426.76        66.49382
427.21        66.60161
427.65        66.54007
428.10        66.25771
428.54        66.58161
428.99        66.25925
429.44        66.17736
429.88        65.98061
430.33        66.21758
430.77        66.62514
431.22        66.43256
431.66        65.76058
432.11        65.59306
432.56        65.92154
433.00        66.16246
433.45        66.20636
433.89        66.63976
434.34        64.49025
434.78        66.86002
435.23        67.12235
435.67        65.19347
436.12        65.27451
436.57         65.1825
437.01        66.37265
437.46        66.96465
437.90        67.00546
438.35        66.19347
438.79        66.88673
439.24        66.73009
439.68        66.43209
440.13        66.25653
440.57        66.27723
441.02        66.20713
441.46         66.0162
441.91        66.40968
442.35          67.027
442.80        66.60361
443.24        65.44046
443.69        65.51882
444.13        66.67198
444.58         67.0576
445.02        66.59117
445.47         66.3106
445.91        66.33579
446.36        66.42354
446.80        66.57142
447.24        66.91156
447.69        67.30105
448.13        67.36229
448.58        67.13445
449.02         66.9851
449.47        66.98772
449.91        66.93752
450.36        66.87376
450.80        66.91896
451.25        67.03685
451.69        67.05183
452.13        66.94891
452.58        66.79012
453.02        66.60466
453.47        66.46386
453.91        66.37537
454.36        66.31448
454.80        66.24583
455.24        66.17619
455.69        66.11296
456.13         65.9958
456.58        65.82111
457.02        65.94388
457.46         65.4623
457.91        65.64939
458.35        65.68864
458.79        65.83477
459.24        65.85797
459.68        65.38103
460.13        64.65247
460.57        64.49879
461.01        64.75629
461.46        64.86189
461.90         65.4176
462.34        65.30498
462.79        64.52795
463.23         63.9431
463.68        63.66176
464.12         63.6208
464.56        63.74957
465.01        64.02538
465.45        64.28494
465.89         64.2476
466.34        63.97929
466.78        64.08639
467.22        64.61797
467.67        64.04698
468.11         64.1242
468.55        63.94287
468.99        64.01898
469.44        63.98611
469.88        63.85916
470.32        63.78976
470.77        63.76164
471.21        63.74395
471.65        63.71553
472.10        63.67796
472.54        63.63955
472.98        63.61993
473.42        63.62104
473.87         63.7085
474.31        63.75076
474.75        63.51224
475.20        63.11877
475.64        62.64613
476.08        62.75853
476.52        62.70066
476.97        62.64847
477.41         62.7439
477.85        62.90436
478.29        63.31376
478.74        62.79142
479.18        63.23423
479.62        63.15689
480.06        63.16314
480.50        62.86645
480.95        62.92348
481.39        62.92441
481.83        62.33282
482.27        62.64333
482.72        62.62554
483.16        62.67263
483.60        62.72552
484.04        62.84648
484.48        62.62172
484.93        62.11562
485.37        62.89064
485.81        63.82209
486.25        63.21038
486.69        64.34113
487.14        64.76252
487.58        62.60007
488.02        62.68531
488.46        63.59228
488.90        62.50831
489.34        62.47839
489.79         63.0467
490.23        62.76825
490.67        62.97888
491.11        62.94816
491.55        62.84558
491.99        62.67848
492.43        62.58983
492.88        62.61104
493.32        62.69548
493.76        62.79807
494.20        62.80782
494.64        62.69085
495.08        62.65611
495.52        62.70492
495.96        62.36908
496.41        61.84864
496.85        62.21942
497.29        63.23801
497.73        63.41092
498.17        62.76104
498.61        62.56503
499.05        62.86317
499.49        62.80574
499.93        62.44016
500.37        62.34787
500.82        62.49255
501.26        62.50006
501.70        62.35733
502.14         62.2622
502.58        62.24881
503.02        62.27678
503.46        62.34855
503.90        62.47916
504.34        62.60691
504.78        62.62675
505.22        62.52102
505.66         62.3104
506.10        62.05055
506.54         61.9551
506.98        62.07692
507.42        62.17261
507.86         61.9929
508.30        62.74693
508.74        62.17762
509.18         62.0947
509.62         61.9287
510.06        61.87397
510.50        61.94668
510.94        62.11983
511.38         62.3196
511.82          62.367
512.26        62.23222
512.70        61.97591
513.14         61.6887
513.58        61.51135
514.02         61.4762
514.46        61.52786
514.90        61.61848
515.34        61.66862
515.78         61.6556
516.22        61.62823
516.66        61.57253
517.10        61.46086
517.54        61.30724
517.98        61.11149
518.42        60.98218
518.86        61.09679
519.30        61.47033
519.74        62.03857
520.18        62.61733
520.62        62.90397
521.06        62.82513
521.50        62.47116
521.93        62.00405
522.37        61.70332
522.81        61.64038
523.25         61.7318
523.69        61.88856
524.13        61.96684
524.57        61.92712
525.01        61.83641
525.45        61.72544
525.89        61.63205
526.32        61.57193
526.76        61.52838
527.20        61.52517
527.64        61.61401
528.08        61.79185
528.52        62.03999
528.96        62.28157
529.40        62.39394
529.83        62.34079
530.27        62.16602
530.71        61.94003
531.15        61.80593
531.59        61.80212
532.03        61.86041
532.46        61.89928
532.90         62.0031
533.34        61.81654
533.78        61.66333
534.22         61.5261
534.66         61.5318
535.09        61.68168
535.53        61.93041
535.97        62.20387
536.41        62.33121
536.85        62.26623
537.28        62.22901
537.72        62.20772
538.16        61.80156
538.60        61.23152
539.04        61.33588
539.47        61.98532
539.91        62.27418
540.35        62.13803
540.79        62.10885
541.22        62.17532
541.66        62.12689
542.10        61.97787
542.54        61.70055
542.97        61.40741
543.41        61.51112
543.85        61.92443
544.29        62.13021
544.72        62.07136
545.16        62.08118
545.60        62.12983
546.04        62.04112
546.47        61.84752
546.91        61.64641
547.35        61.50539
547.79        61.57316
548.22        61.78348
548.66        61.89139
549.10        61.87783
549.53        61.97414
549.97        62.15002
550.41        62.21145
550.84        62.13925
551.28        62.04223
551.72        61.93254
552.15        61.76665
552.59        61.58377
553.03        61.49124
553.46         61.3215
553.90        61.33075
554.34        61.43025
554.77        61.62118
555.21        61.71228
555.65        61.83515
556.08        61.91811
556.52        61.95316
556.96        61.93598
557.39        61.91475
557.83        61.91962
558.27         61.8578
558.70        61.76125
559.14        61.82566
559.57        61.98392
560.01        61.98243
560.45        61.83671
560.88        61.75937
561.32        61.78604
561.75        61.82542
562.19        61.90068
562.63        61.82243
563.06        61.65523
563.50        61.95879
563.93        62.55618
564.37        62.48139
564.80        61.85036
565.24        61.77318
565.68        62.17072
566.11        62.25322
566.55        62.03306
566.98        61.81075
567.42          61.675
567.85        61.95119
568.29         62.1451
568.72        62.19946
569.16        62.07778
569.60          62.085
570.03        62.18206
570.47        62.34344
570.90        62.56872
571.34        62.15261
571.77        62.79744
572.21        62.51523
572.64        62.46094
573.08        62.16624
573.51        62.74695
573.95        62.68336
574.38        62.54725
574.82        61.90287
575.25        62.99463
575.69        63.55109
576.12        63.11196
576.56         62.2309
576.99        62.59254
577.42        63.24924
577.86         62.6325
578.29        62.85042
578.73        63.09647
579.16        63.27237
579.60        63.22035
580.03        63.15507
580.47        62.99087
580.90         63.0956
581.33        62.39545
581.77        62.54765
582.20        63.86071
582.64        63.37063
583.07        63.53146
583.51        62.91588
583.94        62.44006
584.37        62.61627
584.81        62.36986
585.24        62.43684
585.68        63.39278
586.11        62.84903
586.54        62.99015
586.98        62.48351
587.41        61.93289
587.85        62.79729
588.28              63
588.71        62.91978
589.15        62.33969
589.58        62.98966
590.01        62.27306
590.45        62.01857
590.88        62.32736
591.31        62.60154
591.75        62.89342
592.18        62.70539
592.61        62.30461
593.05        62.11039
593.48        63.34593
593.91        63.46959
594.35        63.12403
594.78        62.71148
595.21        62.56993
595.65        62.50804
596.08        62.39344
596.51        63.26314
596.94        62.80761
597.38        62.76228
597.81        62.38021
598.24        62.94154
598.68         62.6373
599.11        61.62817
599.54        63.32678
599.97        62.51432
600.41        62.73146
600.84        62.60403
601.27         62.9001
601.70        62.44191
602.14        62.48707
602.57        62.54899
603.00        62.91821
603.43        62.84395
603.87        62.39814
604.30        62.68856
604.73         63.0652
605.16        62.68232
605.60        62.13124
606.03        62.08913
606.46        62.68338
606.89        62.29652
607.32        62.74912
607.76        61.64172
608.19        62.44065
608.62        62.35989
609.05        62.22931
609.48        62.30293
609.92        62.73167
610.35        62.17044
610.78        63.12752
611.21        63.36695
611.64        63.14516
612.07        62.98879
612.50        62.85321
612.94        62.69103
613.37        62.53308
613.80        62.69942
614.23        62.64269
614.66        62.72195
615.09        62.77357
615.52        62.75132
615.96        62.65829
616.39        62.67887
616.82        62.85023
617.25        62.44921
617.68        63.07069
618.11         62.5573
618.54        61.63541
618.97        61.87547
619.40        62.68021
619.84        62.66154
620.27        62.68133
620.70        62.65376
621.13        62.90413
621.56        62.64355
621.99        62.14734
622.42        62.15637
622.85        62.67936
623.28        62.49063
623.71        62.19962
624.14        62.48661
624.57        61.81234
625.00         62.0543
625.43        62.05793
625.86        62.16576
626.29        62.06477
626.72        62.61179
627.15        62.32828
627.58        62.38172
628.01         62.3085
628.44        62.28448
628.87        62.12154
629.30        61.79059
629.73        62.12678
630.16        62.18174
630.59        62.18264
631.02        62.20521
631.45        62.26686
631.88        62.26504
632.31        62.16179
632.74        62.37963
633.17        62.14883
633.60        62.13026
634.03        62.10083
634.46        62.07362
634.89        62.03908
635.32        61.97927
635.75        61.89931
636.18        61.83203
636.61        61.81148
637.04        61.70262
637.47        61.83345
637.89        61.88617
638.32        61.96568
638.75        61.99622
639.18        61.99905
639.61        61.78787
640.04        61.75706
640.47        61.67199
640.90        61.65853
641.33        61.68937
641.76         61.7695
642.18        61.90856
642.61        62.07069
643.04        62.26008
643.47        62.43147
643.90        62.51149
644.33        62.48129
644.76        62.36704
645.18        62.22923
645.61        62.08482
646.04         61.9544
646.47        61.98093
646.90        62.18646
647.33        61.86206
647.75        62.16095
648.18        62.12588
648.61        62.15155
649.04        62.25381
649.47        62.44251
649.89        62.78253
650.32        63.08857
650.75        63.00772
651.18        62.62613
651.61        62.23762
652.03        61.99719
652.46        62.29488
652.89        62.88965
653.32        62.68765
653.74        61.92395
654.17        61.65065
654.60        61.48281
655.03        62.23925
655.46        61.94275
655.88        61.31581
656.31        64.11047
656.74        68.10799
657.16        65.97965
657.59        63.10518
658.02        62.83361
658.45        63.63186
658.87        63.81354
659.30        62.37765
659.73         61.9622
660.15        62.34673
660.58        61.74078
661.01        61.82258
661.44        61.74462
661.86        61.72366
662.29        61.69206
662.72        61.75211
663.14        61.89484
663.57        61.75991
664.00        61.46181
664.42          61.506
664.85        61.86203
665.27        61.99987
665.70        61.89635
666.13         61.9134
666.55        62.05071
666.98        62.08718
667.41        62.02452
667.83        61.95612
668.26        61.88898
668.69        61.82448
669.11        61.75465
669.54        61.66137
669.96           61.55
670.39        61.43055
670.82        61.39041
671.24        61.51457
671.67        61.80106
672.09        62.29766
672.52        62.86446
672.94        62.81263
673.37         62.8312
673.80        62.40302
674.22        61.93193
674.65        61.69547
675.07        61.78145
675.50        62.08266
675.92        62.46412
676.35        62.67537
676.77        62.65647
677.20        62.48927
677.62        62.26828
678.05        62.14528
678.47        62.15936
678.90        62.25546
679.32        62.38278
679.75        62.51993
680.17        62.65243
680.60        62.71728
681.02        62.69287
681.45        62.93412
681.87        62.78664
682.30         62.7677
682.72        62.71468
683.15        62.69187
683.57        62.71487
684.00        62.77549
684.42        62.83474
684.85        62.83095
685.27        62.75217
685.70        62.55302
686.12        62.27621
686.54        62.27844
686.97        62.51617
687.39        62.41582
687.82        61.92942
688.24        62.16849
688.66        62.14912
689.09        61.80085
689.51        61.98882
689.94        62.02202
690.36        62.26064
690.78        62.50303
691.21        62.61382
691.63        63.17785
692.06        62.58345
692.48        62.67874
692.90        62.94979
693.33        63.03157
693.75        62.92035
694.17        62.76011
694.60        62.61969
695.02        62.98073
695.44        62.95403
695.87        63.33639
696.29        63.69786
696.71        63.61353
697.14         63.1592
697.56        62.73975
697.98         62.4369
698.41        62.74193
698.83        62.37038
699.25        62.58455
699.68        62.89492
700.10        63.09512
700.52        63.10203
700.94        63.00574
701.37        62.87516
701.79        62.80772
702.21        62.82474
702.64        62.88758
703.06        62.95765
703.48        62.98737
703.90        62.96712
704.33        62.91872
704.75        62.86947
705.17        62.84581
705.59        62.85804
706.01        62.88852
706.44        62.93554
706.86        63.02619
707.28        63.13984
707.70        63.27143
708.12        63.39042
708.55        63.44281
708.97        63.41253
709.39        63.31437
709.81        63.19715
710.23         63.1647
710.66        63.24208
711.08        63.40495
711.50         63.5915
711.92        63.72876
712.34        63.79279
712.76        63.79954
713.19        63.75667
713.61        63.73689
714.03        63.73134
714.45         63.7221
714.87        63.69924
715.29        63.64774
715.71        63.56433
716.13        63.46368
716.56        63.33794
716.98        63.23803
717.40        63.15835
717.82          63.099
718.24        63.07428
718.66        63.10663
719.08        63.19142
719.50        63.31044
719.92        63.44139
720.34        63.54821
720.76        63.62217
721.19        63.66592
721.61        63.67851
722.03        63.65953
722.45        63.64396
722.87        63.48384
723.29        63.23357
723.71         63.4104
724.13        64.03391
724.55        63.57219
724.97        63.96492
725.39         63.8708
725.81        63.87605
726.23        63.76409
726.65        63.60896
727.07        63.58234
727.49        63.69114
727.91        63.89944
728.33        64.15397
728.75        64.36546
729.17        64.49725
729.59        64.57267
730.01         64.6032
730.43        64.60661
730.85        64.59377
731.27        64.55672
731.69        64.50361
732.10        64.45569
732.52        64.41582
732.94         64.3866
733.36         64.3632
733.78        64.32622
734.20        64.27785
734.62        64.24927
735.04        64.24316
735.46        64.22513
735.88        64.20388
736.30        64.24931
736.72        64.36362
737.13        64.43877
737.55        64.41382
737.97        64.52735
738.39        64.72618
738.81        64.47636
739.23        63.96271
739.65        64.19938
740.06        64.98785
740.48        65.21494
740.90        64.80669
741.32        64.37536
741.74        64.09461
742.16        63.98037
742.57         64.1044
742.99        64.43452
743.41        64.85771
743.83        65.17605
744.25        65.32603
744.67        65.34815
745.08        65.30943
745.50        65.28219
745.92        65.31207
746.34         65.3625
746.75        65.39324
747.17        65.36902
747.59        65.27679
748.01         65.1197
748.42        64.95366
748.84        64.87983
749.26        64.88036
749.68        64.90836
750.09        64.93522
750.51        64.79249
750.93        64.60105
751.35        64.88746
751.76        65.53799
752.18        65.78691
752.60        65.57369
753.01        65.30713
753.43        65.13437
753.85        65.04218
754.27        65.04214
754.68        65.28672
755.10        65.75134
755.52        65.35791
755.93        65.76659
756.35        65.73544
756.77        65.69374
757.18        65.66135
757.60         65.7084
758.02        65.28426
758.43        64.69573
758.85        65.65848
759.26        67.79073
759.68        68.11202
760.10        66.62888
760.51        66.10968
760.93        66.77017
761.34        66.14014
761.76        66.27854
762.18        66.01913
762.59        66.01032
763.01        66.14919
763.42        66.41544
763.84        66.44497
764.26         66.2393
764.67         65.9548
765.09        65.71298
765.50        65.70934
765.92        65.92088
766.33        65.78241
766.75        65.27129
767.16        65.71252
767.58        65.80494
768.00        66.24894
768.41        66.56894
768.83        66.84445
769.24        66.96911
769.66        66.66415
770.07         66.0812
770.49        65.74077
770.90        65.69972
771.32        65.78623
771.73        65.94498
772.15        66.08903
772.56        66.20733
772.97        66.32861
773.39        66.43456
773.80        66.55839
774.22         66.6615
774.63        66.76228
775.05        66.82011
775.46        66.83368
775.88        66.78593
776.29        66.70308
776.70         66.6115
777.12         66.5618
777.53        66.58622
777.95        66.65427
778.36        66.73725
778.77        66.74991
779.19        66.68842
779.60        66.59702
780.02         66.5147
780.43        66.53049
780.84        66.67023
781.26        66.79604
781.67        66.95493
782.09        67.33136
782.50        67.82094
782.91        68.03753
783.33        67.93262
783.74        67.83223
784.15        67.72064
784.57        67.40804
784.98        67.02098
785.39        66.86703
785.81        66.99625
786.22        67.32755
786.63        67.70671
787.04        67.87611
787.46        67.79521
787.87          67.519
788.28        67.21573
788.70        67.12154
789.11        67.26764
789.52        67.59158
789.93        67.95778
790.35        68.13182
790.76        68.07858
791.17        67.87986
791.58        67.65174
792.00        67.52843
792.41        67.57188
792.82        67.80015
793.23         68.1165
793.65        68.31307
794.06        68.42342
794.47        68.80516
794.88        69.25677
795.29        69.27361
795.71        68.80034
796.12        68.05083
796.53        67.29229
796.94        67.05056
797.35        67.41188
797.76         68.0163
798.18        68.57245
798.59        68.88941
799.00        68.82458
799.41        68.35743
799.82        67.73754
800.23        67.44419
800.64        67.58364
801.06        67.97173
801.47        68.48367
801.88        68.78781
802.29        68.77576
802.70        68.55935
803.11        68.25516
803.52        68.03321
803.93        67.95325
804.34        67.96162
804.75        68.02769
805.17        68.06368
805.58        68.06078
805.99        68.14146
806.40        68.30456
806.81        68.24606
807.22        68.08762
807.63        68.45985
808.04        69.20845
808.45        69.44482
808.86        69.06525
809.27        68.54723
809.68        68.08957
810.09        67.83981
810.50        67.88844
810.91        68.19112
811.32        68.61551
811.73        68.93444
812.14        69.06837
812.55        69.07793
812.96        69.00179
813.37        68.91321
813.78        68.85106
814.19        68.78609
814.60        68.73519
815.01        68.73583
815.42        68.79232
815.83         68.9007
816.24         69.0463
816.65        69.18458
817.05        69.29178
817.46        69.33907
817.87        69.33673
818.28        69.25439
818.69        69.09624
819.10         68.8726
819.51        68.64043
819.92        68.50914
820.33        68.50964
820.74          68.605
821.14        68.74162
821.55        68.85285
821.96         68.9018
822.37        68.91927
822.78        68.89001
823.19         68.7879
823.60        68.62698
824.00        68.43456
824.41        68.26054
824.82        68.26682
825.23        68.48141
825.64         68.8594
826.04        69.33384
826.45        69.68761
826.86         69.8849
827.27        69.97301
827.68        69.97233
828.08        69.94669
828.49        69.88595
828.90        69.78756
829.31        69.71831
829.72         69.7942
830.12        70.05856
830.53        70.42634
830.94        70.79441
831.35         70.9261
831.75        70.77396
832.16        70.36063
832.57        69.84175
832.97        69.43886
833.38         69.2288
833.79        69.16089
834.20        69.17366
834.60        69.15694
835.01        69.09734
835.42        69.03913
835.82        69.03056
836.23        69.09703
836.64        69.25941
837.04        69.50549
837.45        69.75996
837.86        70.02708
838.26        70.29446
838.67        70.51652
839.08        70.64902
839.48        70.60297
839.89        70.37234
840.29        69.96848
840.70        69.53224
841.11        69.21534
841.51        69.08231
841.92        69.11762
842.33        69.21892
842.73        69.20766
843.14        69.00676
843.54        68.68716
843.95        68.46072
844.35         68.7023
844.76        69.42137
845.17        70.50191
845.57        71.61787
845.98        72.06535
846.38        71.71936
846.79        70.80088
847.19        69.65704
847.60        68.85161
848.00        68.53837
848.41        68.53071
848.81        68.78284
849.22        69.11168
849.62        69.47221
850.03        69.87032
850.43        70.20483
850.84        70.16646
851.24        69.75863
851.65        69.04008
852.05        68.25208
852.46        67.80642
852.86        67.78046
853.27        68.06213
853.67        68.48544
854.07        69.00934
854.48        69.52917
854.88        70.14587
855.29        70.57391
855.69         70.4986
856.10        69.76125
856.50        68.55394
856.90        67.27616
857.31        66.55257
857.71        66.56319
858.12        67.12373
858.52        68.03103
858.92        68.69154
859.33        68.87406
859.73        68.75787
860.13        68.49609
860.54        68.37169
860.94        68.49614
861.34        68.73215
861.75         68.9169
862.15        68.90651
862.55         68.6177
862.96        68.14276
863.36        67.61401
863.76        67.23452
864.17        67.06308
864.57        67.08678
864.97        67.17503
865.38        67.10027
865.78        66.85282
866.18        66.46403
866.58        66.13291
866.99        66.19702
867.39        66.72655
867.79        67.56296
868.19         68.3867
868.60        68.69808
869.00        68.40022
869.40        67.65862
869.80        66.74404
870.21        66.14017
870.61        66.04236
871.01        66.28262
871.41         66.7134
871.81        67.11493
872.22        67.38776
872.62        67.64794
873.02        67.90369
873.42        68.14192
873.82          68.356
874.22        68.51694
874.63        68.64611
875.03        68.77647
875.43        68.91637
875.83         69.0183
876.23        69.09315
876.63        69.14663
877.03        69.18354
877.44        69.26865
877.84        69.23816
878.24        68.85232
878.64        68.11737
879.04        67.10358
879.44        66.22842
879.84        66.09313
880.24         66.7553
880.64        68.04581
881.04        69.36472
881.44        69.63383
881.84        68.62547
882.24        66.76032
882.65        64.80695
883.05        63.75813
883.45        63.88039
883.85        64.87421
884.25        66.32867
884.65        67.48134
885.05        68.01629
885.45        68.12724
885.85        68.02744
886.25        68.04865
886.65        68.28077
887.05        68.57328
887.45        68.76482
887.85        68.63999
888.25        68.16515
888.65        67.46963
889.04        66.74849
889.44        66.30104
889.84        66.19238
890.24        66.36539
890.64        66.68235
891.04        66.90761
891.44        66.97771
891.84           66.96
892.24        66.98839
892.64         67.2718
893.04        67.84811
893.44         68.6308
893.83        69.47112
894.23        70.04493
894.63        70.27652
895.03        70.20418
895.43        69.98312
895.83         69.8669
896.23        69.92416
896.63        70.11415
897.02        70.23618
897.42         69.9659
897.82        69.28199
898.22        68.31577
898.62        67.42651
899.01        67.09822
899.41        67.42747
899.81        68.29295
900.21        69.29086
900.61        69.66045
901.00        69.18372
901.40        68.15287
901.80        67.10262
902.20        66.78091
902.59        67.34612
902.99        68.54271
903.39        69.93477
903.79        70.59203
904.18        70.21095
904.58        69.15714
904.98        67.96672
905.38        67.36213
905.77        67.48105
906.17        68.08784
906.57        68.91161
906.96        69.55054
907.36         69.8019
907.76        69.81815
908.15        69.67902
908.55        69.42583
908.95        69.14875
909.34        68.81471
909.74        68.49348
910.14        68.26977
910.53         68.1649
910.93        68.19215
911.33        68.35326
911.72        68.63985
912.12         69.0202
912.52        69.47881
912.91         69.9369
913.31        70.24974
913.70        70.40369
914.10        70.36148
914.49         70.2348
914.89        70.15041
915.29        70.17192
915.68        70.27869
916.08        70.37344
916.47        70.23952
916.87        69.88824
917.26        69.36363
917.66        68.90479
918.05        68.85256
918.45        69.23351
918.84        69.99435
919.24         70.7644
919.64        71.00025
920.03        70.55331
920.42         69.5868
920.82        68.54984
921.21        67.93623
921.61        67.86443
922.00        68.24702
922.40        68.76462
922.79        68.97182
923.19        68.70225
923.58        68.11285
923.98         67.5919
924.37        67.66489
924.77        68.43185
925.16        69.76215
925.55        71.17625
925.95         71.8019
926.34        71.43624
926.74        70.30825
927.13        69.00386
927.52        68.41425
927.92        68.73043
928.31        69.66435
928.70        70.73379
929.10         71.1215
929.49        70.64107
929.89        69.59856
930.28        68.40687
930.67        67.67165
931.07        67.57132
931.46        67.90719
931.85        68.53187
932.24        69.23887
932.64        69.88238
933.03        70.59647
933.42        71.20061
933.82          71.411
934.21        71.21626
934.60        70.64873
934.99        70.01884
935.39        69.80312
935.78        70.08974
936.17        70.73373
936.56        71.46089
936.96        71.79758
937.35        71.65154
937.74        71.16765
938.13        70.47394
938.53        69.76277
938.92        69.14156
939.31        68.64556
939.70        68.38995
940.09        68.56727
940.49        69.12363
940.88         69.9528
941.27        70.97297
941.66        72.02883
942.05        72.95512
942.44        73.78738
942.84        74.02151
943.23        72.88136
943.62         70.4759
944.01        67.28222
944.40        64.38831
944.79        63.14775
945.18        63.73666
945.57        65.83396
945.97        68.59542
946.36         70.5201
946.75        70.84654
947.14        69.98665
947.53        68.67872
947.92        68.16158
948.31        68.74507
948.70        69.91174
949.09        71.22841
949.48        72.02117
949.87        72.04843
950.26        71.66036
950.65        70.85491
951.04        69.57643
951.43        67.99035
951.82         66.1529
952.21        64.63685
952.60        64.31602
952.99        65.30016
953.38        67.34102
953.77        69.69881
954.16        71.05546
954.55        70.99997
954.94        69.84662
955.33        68.20984
955.72        67.15139
956.11        67.00253
956.50        67.46619
956.89        68.14507
957.28        68.39445
957.66        68.04778
958.05        67.34273
958.44        66.62995
958.83         66.4165
959.22        66.81471
959.61         67.6127
960.00        68.47722
960.39        68.85586
960.78        68.59248
961.16        67.90514
961.55        67.03748
961.94        66.34708
962.33        65.97572
962.72        65.80112
963.11        65.87943
963.49        66.32993
963.88        67.06654
964.27        68.06965
964.66        69.04877
965.04        69.52218
965.43        69.32292
965.82        68.61239
966.21        67.68066
966.60         67.0416
966.98        66.87845
967.37        67.03178
967.76         67.3927
968.15        67.74857
968.53        68.01709
968.92        68.22334
969.31         68.3569
969.69         68.3733
970.08        68.23873
970.47        67.96178
970.86         67.5919
971.24        67.22305
971.63        66.91695
972.02        66.75534
972.40        66.78272
972.79        66.99932
973.17        67.46253
973.56        68.04155
973.95        68.88506
974.33        70.26672
974.72        72.09726
975.11        74.31257
975.49        76.43472
975.88         77.3397
976.26        76.70614
976.65        74.82816
977.04        72.37409
977.42        70.23101
977.81        68.69576
978.19        67.52992
978.58        66.71313
978.96        66.00094
979.35        65.34133
979.74        64.81464
980.12        64.46217
980.51        64.18396
980.89        64.05954
981.28        64.11266
981.66        64.31309
982.05        64.56965
982.43        64.87117
982.82        65.10846
983.20        65.61726
983.59         66.9622
983.97         69.2726
984.35         72.4308
984.74        75.34333
985.12        76.27779
985.51        74.64371
985.89         71.1387
986.28        67.33214
986.66        65.07707
987.04        64.85754
987.43        66.10043
987.81        68.08791
988.20        69.24165
988.58          69.057
988.96        68.06246
989.35        66.63969
989.73        65.50214
990.12        64.86129
990.50        64.38352
990.88        64.20183
991.27        64.57837
991.65        65.53419
992.03        67.20696
992.42        68.87357
992.80        69.36627
993.18        68.16437
993.56        65.75686
993.95        63.50565
994.33        62.75282
994.71        63.80851
995.10        66.22519
995.48        69.21404
995.86        70.51852
996.24        69.31459
996.63         66.5239
997.01         63.4176
997.39        61.63156
997.77        61.55746
998.15        62.60482
998.54        64.56325
998.92         67.0645
999.30        69.74112
999.68         72.7293
1000.06        75.17361
1000.45        75.48916
1000.83        73.59973
1001.21        69.98288
1001.59        66.05649
1001.97        63.77566
1002.35         63.5197
1002.73        64.78544
1003.12        66.97099
1003.50        68.94678
1003.88        70.14466
1004.26        70.96441
1004.64        71.36958
1005.02        71.34338
1005.40         70.9052
1005.78        69.73146
1006.16        68.39732
1006.54        67.97128
1006.92        68.67636
1007.30        70.50021
1007.69        72.05491
1008.07        70.82983
1008.45        66.66301
1008.83        60.90722
1009.21        55.93855
1009.59        54.22429
1009.97        55.93448
1010.35        60.58244
1010.73        66.59964
1011.11        70.06615
1011.49        69.15384
1011.86        64.61541
1012.24        59.28902
1012.62         57.5756
1013.00        60.79132
1013.38        68.35839
1013.76        77.71404
1014.14        81.72353
1014.52        78.07063
1014.90        70.49446
1015.28        63.28339
1015.66        60.12161
1016.04        61.20249
1016.41        65.53418
1016.79        72.15807
1017.17        78.74868
1017.55        83.20827
1017.93         86.1124
1018.31        86.23947
1018.69        82.27972
1019.06        75.38385
1019.44        67.31675
1019.82        60.90703
1020.20        58.48743
1020.58        59.69643
1020.95        64.09346
1021.33        69.95996
1021.71        72.68986
1022.09        70.25891
1022.46        63.83176
1022.84        56.91904
1023.22        53.77389
1023.60        55.41001
1023.97        61.72817
1024.35        70.46814
1024.73        73.43363
