SpectraSmart Spectrum 2.9.0.0
--------- Device Information -----------
Spectrum Name :  反射率_0
Saving Time :  2024/05/03 20:15:02
Spectro-Module Model Name : SE2030-DUVN
Spectro-Module Serial Number : OS361AC55029948
Wavelength Start : 200
Wavelength End : 1025
Wavelength Unit : Wavelength(nm)
Spectrum Unit : Reflectance(%)
-----------Spectrum Setting ------------
Integration Time : 20ms
Average : 10
Boxcar : 0
Background removal :  enabled
linearity correction :  enabled
SC :  disabled
Intensity correction :  disabled
DWT denoise :  enabled
savitzky-golay :  disabled
FFT :  disabled
Running average :  disabled
Kalman :  disabled
High pass :  disabled
---------------BEGIN--------------------
Wavelength(nm)             Reflectance(%)
200.29               0
200.75       -12.86865
201.21       -4.293589
201.67       -414.4745
202.13       -19.25539
202.58       -5.332831
203.04        4.784334
203.50         12.8333
203.96        18.28141
204.42        22.41419
204.88        30.75367
205.34       -203.7611
205.80         3.33913
206.26        13.08161
206.72        2788.817
207.18       -6.334164
207.64       -5.772353
208.10       -12.59863
208.55       -34.21113
209.01       -230.2753
209.47       -244.6727
209.93       -12.07302
210.39        7.254204
210.85        13.15556
211.31        18.77893
211.77        27.88818
212.23        48.66329
212.69        99.64103
213.14        131.3456
213.60        61.24038
214.06        16.43566
214.52      -0.5477413
214.98       -4.761982
215.44       -1.031734
215.90        23.31127
216.36       -344.1939
216.81        -88.2991
217.27       -89.14578
217.73       -136.0747
218.19       -423.7939
218.65       -7731.183
219.11       -549.0463
219.57       -148.6767
220.02       -88.21374
220.48       -150.2255
220.94        170.1751
221.40        52.85946
221.86        35.69484
222.32        31.01593
222.77        30.24718
223.23        31.98177
223.69        35.20679
224.15        34.80974
224.61        29.44345
225.06        23.85601
225.52        20.87182
225.98        21.09682
226.44        24.07573
226.90        29.30111
227.36         36.8569
227.81        44.36436
228.27        48.45654
228.73        49.64792
229.19        47.60561
229.65        42.23561
230.10        35.12603
230.56        27.84421
231.02        22.26307
231.48        20.50328
231.93        22.09802
232.39        25.70493
232.85        29.97434
233.31         33.0518
233.77         34.4931
234.22        34.91577
234.68        34.71352
235.14        34.49531
235.60        34.58107
236.05        34.78789
236.51        35.22347
236.97         36.2854
237.43        37.90131
237.88        39.99969
238.34        42.42198
238.80        45.13424
239.26        48.62951
239.71        55.84407
240.17         65.2962
240.63        76.54527
241.08        82.11787
241.54        78.04222
242.00        70.79067
242.46        69.91023
242.91        78.26031
243.37        97.81682
243.83        134.1024
244.28        174.1148
244.74        179.2776
245.20        150.2935
245.66        109.2334
246.11        75.77152
246.57          53.135
247.03        36.17206
247.48        26.71677
247.94        26.36034
248.40        33.77569
248.85        48.40781
249.31        65.75135
249.77        72.83733
250.22        67.38007
250.68         56.4542
251.14        47.54005
251.59         47.1163
252.05        56.41434
252.51        76.38866
252.96        107.4631
253.42        134.8511
253.88        140.9234
254.33        128.9993
254.79        110.9534
255.25        96.70826
255.70        87.83275
256.16        82.64986
256.62        79.51639
257.07        77.51171
257.53        76.44836
257.99        75.59346
258.44        74.46725
258.90         73.2142
259.35        71.42456
259.81        69.79062
260.27        67.95103
260.72        65.60577
261.18        63.35596
261.63        61.10363
262.09        59.40493
262.55        58.39379
263.00        57.83229
263.46        57.54603
263.91        57.20427
264.37        56.69355
264.83        55.89085
265.28        54.89481
265.74        53.65589
266.19        51.80668
266.65        49.54948
267.11        46.98885
267.56        44.60136
268.02        43.14482
268.47        42.64329
268.93        42.86987
269.38        43.31019
269.84        43.09233
270.30        42.02559
270.75         40.3982
271.21        38.69363
271.66        37.49239
272.12        36.91447
272.57        36.69231
273.03        36.56379
273.48        36.15956
273.94        35.40182
274.39        34.46086
274.85        33.46757
275.31        32.48824
275.76        31.56876
276.22        30.73144
276.67         30.0352
277.13        29.68084
277.58        29.59001
278.04        29.71074
278.49        29.80346
278.95         29.5563
279.40        28.89795
279.86        28.03958
280.31        27.12562
280.77        26.45046
281.22         25.9934
281.68         25.7004
282.13        25.48423
282.59        25.28961
283.04        25.07378
283.50        24.89116
283.95        24.71361
284.41        24.51842
284.86        24.29981
285.32        24.09579
285.77        23.93514
286.22        23.92567
286.68        24.08039
287.13         24.3157
287.59        24.60438
288.04        24.86226
288.50        25.07941
288.95        25.25463
289.41        25.36483
289.86        25.32669
290.32         25.1779
290.77        24.95154
291.22        24.78075
291.68        24.84291
292.13        25.17923
292.59        25.78989
293.04         26.5957
293.50        27.46131
293.95        28.32732
294.40        29.21813
294.86        30.23048
295.31         31.5221
295.77        33.12664
296.22        34.97911
296.68        36.90947
297.13        38.61808
297.58        40.00259
298.04        41.17402
298.49        42.27377
298.95        43.59134
299.40        45.19298
299.85        47.01106
300.31         49.0204
300.76         51.1331
301.21        53.31721
301.67        55.60927
302.12        57.89931
302.58        60.04543
303.03        61.97333
303.48        63.70775
303.94        65.42302
304.39        67.30991
304.84        69.45839
305.30        71.80893
305.75         74.1734
306.20        76.29646
306.66        78.13539
307.11        79.73388
307.57         81.2603
308.02        82.82444
308.47        84.51974
308.93        86.29836
309.38        88.10899
309.83         89.9829
310.29        91.89316
310.74        93.79771
311.19        95.59807
311.65        97.11225
312.10        98.26885
312.55        99.11488
313.00         99.7405
313.46        100.3161
313.91        100.8826
314.36        101.4569
314.82        102.0573
315.27        102.6684
315.72        103.3048
316.18        103.9832
316.63        104.7157
317.08        105.5323
317.53        106.4206
317.99        107.3365
318.44        108.2182
318.89         108.902
319.35        109.3464
319.80        109.5988
320.25        109.7435
320.70        109.9488
321.16        110.2444
321.61        110.5984
322.06         110.964
322.51        111.2641
322.97        111.4649
323.42        111.6456
323.87        111.7619
324.32        111.7536
324.78          111.62
325.23        111.4132
325.68        111.2793
326.13        111.4816
326.59        112.0395
327.04        112.9377
327.49        113.9281
327.94        114.6303
328.39        114.9254
328.85        114.8524
329.30        114.6729
329.75        114.6878
330.20        114.9968
330.66        115.4751
331.11        116.0118
331.56        116.2922
332.01         116.257
332.46        116.0268
332.92        115.7472
333.37        115.7861
333.82        116.1963
334.27        116.8806
334.72        117.7132
335.17        118.4831
335.63        119.0629
336.08        119.5566
336.53        119.9369
336.98        120.2254
337.43        120.4429
337.88        120.5789
338.34         120.654
338.79        120.7435
339.24         120.876
339.69        121.0798
340.14        121.3747
340.59        121.7736
341.05        122.2639
341.50        122.8278
341.95        123.4559
342.40        124.1495
342.85        124.8765
343.30        125.6137
343.75        126.2333
344.20        126.5448
344.66        126.5486
345.11        126.2973
345.56        125.9919
346.01        125.9372
346.46        126.2072
346.91        126.7105
347.36        127.3163
347.81         127.807
348.26        128.1121
348.72        128.3078
349.17        128.4069
349.62        128.4587
350.07        128.4872
350.52        128.4605
350.97        128.4103
351.42        128.4077
351.87        128.4441
352.32        128.4771
352.77        128.4447
353.22         128.244
353.67        127.8587
354.13        127.3787
354.58        126.7628
355.03        126.0248
355.48        125.2132
355.93        124.3549
356.38        123.6029
356.83        123.1953
357.28        123.1435
357.73        123.3321
358.18        123.5532
358.63        123.4675
359.08        122.9727
359.53        122.1748
359.98        121.1367
360.43        119.9727
360.88        118.7603
361.33        117.4769
361.78        116.2622
362.23        115.3228
362.68        114.6842
363.13        114.3097
363.58        113.9831
364.03        113.3477
364.48        112.3283
364.93        111.0197
365.38         109.669
365.83        108.6581
366.28        108.0676
366.73         107.786
367.18        107.5568
367.63        106.9763
368.08        105.9588
368.53         104.638
368.98        103.3051
369.43        102.3843
369.88        101.9593
370.33        101.9026
370.78        101.9112
371.23        101.4887
371.68        100.5211
372.13        99.17242
372.58        97.78667
373.03        96.87702
373.48        96.54147
373.93        96.60059
374.38        96.73097
374.83        96.41253
375.28        95.51424
375.72        94.19535
376.17        92.79836
376.62        91.66755
377.07        90.89125
377.52        90.35394
377.97        89.91237
378.42        89.36755
378.87        88.68697
379.32        87.91852
379.77        87.17575
380.22        86.69928
380.67        86.51982
381.11        86.14819
381.56        86.16917
382.01        85.73301
382.46        85.03833
382.91        84.15622
383.36        83.30477
383.81        82.77657
384.26        82.60986
384.71        82.71693
385.15        82.87758
385.60        82.77089
386.05        82.31065
386.50         81.5989
386.95        80.83297
387.40        80.31033
387.85        80.09096
388.29        80.03426
388.74        80.03613
389.19        79.77097
389.64        79.18513
390.09        78.38585
390.54        77.56968
390.98        76.97043
391.43         76.6858
391.88        76.75416
392.33         76.9906
392.78        76.71587
393.23        76.06973
393.67         76.0257
394.12        76.49131
394.57        76.24963
395.02        75.40671
395.47        75.06026
395.91        75.22201
396.36         75.1039
396.81        74.71857
397.26        74.50514
397.71        74.39865
398.15        74.15818
398.60        73.87373
399.05        73.36212
399.50        72.78985
399.95        72.85942
400.39        73.40744
400.84        73.17358
401.29        72.26707
401.74        71.92746
402.18         72.1504
402.63        72.04359
403.08        71.69424
403.53        71.18565
403.97        71.54237
404.42        71.65746
404.87        71.73295
405.32        71.67548
405.76        71.45222
406.21        71.14149
406.66        70.78837
407.11        70.45806
407.55        70.23333
408.00         70.1284
408.45        70.12224
408.90        70.20045
409.34        70.23727
409.79        69.93527
410.24        69.41361
410.68        69.13248
411.13        69.13644
411.58        69.18168
412.03        69.17227
412.47        69.07594
412.92        68.84848
413.37        68.51655
413.81        68.20347
414.26        68.16664
414.71        68.40472
415.15        68.89436
415.60        69.38647
416.05        69.52915
416.49        69.23625
416.94        68.64345
417.39        68.03117
417.83        67.80058
418.28        68.04485
418.73        68.62835
419.17        69.34274
419.62         69.7765
420.07        69.79559
420.51        69.49663
420.96        69.06622
421.41         68.6276
421.85        68.21452
422.30        68.08782
422.74        68.08888
423.19        67.61511
423.64        66.85756
424.08         67.0163
424.53         67.9757
424.98        68.48807
425.42        68.43662
425.87        68.63178
426.31        69.06449
426.76        68.98471
427.21        68.56126
427.65        68.75287
428.10        69.41776
428.54        69.62257
428.99        69.38809
429.44        69.12186
429.88        68.88408
430.33        68.92019
430.77        69.07887
431.22         68.7663
431.66        68.34505
432.11        68.21443
432.56        68.43744
433.00        68.77929
433.45        69.02505
433.89        69.36891
434.34        66.90839
434.78        69.13316
435.23        69.51154
435.67        68.55997
436.12        67.69581
436.57        67.67283
437.01        69.04272
437.46        69.78482
437.90        69.71546
438.35        68.36523
438.79        69.16263
439.24        68.88224
439.68        68.56952
440.13        68.42881
440.57        68.53534
441.02        68.64758
441.46        68.65387
441.91         69.1132
442.35        69.68571
442.80        69.21738
443.24         68.0534
443.69        68.25353
444.13        69.58612
444.58        69.98988
445.02        69.36051
445.47        68.89197
445.91         68.7815
446.36         68.7895
446.80        68.91859
447.24        69.55198
447.69        69.91972
448.13        70.19279
448.58        70.14001
449.02        69.83958
449.47        69.44773
449.91        69.18286
450.36        69.12909
450.80        69.18338
451.25         69.2918
451.69        69.32716
452.13        69.26875
452.58        69.19324
453.02         69.0951
453.47        68.97404
453.91        68.82447
454.36        68.64153
454.80        68.47829
455.24        68.40795
455.69        68.44678
456.13        68.63866
456.58        68.86903
457.02        68.72903
457.46        68.24359
457.91        67.99969
458.35        67.96503
458.79         67.9765
459.24        67.95024
459.68        67.64144
460.13        67.18433
460.57        66.96016
461.01        67.03508
461.46        67.07026
461.90        66.96094
462.34        67.15292
462.79         66.7625
463.23         66.5792
463.68        66.41167
464.12        66.32449
464.56        66.29034
465.01        66.37808
465.45        66.46521
465.89        66.29456
466.34        65.96752
466.78        65.99127
467.22         66.3271
467.67        66.21759
468.11        65.76222
468.55        65.69442
468.99        65.99824
469.44        66.08335
469.88        65.93423
470.32        65.85246
470.77        65.85127
471.21        65.83805
471.65        65.79705
472.10        65.74838
472.54        65.67873
472.98        65.57457
473.42        65.43246
473.87        65.35039
474.31        65.26082
474.75        64.95537
475.20         64.5399
475.64        64.39188
476.08        64.51254
476.52         64.5332
476.97         64.4254
477.41        64.55994
477.85        64.59029
478.29        64.79125
478.74        64.81741
479.18        64.91965
479.62        65.08187
480.06        65.03911
480.50        64.70933
480.95        64.75412
481.39        65.32816
481.83        63.88192
482.27        64.44286
482.72        65.10196
483.16         64.6623
483.60        64.82254
484.04         64.9977
484.48        64.56718
484.93        63.63648
485.37        64.85268
485.81        65.62473
486.25         65.0423
486.69        66.93755
487.14        66.64748
487.58        64.30032
488.02         64.0087
488.46        65.17034
488.90        63.67382
489.34        64.35833
489.79        64.19773
490.23        64.72414
490.67        64.94417
491.11        64.88425
491.55        64.78572
491.99          64.647
492.43        64.50623
492.88        64.37583
493.32        64.30002
493.76        64.27576
494.20        64.22403
494.64        64.11613
495.08        64.17258
495.52        64.35952
495.96        64.05634
496.41        63.47355
496.85         63.9262
497.29        65.11071
497.73        65.18073
498.17        64.24867
498.61         63.8856
499.05        64.20675
499.49        64.30668
499.93        64.13636
500.37         64.0891
500.82        64.10802
501.26        63.89737
501.70        63.53473
502.14        63.41285
502.58        63.53603
503.02        63.57198
503.46        63.54951
503.90        63.63741
504.34        63.79977
504.78        63.84551
505.22        63.74899
505.66        63.57378
506.10        63.35718
506.54        63.23391
506.98         63.2421
507.42        63.34835
507.86        62.98122
508.30         63.7302
508.74        63.20864
509.18        63.24323
509.62         63.1969
510.06        63.18055
510.50        63.19485
510.94        63.23648
511.38        63.29012
511.82        63.27243
512.26         63.1782
512.70        63.03419
513.14        62.87585
513.58        62.78187
514.02        62.76917
514.46        62.76299
514.90        62.73288
515.34        62.86936
515.78        62.77998
516.22        62.79591
516.66        62.78066
517.10          62.705
517.54        62.57284
517.98        62.39762
518.42        62.26826
518.86        62.31855
519.30        62.56307
519.74        62.94884
520.18        63.34866
520.62        63.55417
521.06        63.51107
521.50        63.28339
521.93         62.9635
522.37        62.71817
522.81        62.59555
523.25        62.55172
523.69        62.55976
524.13        62.57452
524.57        62.58054
525.01        62.60612
525.45        62.64368
525.89        62.67287
526.32         62.6855
526.76        62.68173
527.20        62.68622
527.64        62.75029
528.08        62.87894
528.52        63.05693
528.96        63.22301
529.40        63.28263
529.83        63.20657
530.27        63.03157
530.71        62.83398
531.15        62.74113
531.59        62.77972
532.03        62.92289
532.46        63.06652
532.90        63.04479
533.34        62.83828
533.78        62.51889
534.22        62.22074
534.66        62.13771
535.09        62.28924
535.53        62.60589
535.97        62.97121
536.41        63.15276
536.85        63.08191
537.28        62.99468
537.72        62.90784
538.16        62.46145
538.60        61.89121
539.04        62.03428
539.47        62.72256
539.91        62.98363
540.35        62.74588
540.79        62.56401
541.22        62.49171
541.66         62.4216
542.10        62.38223
542.54        62.30563
542.97         62.2115
543.41        62.37578
543.85        62.68328
544.29        62.65966
544.72         62.3376
545.16        62.19571
545.60        62.24322
546.04        62.24103
546.47        62.17069
546.91        62.11213
547.35        62.08132
547.79        62.09739
548.22        62.15962
548.66        62.29963
549.10        62.47736
549.53        62.64986
549.97        62.77022
550.41        62.81083
550.84        62.75068
551.28        62.61088
551.72        62.42347
552.15        62.20004
552.59        61.98659
553.03        61.95201
553.46        61.78096
553.90        61.82132
554.34        61.93829
554.77        62.13492
555.21        62.23755
555.65        62.38383
556.08         62.5033
556.52        62.57905
556.96        62.59127
557.39        62.55427
557.83        62.50718
558.27        62.40083
558.70        62.26437
559.14        62.29121
559.57        62.42199
560.01        62.33607
560.45        62.09891
560.88        62.15021
561.32        62.44773
561.75        62.53253
562.19        62.43285
562.63        62.26686
563.06         62.1273
563.50        62.38583
563.93        62.89489
564.37        62.90553
564.80        62.47224
565.24        62.41904
565.68        62.69574
566.11        62.76199
566.55         62.6322
566.98        62.48691
567.42        62.37394
567.85        62.55803
568.29        62.57431
568.72        62.52331
569.16        62.38597
569.60        62.37699
570.03        62.44646
570.47        62.64404
570.90        62.96244
571.34        62.58185
571.77        63.34936
572.21        63.02074
572.64        63.18199
573.08        62.63523
573.51        63.22884
573.95        63.01381
574.38        62.72786
574.82        62.32391
575.25        63.38919
575.69        63.78281
576.12        63.15195
576.56        62.64022
576.99        62.73627
577.42        63.98901
577.86        62.91662
578.29        63.34936
578.73        63.44648
579.16        63.56954
579.60        63.39916
580.03        63.28382
580.47        63.18322
580.90        63.35483
581.33        62.63758
581.77        63.07522
582.20        64.29567
582.64        63.67779
583.07        63.93811
583.51         63.2871
583.94        62.84623
584.37        62.62265
584.81        62.83103
585.24        62.82636
585.68         63.5936
586.11        63.07041
586.54        63.40426
586.98        62.60007
587.41         62.5011
587.85        63.00107
588.28        63.37683
588.71        63.05842
589.15        62.68945
589.58        63.05191
590.01        62.32903
590.45        62.18151
590.88        62.51875
591.31        62.80155
591.75        63.01609
592.18        62.85483
592.61        62.50414
593.05        62.35436
593.48        63.64672
593.91        63.18217
594.35         63.2944
594.78        62.95826
595.21        62.83585
595.65        62.75871
596.08        62.59753
596.51        63.10587
596.94        62.76083
597.38        62.62856
597.81        62.19856
598.24        63.20803
598.68        62.82642
599.11        62.13506
599.54        63.54484
599.97        62.49691
600.41        62.99716
600.84        62.81744
601.27        62.90854
601.70        62.69429
602.14        62.68414
602.57        62.76136
603.00         62.9887
603.43        63.00823
603.87        62.84536
604.30        62.90286
604.73        62.99275
605.16         62.7287
605.60        62.25307
606.03        62.23092
606.46        62.65111
606.89        62.35287
607.32        62.63612
607.76        62.09858
608.19         62.5496
608.62        62.54002
609.05        62.42753
609.48        62.50698
609.92        62.98653
610.35        62.10299
610.78        63.41632
611.21        63.62835
611.64        63.37705
612.07        63.21823
612.50        63.14817
612.94        62.93477
613.37        62.56629
613.80        62.95848
614.23        62.63311
614.66        62.68636
615.09        62.69363
615.52         62.7531
615.96        62.82698
616.39        62.89807
616.82        62.99221
617.25        62.77438
617.68        63.05621
618.11        62.77093
618.54        61.92554
618.97        61.81824
619.40        62.33428
619.84        62.49985
620.27        62.71809
620.70        62.89277
621.13        63.12851
621.56        62.81636
621.99        62.07086
622.42        62.14925
622.85        62.69152
623.28        62.17317
623.71        62.29777
624.14         62.3039
624.57        61.81911
625.00        61.88096
625.43        61.98345
625.86        62.19215
626.29        62.34829
626.72        62.45004
627.15        62.47269
627.58        62.42605
628.01        62.32189
628.44        62.16124
628.87        62.00974
629.30        61.89193
629.73        61.88514
630.16        62.05833
630.59        61.86612
631.02        61.86158
631.45        61.89086
631.88        61.94004
632.31        61.99891
632.74        62.07194
633.17        62.13183
633.60        62.12096
634.03        62.03186
634.46        61.88652
634.89        61.71873
635.32        61.57846
635.75        61.48878
636.18        61.44971
636.61        61.45151
637.04        61.46894
637.47        61.49575
637.89        61.52874
638.32        61.53348
638.75        61.54807
639.18        61.58241
639.61         61.3825
640.04        61.41399
640.47        61.31699
640.90        61.23927
641.33        61.16897
641.76        61.13868
642.18        61.20084
642.61        61.33275
643.04        61.52521
643.47        61.72379
643.90        61.83853
644.33        61.84321
644.76        61.77268
645.18        61.67344
645.61        61.54167
646.04        61.39405
646.47        61.36946
646.90        61.52503
647.33        61.21803
647.75        61.60294
648.18        61.72414
648.61        61.90444
649.04        62.06115
649.47        62.18832
649.89        62.33664
650.32        62.41805
650.75        62.33876
651.18        62.14183
651.61        61.85831
652.03         61.5968
652.46        61.74901
652.89        62.15392
653.32        62.09219
653.74        61.70721
654.17        61.69037
654.60        60.67699
655.03        61.99901
655.46        61.83408
655.88        61.29296
656.31        64.48183
656.74        69.03914
657.16        65.70586
657.59        62.33427
658.02        62.67186
658.45        63.27753
658.87        63.57008
659.30        62.01483
659.73        61.69476
660.15        61.94547
660.58        61.78488
661.01        61.89495
661.44        61.66319
661.86        61.37732
662.29        61.08533
662.72        61.21705
663.14        61.67971
663.57        61.54621
664.00        60.95581
664.42        60.93189
664.85        61.45515
665.27        61.69977
665.70        61.59658
666.13        61.58529
666.55        61.66094
666.98        61.57362
667.41        61.39419
667.83        61.33201
668.26        61.40923
668.69        61.59396
669.11        61.77306
669.54        61.75311
669.96         61.5057
670.39        61.10492
670.82        60.74434
671.24        60.67704
671.67        60.94732
672.09        61.54725
672.52        62.28058
672.94        62.36901
673.37        62.46067
673.80         62.0746
674.22        61.61528
674.65          61.361
675.07        61.40652
675.50        61.63536
675.92        61.94118
676.35        62.12813
676.77         62.1473
677.20        62.07006
677.62        61.95001
678.05        61.86994
678.47        61.85406
678.90        61.86721
679.32        61.89909
679.75        61.99395
680.17        62.15108
680.60         62.2835
681.02        62.33289
681.45        62.59402
681.87        62.40189
682.30        62.29523
682.72        62.13701
683.15        62.02882
683.57         62.0028
684.00        62.04132
684.42        62.10794
684.85         62.1441
685.27        62.12927
685.70        62.01877
686.12        61.85405
686.54        61.91506
686.97        62.12316
687.39        62.08558
687.82        61.80162
688.24        61.64618
688.66        61.63874
689.09        61.55051
689.51        61.41933
689.94        61.46507
690.36        61.71837
690.78        61.99236
691.21        62.13309
691.63        62.73987
692.06        62.21216
692.48        62.36587
692.90        62.67548
693.33        62.74571
693.75          62.569
694.17        62.32133
694.60        62.08678
695.02        62.33009
695.44        62.20449
695.87        62.57836
696.29        63.03445
696.71        63.04203
697.14        62.61738
697.56        62.25091
697.98        62.08295
698.41        61.98775
698.83        61.97706
699.25        62.19409
699.68        62.52172
700.10        62.74826
700.52        62.79306
700.94        62.72301
701.37        62.58123
701.79        62.46214
702.21        62.38566
702.64         62.3246
703.06        62.26548
703.48        62.19541
703.90        62.11929
704.33        62.05909
704.75        62.03136
705.17        62.03999
705.59        62.08549
706.01        62.15317
706.44        62.25502
706.86        62.41922
707.28        62.61483
707.70        62.88352
708.12        63.15487
708.55        63.16913
708.97        62.97329
709.39        62.94487
709.81        63.07856
710.23        63.06552
710.66        62.90582
711.08        62.80902
711.50        62.80363
711.92        62.85661
712.34        62.96887
712.76        63.14229
713.19        63.30862
713.61        63.40668
714.03        63.38705
714.45         63.2683
714.87        63.09092
715.29        62.92004
715.71        62.77527
716.13        62.64332
716.56        62.50085
716.98        62.37545
717.40        62.25501
717.82        62.15705
718.24        62.09935
718.66        62.10364
719.08        62.16737
719.50         62.2682
719.92        62.39411
720.34        62.52754
720.76        62.66078
721.19        62.79118
721.61        62.89333
722.03        62.92661
722.45          62.916
722.87        62.72431
723.29        62.43537
723.71        62.60961
724.13        63.27805
724.55         62.9115
724.97        63.39381
725.39        63.34256
725.81        63.32332
726.23        63.13673
726.65        62.88989
727.07        62.80345
727.49        62.89804
727.91        63.12849
728.33        63.41026
728.75        63.60094
729.17        63.65524
729.59        63.61678
730.01        63.54801
730.43        63.54514
730.85        63.63204
731.27        63.76979
731.69        63.90669
732.10        63.97301
732.52         63.9458
732.94        63.85056
733.36        63.72225
733.78        63.60903
734.20        63.53604
734.62        63.52208
735.04        63.54094
735.46        63.50113
735.88        63.40923
736.30        63.38199
736.72        63.44894
737.13        63.51792
737.55        63.53463
737.97         63.7373
738.39        64.04418
738.81        63.85452
739.23        63.34404
739.65        63.57725
740.06        64.34734
740.48        64.49622
740.90        63.95498
741.32        63.36402
741.74        62.93434
742.16        62.73335
742.57        62.84985
742.99        63.24068
743.41        63.76196
743.83        64.16228
744.25         64.3588
744.67        64.40216
745.08        64.36572
745.50        64.33541
745.92        64.36147
746.34        64.40109
746.75        64.41264
747.17        64.35698
747.59        64.22105
748.01        64.02548
748.42        63.83498
748.84        63.72134
749.26        63.67757
749.68        63.75819
750.09        63.91122
750.51        63.76472
750.93        63.48514
751.35        63.89466
751.76        64.82819
752.18        65.17568
752.60        64.84962
753.01        64.44292
753.43         64.1171
753.85        63.91368
754.27        63.88989
754.68         64.0026
755.10        64.19346
755.52        64.37035
755.93        64.52501
756.35        64.72701
756.77        64.87404
757.18        64.94411
757.60        64.97985
758.02        64.51365
758.43        63.86633
758.85        64.63773
759.26        66.48072
759.68        66.58382
760.10        65.43208
760.51        64.78614
760.93        64.94849
761.34         65.1396
761.76        65.23254
762.18        64.89104
762.59        64.27893
763.01        64.28927
763.42        64.90907
763.84        65.12514
764.26        64.86862
764.67        64.47406
765.09        64.14277
765.50        64.16334
765.92        64.49638
766.33        64.52805
766.75        64.24455
767.16        64.45565
767.58        64.81832
768.00        65.26463
768.41        65.58893
768.83        65.68167
769.24        65.52686
769.66        65.18731
770.07        64.77508
770.49        64.50033
770.90        64.40768
771.32        64.49963
771.73        64.74722
772.15        65.01798
772.56        65.29477
772.97        65.60809
773.39        65.86526
773.80        65.98147
774.22        65.89853
774.63        65.67513
775.05        65.37028
775.46        65.14402
775.88        65.02841
776.29        65.00919
776.70        65.06379
777.12        65.15466
777.53        65.27605
777.95         65.4191
778.36        65.55605
778.77        65.60439
779.19         65.5624
779.60        65.46182
780.02        65.34517
780.43        65.32346
780.84        65.43193
781.26        65.51357
781.67        65.61935
782.09        65.99963
782.50        66.52253
782.91         66.6636
783.33        66.41367
783.74        66.28754
784.15        66.28532
784.57        66.11897
784.98        65.85271
785.39        65.72981
785.81         65.7846
786.22         65.9622
786.63        66.17936
787.04        66.29246
787.46        66.28165
787.87        66.15828
788.28        66.03631
788.70        66.05693
789.11        66.22238
789.52        66.54266
789.93        66.88763
790.35        66.92205
790.76        66.68115
791.17        66.49422
791.58          66.437
792.00        66.39229
792.41        66.40988
792.82        66.54626
793.23        66.79271
793.65        67.12635
794.06        67.50957
794.47        67.77488
794.88        67.79584
795.29        67.79258
795.71        67.35195
796.12        66.72478
796.53        66.02261
796.94        65.83295
797.35        66.22238
797.76        66.81573
798.18        67.35464
798.59        67.68797
799.00        67.68224
799.41        67.30882
799.82        66.76534
800.23        66.44722
800.64        66.44743
801.06        66.60903
801.47        66.88142
801.88        67.06371
802.29        67.08612
802.70        67.02718
803.11        66.92042
803.52        66.79872
803.93        66.68286
804.34          66.555
804.75        66.45628
805.17        66.41761
805.58        66.46373
805.99        66.68922
806.40        67.02347
806.81        67.03269
807.22        66.82148
807.63         67.0954
808.04        67.76203
808.45        68.00833
808.86        67.75061
809.27        67.43903
809.68        67.19593
810.09        67.02841
810.50        66.98877
810.91        67.08426
811.32        67.22921
811.73        67.27187
812.14        67.17315
812.55        66.97865
812.96        66.76468
813.37        66.66635
813.78        66.72404
814.19        66.88642
814.60        67.09257
815.01        67.26183
815.42        67.36933
815.83        67.43483
816.24        67.47873
816.65        67.53577
817.05        67.61538
817.46        67.66407
817.87        67.68438
818.28        67.63654
818.69        67.51656
819.10        67.34311
819.51        67.15585
819.92        67.02654
820.33        66.97849
820.74        66.98699
821.14        67.02285
821.55        67.05615
821.96        67.06602
822.37        67.08331
822.78        67.09031
823.19        67.05292
823.60         66.9788
824.00        66.88753
824.41        66.83926
824.82        67.01372
825.23        67.42907
825.64        68.02092
826.04        68.66176
826.45        69.03867
826.86        69.09849
827.27        68.92742
827.68         68.6162
828.08        68.34732
828.49         68.1538
828.90        68.00217
829.31        67.95045
829.72        68.09133
830.12        68.44813
830.53        68.95156
830.94        69.44016
831.35        69.57369
831.75        69.28506
832.16        68.61953
832.57        67.83553
832.97        67.32882
833.38        67.21335
833.79        67.38516
834.20        67.67825
834.60         67.8166
835.01        67.74448
835.42        67.55645
835.82         67.3726
836.23        67.33665
836.64        67.50178
837.04        67.81277
837.45        68.14751
837.86        68.42822
838.26        68.61834
838.67         68.7139
839.08         68.7009
839.48        68.53085
839.89        68.22053
840.29        67.77113
840.70        67.33404
841.11        67.08352
841.51        67.07343
841.92        67.26514
842.33         67.5241
842.73        67.61395
843.14        67.43515
843.54        67.07903
843.95        66.73838
844.35        66.75888
844.76        67.16486
845.17        67.85511
845.57        68.61361
845.98        68.93402
846.38         68.7347
846.79        68.17695
847.19        67.46401
847.60        66.93542
848.00        66.68732
848.41        66.59111
848.81        66.67878
849.22        66.90804
849.62        67.27734
850.03        67.74412
850.43        68.16875
850.84        68.18532
851.24        67.77528
851.65        67.03162
852.05        66.19925
852.46        65.69057
852.86        65.59265
853.27        65.78603
853.67        66.13705
854.07        66.64267
854.48         67.2044
854.88        67.92034
855.29        68.45743
855.69        68.39611
856.10        67.55153
856.50        66.13631
856.90        64.64962
857.31        63.86503
857.71        63.99116
858.12        64.81513
858.52        66.00999
858.92        66.75849
859.33        66.77193
859.73        66.29939
860.13        65.66029
860.54        65.40408
860.94        65.70181
861.34        66.32534
861.75        66.96521
862.15          67.229
862.55        66.95304
862.96        66.30759
863.36        65.50086
863.76        64.85956
864.17        64.49767
864.57        64.37007
864.97        64.35175
865.38        64.22726
865.78         63.9835
866.18        63.65956
866.58        63.43828
866.99         63.6153
867.39        64.23829
867.79        65.14672
868.19        66.01337
868.60        66.33615
869.00        66.02234
869.40        65.24013
869.80        64.27209
870.21        63.62632
870.61        63.50611
871.01        63.73547
871.41        64.17551
871.81        64.61607
872.22          64.958
872.62        65.32188
873.02        65.67297
873.42        65.91745
873.82        66.03444
874.22        66.01861
874.63        65.98192
875.03        66.09499
875.43        66.39027
875.83         66.7855
876.23        67.19112
876.63        67.43719
877.03        67.48362
877.44        67.44764
877.84        67.26385
878.24         66.8592
878.64        66.26298
879.04        65.45816
879.44        64.79083
879.84        64.75985
880.24        65.40739
880.64         66.6432
881.04        67.83317
881.44        67.84534
881.84        66.47963
882.24        64.15584
882.65        61.86959
883.05        60.94971
883.45        61.68236
883.85        63.68161
884.25        66.13499
884.65        67.54961
885.05        67.44038
885.45        66.25031
885.85        64.71553
886.25        63.95633
886.65        64.24671
887.05        65.19952
887.45        66.31293
887.85        66.78961
888.25        66.41108
888.65         65.5033
889.04        64.44154
889.44        63.78958
889.84        63.69643
890.24        63.98826
890.64        64.47663
891.04        64.87056
891.44        65.07019
891.84        65.17358
892.24        65.29649
892.64         65.6009
893.04        66.12439
893.44          66.796
893.83        67.49164
894.23        67.94228
894.63        68.09248
895.03        67.96064
895.43        67.72451
895.83        67.66815
896.23        67.85072
896.63        68.22312
897.02        68.49445
897.42        68.19369
897.82        67.28474
898.22        65.95644
898.62        64.69517
899.01         64.1675
899.41        64.50411
899.81        65.53143
900.21        66.76608
900.61        67.28675
901.00        66.82748
901.40        65.74977
901.80        64.63361
902.20        64.28667
902.59        64.88821
902.99        66.14509
903.39        67.66259
903.79        68.58717
904.18        68.58333
904.58        67.95682
904.98        67.09861
905.38        66.53493
905.77         66.3958
906.17        66.53536
906.57        66.80425
906.96        67.01415
907.36        67.04916
907.76        66.99723
908.15        66.96231
908.55        67.01175
908.95        67.19083
909.34         67.4467
909.74        67.65205
910.14        67.59456
910.53        67.25038
910.93        66.70895
911.33         66.1968
911.72        66.09361
912.12        66.46309
912.52        67.17117
912.91         67.9558
913.31        68.36811
913.70        68.31503
914.10        67.88009
914.49        67.27515
914.89        66.79629
915.29         66.5806
915.68         66.5413
916.08        66.60979
916.47        66.61926
916.87        66.55563
917.26         66.4482
917.66         66.3878
918.05         66.4898
918.45        66.73755
918.84        67.11897
919.24        67.43145
919.64        67.45014
920.03         67.1218
920.42        66.51838
920.82        65.89177
921.21        65.47018
921.61        65.31542
922.00         65.4055
922.40        65.58135
922.79        65.67807
923.19        65.60939
923.58        65.44273
923.98        65.34066
924.37        65.51216
924.77        65.99174
925.16        66.72018
925.55        67.47298
925.95        67.84312
926.34        67.75267
926.74        67.29914
927.13        66.71365
927.52         66.3494
927.92        66.30125
928.31        66.45821
928.70        66.70688
929.10        66.83566
929.49        66.80136
929.89        66.69856
930.28         66.5941
930.67        66.54411
931.07        66.56445
931.46         66.6191
931.85        66.76991
932.24        67.15604
932.64        67.74281
933.03        68.53999
933.42        69.27001
933.82        69.49506
934.21        69.15768
934.60        68.38703
934.99        67.53058
935.39        67.09052
935.78        67.18148
936.17        67.64479
936.56        68.26353
936.96        68.66928
937.35        68.77451
937.74        68.67559
938.13           68.39
938.53        67.93893
938.92         67.3692
939.31        66.74019
939.70         66.2273
940.09        66.11874
940.49        66.40009
940.88        66.96902
941.27        67.70393
941.66         68.3797
942.05        68.85397
942.44        69.22035
942.84        69.17213
943.23        68.22015
943.62        66.47904
944.01        64.26222
944.40        62.36374
944.79        61.79881
945.18        62.68048
945.57        64.74128
945.97        67.27823
946.36        69.07957
946.75        69.47667
947.14        68.80558
947.53        67.58355
947.92         66.6954
948.31        66.41711
948.70        66.40822
949.09        66.58104
949.48        66.81773
949.87        67.03008
950.26        67.37411
950.65        67.59037
951.04        67.19648
951.43        66.17787
951.82        64.68381
952.21        63.28044
952.60         62.8502
952.99        63.53621
953.38        65.05783
953.77        66.80762
954.16        67.72504
954.55        67.48272
954.94        66.38168
955.33        64.89507
955.72        63.81332
956.11        63.41073
956.50        63.48015
956.89         63.8065
957.28         64.0349
957.66        64.06564
958.05        64.03913
958.44        64.10802
958.83        64.47382
959.22        65.15738
959.61        66.00703
960.00        66.84297
960.39        67.39107
960.78        67.54198
961.16        67.38204
961.55        66.95529
961.94        66.32069
962.33        65.56605
962.72          64.714
963.11        63.96434
963.49         63.6576
963.88        63.81319
964.27        64.35849
964.66         65.0714
965.04        65.57021
965.43        65.67865
965.82        65.53842
966.21        65.23292
966.60        64.91858
966.98        64.69804
967.37        64.50057
967.76         64.4251
968.15        64.63394
968.53        65.13599
968.92        65.81214
969.31        66.51894
969.69        66.98743
970.08        67.08892
970.47        66.91874
970.86        66.47443
971.24        65.75912
971.63        64.86293
972.02        63.89285
972.40        63.13416
972.79        63.02222
973.17        63.71717
973.56        64.97464
973.95        66.65335
974.33        68.56657
974.72        70.50593
975.11        72.51563
975.49        74.28395
975.88        75.05229
976.26        74.62172
976.65        73.12711
977.04          71.098
977.42        69.25237
977.81        67.83883
978.19        66.69938
978.58        65.81615
978.96        64.92984
979.35        64.01093
979.74        63.14191
980.12        62.44388
980.51        61.96771
980.89        61.81766
981.28        61.96713
981.66        62.30236
982.05        62.57529
982.43        62.73098
982.82        62.74379
983.20        62.94136
983.59        63.86654
983.97        65.65911
984.35        68.16525
984.74        70.51887
985.12        71.42164
985.51        70.37656
985.89        67.93625
986.28        65.19608
986.66        63.37659
987.04         62.8521
987.43        63.17767
987.81        64.05541
988.20        64.76364
988.58         65.0579
988.96        65.21416
989.35        65.06065
989.73        64.42752
990.12        63.34654
990.50        61.82032
990.88        60.45321
991.27        60.17949
991.65        61.16875
992.03        63.30484
992.42        65.68672
992.80        66.70249
993.18        65.62611
993.56        63.19112
993.95        60.68539
994.33         59.3018
994.71        59.37249
995.10        60.39519
995.48        62.11047
995.86        63.51459
996.24        64.08866
996.63        64.22662
997.01        64.09657
997.39        63.87844
997.77        63.70092
998.15        63.35776
998.54        63.22868
998.92        64.09782
999.30        66.11279
999.68        69.16911
1000.06        72.22527
1000.45        73.29539
1000.83        72.06122
1001.21        69.08748
1001.59        65.83999
1001.97          64.325
1002.35        64.94077
1002.73        67.16914
1003.12        70.05685
1003.50        71.91286
1003.88        72.02975
1004.26        70.89667
1004.64        69.29472
1005.02        68.46786
1005.40        68.72321
1005.78        69.57904
1006.16        70.38508
1006.54        70.11804
1006.92        68.45673
1007.30        65.74319
1007.69        62.54187
1008.07        60.09436
1008.45        58.93809
1008.83        58.74583
1009.21        59.04485
1009.59        59.23108
1009.97        59.20437
1010.35        59.22789
1010.73        59.40038
1011.11        59.89341
1011.49        60.70268
1011.86        61.43856
1012.24        62.39828
1012.62        64.13437
1013.00        66.82462
1013.38        70.69986
1013.76        74.42245
1014.14        74.64168
1014.52        70.88769
1014.90        65.17511
1015.28        60.44242
1015.66         59.3168
1016.04        61.90637
1016.41        67.94659
1016.79        76.10292
1017.17        82.75108
1017.55        85.10364
1017.93        83.42646
1018.31        78.46323
1018.69        72.93022
1019.06         68.5773
1019.44        65.44508
1019.82        63.32269
1020.20        61.77902
1020.58        60.50486
1020.95        59.66975
1021.33        59.38852
1021.71        59.91784
1022.09        61.16888
1022.46        62.49518
1022.84        63.75455
1023.22        64.76125
1023.60        65.44421
1023.97        66.06926
1024.35        65.23898
1024.73        60.82886
