SpectraSmart Spectrum 2.9.0.0
--------- Device Information -----------
Spectrum Name :  反射率_0
Saving Time :  2024/05/03 20:02:35
Spectro-Module Model Name : SE2030-DUVN
Spectro-Module Serial Number : OS361AC55029948
Wavelength Start : 200
Wavelength End : 1025
Wavelength Unit : Wavelength(nm)
Spectrum Unit : Reflectance(%)
-----------Spectrum Setting ------------
Integration Time : 20ms
Average : 10
Boxcar : 0
Background removal :  enabled
linearity correction :  enabled
SC :  disabled
Intensity correction :  disabled
DWT denoise :  enabled
savitzky-golay :  disabled
FFT :  disabled
Running average :  disabled
Kalman :  disabled
High pass :  disabled
---------------BEGIN--------------------
Wavelength(nm)             Reflectance(%)
200.29               0
200.75       -65.66947
201.21       -96.27638
201.67        2321.119
202.13         76.0125
202.58        50.88197
203.04        49.79676
203.50        55.61422
203.96        65.99437
204.42        86.46858
204.88        159.7329
205.34       -2466.673
205.80       -214.2811
206.26       -247.7443
206.72       -62237.43
207.18        234.5839
207.64        158.3692
208.10         164.209
208.55        261.2924
209.01        1238.419
209.47        1492.578
209.93        222.3278
210.39        101.9388
210.85        72.69128
211.31        68.81585
211.77        78.96883
212.23        112.0778
212.69        202.4135
213.14        273.1256
213.60        161.0866
214.06        83.27135
214.52        52.40899
214.98        44.02922
215.44        49.38271
215.90        87.19355
216.36       -487.5477
216.81       -89.04588
217.27        -90.8475
217.73       -165.3926
218.19       -621.3468
218.65       -12189.37
219.11       -810.2258
219.57       -176.8739
220.02       -74.43928
220.48       -122.0547
220.94        193.1755
221.40        81.97116
221.86        65.82877
222.32        59.54033
222.77        54.89228
223.23        49.68978
223.69        42.71744
224.15        37.33116
224.61        37.92455
225.06        41.56227
225.52        45.35339
225.98        48.05891
226.44        50.12123
226.90        51.91368
227.36        53.50158
227.81        54.51263
228.27        54.25902
228.73        53.01229
229.19        50.62666
229.65        46.91557
230.10        42.41297
230.56        38.10389
231.02        34.70626
231.48        33.06994
231.93        32.96074
232.39        33.85106
232.85        35.04259
233.31        35.64086
233.77        35.48232
234.22        34.86491
234.68        34.24229
235.14        34.33947
235.60        35.41901
236.05        37.36546
236.51        39.84462
236.97        42.12847
237.43        43.77329
237.88        45.04459
238.34        46.31473
238.80        48.28077
239.26        51.62691
239.71        58.97242
240.17        69.68569
240.63        84.93088
241.08        97.58128
241.54        101.4749
242.00        99.23631
242.46        99.15598
242.91        104.3807
243.37        114.2377
243.83         130.969
244.28        147.4361
244.74         144.667
245.20        128.1248
245.66        106.9091
246.11        85.69324
246.57        67.32379
247.03        50.95327
247.48        41.03877
247.94        41.97628
248.40        52.52907
248.85        70.62564
249.31        90.52357
249.77        96.74226
250.22        87.34316
250.68        72.33461
251.14        59.24163
251.59        53.40966
252.05        54.98426
252.51        62.85092
252.96        79.31018
253.42        101.9993
253.88        120.7776
254.33        130.6616
254.79        128.4487
255.25        115.1207
255.70        98.71371
256.16        84.76363
256.62        75.09108
257.07        70.60682
257.53        70.01641
257.99        70.97679
258.44         71.8428
258.90         71.5176
259.35        69.57799
259.81        67.35942
260.27        64.95441
260.72        62.47286
261.18        60.45858
261.63        58.57707
262.09        57.21744
262.55        56.38243
263.00        55.86787
263.46        55.62416
263.91        55.36792
264.37        55.02803
264.83        54.48586
265.28        53.76133
265.74        52.88108
266.19        51.60308
266.65        50.07795
267.11        48.33119
267.56        46.58827
268.02        45.25991
268.47        44.33841
268.93        43.72668
269.38        43.19682
269.84        42.37342
270.30        41.22939
270.75        39.93715
271.21        38.74832
271.66        37.90076
272.12        37.43509
272.57        37.17471
273.03        37.03083
273.48        36.90305
273.94        36.72997
274.39        36.52984
274.85         36.1685
275.31        35.35875
275.76        34.11716
276.22        32.63786
276.67        31.23764
277.13        30.44433
277.58        30.23783
278.04        30.47589
278.49        30.77042
278.95        30.57098
279.40         29.7581
279.86        28.63918
280.31        27.49971
280.77        26.80895
281.22        26.54975
281.68         26.5844
282.13         26.6869
282.59        26.60202
283.04        26.25626
283.50        25.79275
283.95        25.30451
284.41         24.9444
284.86        24.74157
285.32        24.66446
285.77        24.68167
286.22        24.81154
286.68        25.03697
287.13        25.31074
287.59         25.5976
288.04        25.79524
288.50        25.90298
288.95        25.91757
289.41        25.87395
289.86        25.78578
290.32        25.70027
290.77        25.61376
291.22        25.57755
291.68        25.64757
292.13        25.84241
292.59        26.20328
293.04        26.71525
293.50         27.3515
293.95        28.08944
294.40        28.92416
294.86        29.91339
295.31        31.15506
295.77        32.66238
296.22        34.38462
296.68        36.17343
297.13         37.7652
297.58        39.06185
298.04         40.1517
298.49        41.13672
298.95         42.2507
299.40        43.54827
299.85        44.97892
300.31        46.55534
300.76        48.24974
301.21        50.04778
301.67        51.97351
302.12        53.89363
302.58        55.62651
303.03        57.10113
303.48        58.36581
303.94        59.62198
304.39        61.09903
304.84          62.882
305.30        64.88639
305.75        66.89795
306.20        68.62661
306.66        70.01245
307.11        71.10348
307.57        72.07563
308.02        73.06336
308.47        74.16128
308.93         75.3295
309.38        76.49384
309.83         77.6319
310.29        78.73032
310.74        79.78884
311.19        80.80685
311.65        81.76003
312.10        82.60722
312.55        83.32819
313.00        83.91866
313.46        84.39787
313.91        84.75549
314.36        85.04153
314.82        85.26582
315.27        85.41044
315.72        85.51349
316.18         85.6019
316.63        85.76881
317.08        86.16981
317.53        86.82437
317.99        87.66762
318.44        88.57381
318.89        89.27444
319.35        89.68635
319.80        89.87227
320.25        89.93715
320.70        90.08138
321.16        90.34786
321.61        90.68987
322.06        91.03046
322.51        91.25256
322.97        91.31612
323.42        91.29729
323.87        91.23022
324.32         91.1741
324.78         91.1468
325.23        91.16502
325.68        91.22775
326.13        91.35015
326.59        91.50714
327.04        91.74435
327.49         92.0265
327.94        92.32629
328.39        92.62228
328.85        92.87177
329.30        93.11784
329.75        93.31084
330.20        93.44786
330.66        93.52212
331.11        93.58603
331.56         93.6173
332.01        93.64359
332.46        93.68738
332.92        93.79005
333.37        94.12769
333.82        94.68559
334.27         95.4111
334.72        96.21646
335.17        96.94952
335.63        97.51436
336.08        97.98771
336.53        98.31525
336.98        98.47417
337.43        98.48949
337.88        98.37757
338.34        98.25697
338.79        98.34496
339.24        98.68877
339.69        99.25866
340.14        99.93625
340.59        100.5106
341.05        100.9157
341.50        101.2066
341.95        101.4773
342.40        101.8984
342.85        102.5002
343.30         103.211
343.75        103.8977
344.20        104.3565
344.66        104.5633
345.11        104.5829
345.56        104.5562
346.01        104.6886
346.46        105.0392
346.91        105.5422
347.36        106.1331
347.81        106.7084
348.26        107.2241
348.72        107.7152
349.17        108.1533
349.62        108.5162
350.07        108.7997
350.52        108.9906
350.97        109.1191
351.42        109.2543
351.87        109.3947
352.32        109.4972
352.77        109.5203
353.22        109.3976
353.67         109.122
354.13        108.7727
354.58        108.3066
355.03        107.7178
355.48        107.0519
355.93        106.3516
356.38        105.7669
356.83        105.5266
357.28        105.6534
357.73        106.0455
358.18        106.5246
358.63        106.7985
359.08        106.7613
359.53        106.4762
359.98        105.9751
360.43        105.3318
360.88        104.5908
361.33        103.7265
361.78        102.8253
362.23        102.0184
362.68        101.3378
363.13          100.79
363.58        100.2632
364.03        99.56369
364.48         98.6688
364.93        97.64336
365.38         96.6734
365.83        96.03754
366.28        95.77908
366.73        95.80181
367.18        95.87424
367.63        95.63181
368.08        94.98177
368.53        94.02438
368.98        92.98732
369.43        92.21243
369.88        91.77826
370.33        91.59547
370.78        91.44495
371.23        90.97002
371.68        90.09915
372.13        88.95847
372.58        87.83662
373.03        87.15662
373.48        86.98918
373.93        87.18719
374.38        87.43491
374.83        87.21976
375.28        86.42099
375.72        85.19484
376.17        83.90092
376.62        82.93076
377.07        82.37737
377.52        82.10633
377.97        81.94851
378.42        81.65457
378.87        81.17402
379.32        80.56065
379.77        79.91639
380.22        79.50646
380.67        79.37798
381.11        78.88974
381.56        78.94051
382.01        78.57092
382.46         78.0683
382.91        77.47017
383.36         76.8922
383.81        76.47118
384.26        76.21801
384.71        76.08999
385.15         75.9894
385.60        75.79195
386.05        75.45697
386.50        75.03077
386.95        74.57468
387.40        74.17875
387.85        73.87155
388.29        73.59229
388.74        73.37447
389.19        73.10542
389.64        72.75963
390.09        72.35527
390.54        71.95646
390.98        71.59371
391.43        71.31653
391.88        71.23934
392.33        71.25442
392.78        70.85073
393.23        70.19919
393.67        70.08081
394.12        70.43631
394.57         70.3764
395.02        69.89563
395.47        69.56471
395.91        69.42944
396.36        69.20623
396.81        68.93964
397.26        68.78163
397.71        68.65284
398.15        68.44555
398.60        68.24224
399.05        67.76204
399.50        67.20592
399.95        67.44901
400.39        68.26221
400.84        68.10848
401.29        67.09401
401.74        66.62892
402.18        66.79156
402.63         66.8276
403.08        66.75932
403.53        66.40643
403.97        66.69965
404.42        66.77116
404.87        66.84122
405.32         66.7972
405.76        66.62163
406.21        66.37426
406.66        66.07388
407.11        65.81871
407.55        65.65839
408.00        65.42849
408.45        65.17576
408.90        65.26784
409.34        65.55377
409.79        65.33028
410.24         64.7212
410.68        64.46761
411.13        64.60931
411.58        64.74799
412.03        64.75306
412.47        64.60732
412.92        64.26807
413.37        63.76958
413.81        63.28675
414.26        63.13902
414.71         63.3396
415.15        63.84896
415.60        64.40377
416.05        64.60921
416.49        64.36241
416.94        63.81207
417.39        63.23331
417.83        63.02505
418.28        63.27791
418.73        63.84128
419.17        64.53384
419.62        64.99871
420.07        65.11817
420.51        64.98408
420.96         64.7041
421.41        64.34441
421.85        63.93918
422.30         63.6081
422.74        63.33991
423.19        63.09928
423.64        62.93989
424.08         63.1895
424.53        63.73755
424.98         64.1422
425.42        64.32823
425.87        64.52131
426.31        64.74898
426.76        64.76871
427.21        64.68145
427.65        64.91055
428.10        65.30407
428.54        65.36563
428.99        65.13962
429.44        64.71172
429.88        64.24189
430.33        64.45403
430.77        65.07316
431.22        64.97804
431.66        64.29919
432.11        64.37958
432.56        65.09538
433.00        65.47064
433.45        65.35871
433.89        65.44628
434.34        63.02162
434.78        65.93797
435.23         66.1029
435.67        65.32465
436.12        64.32777
436.57         64.2112
437.01        65.56785
437.46        66.10812
437.90        65.84637
438.35        65.33915
438.79        65.84906
439.24        65.79521
439.68        65.54305
440.13        65.46976
440.57        65.64102
441.02        65.51955
441.46        65.11272
441.91        65.63929
442.35        66.76405
442.80        65.80416
443.24        65.11819
443.69        65.19522
444.13        66.44514
444.58        66.84004
445.02        66.30329
445.47        65.91929
445.91        65.83067
446.36         65.8316
446.80        65.92654
447.24        66.28111
447.69        66.81019
448.13        66.77726
448.58        67.08941
449.02          67.008
449.47        66.88866
449.91        66.79144
450.36        66.76778
450.80        66.74973
451.25        66.72644
451.69        66.67654
452.13        66.60013
452.58        66.52479
453.02        66.43441
453.47        66.32623
453.91        66.19508
454.36        66.04051
454.80        65.88126
455.24         65.8279
455.69         65.9108
456.13        65.95999
456.58        65.90165
457.02        66.17866
457.46        65.81158
457.91        65.57945
458.35        65.22819
458.79        65.12243
459.24        65.22585
459.68        64.91862
460.13        64.29471
460.57        64.17272
461.01        64.69687
461.46         63.9391
461.90        64.36085
462.34        64.65073
462.79        63.93359
463.23        63.81078
463.68        63.85015
464.12        63.85271
464.56        63.76427
465.01         63.9138
465.45        64.19359
465.89        64.08775
466.34        63.66827
466.78        63.82684
467.22        64.39361
467.67        63.70292
468.11        63.77786
468.55        63.52602
468.99        63.57146
469.44        63.51075
469.88        63.36386
470.32        63.28841
470.77        63.26495
471.21        63.25697
471.65        63.23645
472.10        63.20926
472.54        63.16273
472.98        63.06969
473.42        62.92295
473.87        62.86086
474.31        62.80899
474.75        62.45166
475.20        61.91619
475.64        61.83393
476.08        62.20765
476.52        62.26502
476.97        61.91277
477.41        62.54308
477.85        62.41671
478.29        62.41862
478.74        62.66313
479.18        62.61943
479.62        62.38058
480.06        62.26958
480.50        62.25141
480.95        62.34285
481.39        62.50394
481.83        62.22892
482.27        61.93617
482.72        62.20729
483.16         62.0677
483.60        61.55766
484.04        62.04064
484.48        61.93321
484.93        61.69594
485.37        62.38459
485.81        63.26942
486.25        62.72549
486.69        64.98751
487.14        65.42724
487.58        62.30927
488.02         62.2683
488.46        63.22155
488.90        61.50624
489.34        62.00251
489.79        62.07936
490.23        62.21776
490.67        62.46296
491.11        62.47958
491.55        62.40615
491.99        62.22577
492.43         62.0747
492.88        61.98499
493.32        61.94437
493.76         61.9346
494.20        61.92293
494.64        61.89388
495.08        61.90864
495.52        61.98779
495.96        61.97887
496.41        61.93478
496.85        62.27039
497.29        62.79869
497.73        62.73853
498.17        62.15836
498.61        61.80198
499.05        61.76781
499.49        61.77369
499.93         61.7522
500.37        61.65878
500.82        61.52074
501.26        61.44508
501.70        61.39345
502.14        61.75301
502.58         61.5492
503.02        61.59037
503.46        61.69251
503.90        61.75492
504.34        61.76958
504.78        61.70201
505.22        61.56042
505.66        61.34031
506.10        61.08846
506.54        60.97139
506.98        61.02676
507.42        61.05255
507.86        60.95046
508.30        61.42438
508.74        60.91714
509.18        60.81605
509.62        60.78609
510.06         60.4505
510.50        60.79331
510.94        60.99722
511.38        61.26688
511.82        61.40318
512.26        61.37135
512.70        61.21616
513.14        60.99152
513.58        60.80935
514.02        60.69896
514.46        60.62223
514.90        60.57247
515.34        60.53717
515.78        60.51324
516.22        60.53006
516.66        60.55021
517.10        60.50518
517.54        60.38754
517.98        60.20586
518.42        60.06329
518.86        60.10701
519.30         60.3508
519.74        60.80383
520.18        61.29314
520.62        61.38128
521.06        61.08123
521.50        60.82974
521.93        60.70672
522.37        60.55095
522.81        60.39593
523.25        60.38596
523.69        60.47859
524.13        60.51191
524.57        60.46399
525.01        60.40168
525.45        60.33339
525.89        60.26383
526.32        60.20092
526.76         60.1389
527.20        60.11676
527.64        60.21022
528.08        60.41961
528.52        60.71236
528.96        60.99955
529.40        61.14108
529.83        61.09463
530.27        60.91378
530.71        60.67284
531.15         60.4985
531.59        60.42873
532.03         60.4375
532.46        60.47328
532.90        60.45411
533.34        60.36895
533.78         60.2598
534.22        60.17855
534.66         60.1959
535.09        60.30647
535.53        60.47487
535.97        60.65418
536.41        60.73022
536.85        60.66765
537.28        60.66208
537.72          60.676
538.16        60.27618
538.60        59.67199
539.04        59.70198
539.47        60.24779
539.91        60.46188
540.35        60.29641
540.79          60.216
541.22        60.21687
541.66        60.32401
542.10        60.20474
542.54         60.0905
542.97        59.94139
543.41        60.09894
543.85        60.46187
544.29        60.54626
544.72        60.34814
545.16        60.27484
545.60        60.32844
546.04        60.29093
546.47         60.1582
546.91        60.08248
547.35        60.08244
547.79        60.02303
548.22        59.95009
548.66        60.19679
549.10        60.64093
549.53        60.78768
549.97        60.61713
550.41        60.52437
550.84        60.50496
551.28        60.35802
551.72        60.13458
552.15        59.89738
552.59         59.6741
553.03        59.95752
553.46        59.74907
553.90        59.84858
554.34        59.93103
554.77         59.9489
555.21        59.92673
555.65        60.00655
556.08        60.17464
556.52        60.29367
556.96        60.34494
557.39        60.39847
557.83        60.46764
558.27        60.47551
558.70          60.438
559.14        60.36852
559.57        60.51661
560.01        60.33435
560.45        60.01137
560.88        59.97535
561.32        60.20662
561.75        60.36339
562.19        60.43389
562.63        60.26411
563.06        59.97499
563.50        60.34359
563.93        61.13946
564.37         61.0308
564.80         60.1668
565.24        60.00626
565.68        60.49593
566.11         60.6304
566.55        60.41305
566.98        60.33232
567.42        60.40311
567.85        60.61158
568.29        60.54523
568.72         60.5635
569.16        60.61209
569.60        60.68763
570.03        60.76483
570.47         60.9104
570.90        61.12347
571.34        60.91104
571.77        61.77645
572.21         61.3245
572.64        61.62559
573.08        61.32196
573.51        61.56242
573.95        61.33111
574.38        61.13792
574.82        60.89603
575.25        61.86075
575.69        62.39054
576.12        62.00222
576.56        60.78791
576.99        61.18929
577.42        62.50912
577.86        61.77067
578.29        61.83905
578.73         62.2413
579.16        62.24602
579.60        61.94989
580.03        61.71999
580.47        61.51814
580.90        61.78599
581.33        61.21436
581.77        61.42508
582.20        62.91931
582.64        62.90639
583.07        63.00571
583.51        62.08823
583.94        61.43456
584.37         61.0672
584.81        61.38231
585.24        61.42728
585.68        62.16481
586.11        61.60458
586.54        61.95819
586.98        61.39931
587.41        61.11684
587.85        61.78053
588.28        61.83817
588.71        61.42026
589.15        61.10946
589.58        61.45215
590.01        60.85303
590.45         60.5451
590.88        60.90649
591.31        61.19275
591.75        61.50152
592.18        61.17887
592.61        60.50693
593.05        60.59669
593.48         62.1445
593.91        61.84118
594.35        62.00189
594.78        61.43745
595.21        61.37028
595.65        61.39652
596.08        61.08646
596.51        61.60026
596.94        61.42411
597.38        61.38523
597.81        61.01703
598.24         61.3511
598.68        61.36102
599.11        60.43221
599.54         61.8297
599.97         61.6945
600.41        61.62522
600.84        61.55802
601.27        61.66184
601.70        61.58029
602.14        61.37379
602.57        61.30848
603.00        61.36945
603.43        61.47968
603.87        61.23746
604.30        61.44981
604.73        61.62512
605.16        61.49144
605.60         60.8418
606.03         60.6889
606.46        61.00662
606.89        60.84651
607.32         61.1632
607.76        60.95317
608.19        61.09732
608.62        61.18313
609.05        61.03643
609.48        61.02427
609.92         61.3509
610.35        60.43406
610.78        61.96833
611.21        62.43531
611.64        62.01152
612.07        61.80047
612.50        61.65482
612.94        61.49351
613.37        61.35559
613.80        61.30188
614.23        61.32008
614.66        61.36752
615.09         61.4338
615.52        61.45371
615.96        61.41691
616.39        61.44757
616.82        61.57284
617.25        61.21096
617.68        61.67073
618.11        61.13155
618.54        60.26394
618.97        60.16983
619.40        60.86652
619.84        60.99838
620.27        61.20604
620.70        61.32756
621.13        61.60983
621.56        61.22046
621.99        60.68284
622.42        60.94574
622.85        61.60891
623.28        60.96713
623.71        60.59447
624.14        61.15983
624.57        60.28592
625.00        60.28711
625.43        60.50899
625.86        60.62081
626.29        60.50961
626.72        61.23363
627.15        60.89481
627.58        60.96088
628.01        60.84974
628.44        60.80331
628.87         60.7818
629.30        60.33684
629.73        60.26301
630.16        60.40651
630.59        60.21731
631.02        60.31672
631.45         60.4422
631.88        60.54175
632.31        60.57935
632.74        60.58632
633.17        60.56241
633.60        60.48981
634.03        60.37783
634.46        60.23114
634.89        60.08492
635.32        59.99667
635.75        59.97795
636.18         60.0159
636.61        60.08092
637.04        60.10281
637.47        60.09371
637.89        60.05737
638.32        59.99416
638.75        59.91871
639.18           59.84
639.61        59.77979
640.04        59.71743
640.47        59.71489
640.90        59.76488
641.33        59.85991
641.76        59.97355
642.18        60.06998
642.61        60.11439
643.04        60.12017
643.47        60.10184
643.90        60.08539
644.33        60.07701
644.76        60.07809
645.18        60.09134
645.61         60.0412
646.04        59.92067
646.47        59.89057
646.90        60.01592
647.33        59.68476
647.75        60.02942
648.18        60.10416
648.61        60.24039
649.04        60.38537
649.47        60.53912
649.89        60.76091
650.32        60.92597
650.75        60.86391
651.18        60.62149
651.61        60.26152
652.03        59.96496
652.46        60.19726
652.89        60.73016
653.32        60.75549
653.74        60.48596
654.17        59.81913
654.60        59.59193
655.03        60.59345
655.46        59.87947
655.88        59.90314
656.31          62.417
656.74          68.536
657.16        66.13829
657.59        63.01021
658.02         61.9477
658.45        61.85981
658.87        62.04467
659.30         61.0198
659.73         60.0515
660.15        60.86834
660.58        59.99417
661.01          60.081
661.44        59.92058
661.86        59.89301
662.29        59.92115
662.72        60.02582
663.14          60.186
663.57        60.00861
664.00        59.64041
664.42        59.67693
664.85        60.09525
665.27        60.31859
665.70        60.27986
666.13        60.29785
666.55        60.36149
666.98        60.25775
667.41        60.05551
667.83        59.95815
668.26        59.99276
668.69        60.12748
669.11         60.2629
669.54        60.23338
669.96        60.01277
670.39        59.65924
670.82        59.35677
671.24        59.34403
671.67        59.65778
672.09         60.2967
672.52        61.04372
672.94        61.09716
673.37        61.09192
673.80        60.56937
674.22        59.98724
674.65        59.71598
675.07        59.86742
675.50         60.3014
675.92        60.83649
676.35        61.15008
676.77         61.1591
677.20        60.96787
677.62        60.70244
678.05         60.5633
678.47        60.60076
678.90        60.73877
679.32        60.90306
679.75         61.0362
680.17        61.11585
680.60        61.09977
681.02        60.98197
681.45        61.12777
681.87        60.91327
682.30        60.83832
682.72        60.75482
683.15        60.74007
683.57        60.80906
684.00        60.94832
684.42        61.10168
684.85         61.1769
685.27         61.1492
685.70        60.98451
686.12        60.74689
686.54         60.7508
686.97        60.93061
687.39        60.89001
687.82        60.62681
688.24         60.5034
688.66        60.53309
689.09        60.49468
689.51        60.40538
689.94        60.44872
690.36        60.64975
690.78        60.83181
691.21        60.87635
691.63        61.42438
692.06         60.9228
692.48        61.13669
692.90        61.51764
693.33        61.62692
693.75        61.44302
694.17        61.13496
694.60        60.82309
695.02        61.06062
695.44        61.00895
695.87        61.42134
696.29        61.86865
696.71        61.83967
697.14        61.37027
697.56        61.01128
697.98        60.89317
698.41        60.80859
698.83        60.76833
699.25        60.97148
699.68        61.30034
700.10        61.51108
700.52        61.52509
700.94        61.42163
701.37        61.26153
701.79        61.16578
702.21        61.15728
702.64        61.19492
703.06        61.24143
703.48        61.24836
703.90        61.20887
704.33        61.15249
704.75        61.10474
705.17        61.08804
705.59        61.11227
706.01        61.15482
706.44        61.23021
706.86        61.39164
707.28        61.61426
707.70        61.87891
708.12        62.10998
708.55        62.18333
708.97        62.07598
709.39        61.83608
709.81        61.55642
710.23        61.41055
710.66        61.45147
711.08        61.63929
711.50        61.89153
711.92        62.09634
712.34        62.21399
712.76        62.27254
713.19        62.26989
713.61        62.25965
714.03          62.231
714.45        62.16624
714.87        62.07644
715.29        61.98183
715.71        61.88515
716.13        61.79685
716.56        61.69206
716.98        61.57506
717.40        61.43008
717.82        61.32639
718.24         61.1996
718.66        61.17969
719.08        61.24944
719.50        61.36122
719.92        61.47722
720.34        61.61653
720.76        61.78283
721.19        61.66322
721.61        61.80555
722.03        61.76728
722.45        61.74596
722.87         61.5823
723.29        61.33512
723.71        61.50558
724.13        62.10941
724.55         61.6686
724.97        62.06002
725.39        61.97575
725.81        61.98232
726.23         61.8673
726.65        61.71345
727.07        61.70419
727.49        61.84834
727.91        62.11008
728.33        62.41048
728.75        62.61629
729.17        62.68622
729.59        62.65911
730.01        62.59644
730.43        62.59622
730.85        62.68218
731.27        62.81412
731.69         62.9449
732.10         63.0144
732.52        63.01093
732.94         62.9386
733.36        62.80808
733.78        62.72045
734.20         62.7169
734.62        62.45185
735.04        62.54012
735.46        62.52069
735.88         62.5643
736.30        62.65352
736.72        62.77998
737.13         62.8658
737.55        62.83742
737.97        62.91201
738.39        63.06811
738.81        62.80219
739.23        62.32806
739.65        62.74329
740.06        63.74628
740.48        63.97395
740.90        63.32778
741.32        62.53446
741.74        61.87824
742.16        61.53026
742.57        61.61686
742.99        62.05719
743.41        62.67393
743.83        63.16269
744.25        63.41775
744.67        63.51219
745.08        63.49883
745.50        63.42769
745.92        63.35226
746.34        63.23884
746.75        63.10897
747.17        63.02924
747.59        63.00783
748.01        63.02616
748.42        63.07836
748.84        63.14963
749.26        63.18874
749.68        63.20158
750.09        63.20225
750.51        63.03263
750.93        62.85606
751.35        63.29941
751.76        64.17638
752.18         64.4825
752.60        64.12999
753.01        63.64341
753.43        63.22692
753.85        63.02682
754.27        63.10908
754.68        63.39285
755.10        63.75351
755.52        63.99358
755.93        64.08644
756.35        64.14405
756.77        64.11803
757.18        64.08634
757.60        64.11134
758.02        63.66281
758.43        63.05959
758.85        63.92655
759.26        65.87022
759.68        66.11799
760.10        64.68295
760.51        63.90795
760.93        64.11779
761.34        63.79949
761.76        64.47632
762.18        64.22544
762.59        63.63575
763.01        63.56783
763.42        64.08179
763.84        64.22238
764.26        63.97146
764.67        63.89075
765.09        64.00261
765.50        63.97432
765.92        63.82975
766.33        63.62896
766.75        63.40189
767.16        63.40473
767.58        63.62278
768.00        63.88212
768.41        64.13882
768.83        64.51996
769.24        64.86294
769.66        64.63456
770.07        63.98319
770.49        63.61618
770.90        63.63684
771.32        63.88871
771.73        64.25009
772.15        64.54424
772.56        64.75774
772.97        64.81158
773.39         64.6702
773.80        65.21536
774.22        65.07342
774.63        65.10573
775.05         64.9094
775.46        64.75867
775.88        64.65092
776.29        64.49006
776.70        64.33427
777.12        64.30613
777.53        64.43958
777.95        64.68469
778.36        64.94272
778.77        65.01601
779.19         64.8777
779.60        64.60243
780.02         64.3256
780.43        64.28531
780.84        64.53815
781.26        64.91949
781.67         65.3735
782.09         65.8586
782.50        66.24455
782.91        66.30863
783.33        66.06323
783.74        65.84401
784.15        65.67036
784.57        65.37789
784.98        65.04697
785.39        64.88542
785.81        64.92534
786.22        65.12373
786.63        65.37493
787.04        65.49136
787.46        65.45004
787.87        65.28259
788.28        65.10732
788.70        65.09422
789.11        65.25366
789.52        65.52578
789.93        65.83055
790.35        66.03008
790.76        66.11524
791.17        66.14154
791.58        66.11272
792.00        66.06273
792.41        66.04317
792.82        65.87275
793.23        65.68385
793.65        66.05294
794.06        66.84501
794.47        67.14307
794.88        66.88406
795.29        66.72826
795.71        66.64225
796.12        66.20673
796.53        65.57343
796.94        65.38538
797.35        65.69623
797.76        66.10408
798.18          66.437
798.59        66.70406
799.00        66.80732
799.41         66.6786
799.82        66.42428
800.23        66.28558
800.64        66.31633
801.06        66.41022
801.47        66.56301
801.88        66.65916
802.29        66.65854
802.70        66.59577
803.11        66.50943
803.52        66.44746
803.93        66.42754
804.34        66.44028
804.75        66.44688
805.17        66.38441
805.58        66.27091
805.99        66.09812
806.40        65.94465
806.81        65.96899
807.22        66.16364
807.63        66.40855
808.04        66.63556
808.45        66.76704
808.86        66.75615
809.27        66.60597
809.68        66.38361
810.09        66.22668
810.50        66.17959
810.91        66.20588
811.32        66.27298
811.73        66.32557
812.14        66.34331
812.55        66.34859
812.96        66.35497
813.37        66.37891
813.78        66.42359
814.19        66.47503
814.60        66.51987
815.01        66.54364
815.42        66.54664
815.83        66.53938
816.24        66.53377
816.65         66.5503
817.05        66.60014
817.46        66.64196
817.87        66.70721
818.28        66.79639
818.69        66.90667
819.10        67.03713
819.51        67.16147
819.92        67.23335
820.33        67.23361
820.74        67.16106
821.14        67.05368
821.55        66.99046
821.96        66.98264
822.37        67.03873
822.78        67.09356
823.19        67.02893
823.60        66.83038
824.00        66.54565
824.41         66.3019
824.82          66.381
825.23        66.82618
825.64        67.54784
826.04        68.33276
826.45        68.72375
826.86         68.6315
827.27        68.18211
827.68         67.5769
828.08        67.18098
828.49        67.07386
828.90        67.16978
829.31        67.40833
829.72         67.6886
830.12        67.98026
830.53        68.26548
830.94        68.49298
831.35        68.51679
831.75         68.3259
832.16        67.90395
832.57        67.39569
832.97        67.01788
833.38        66.84052
833.79        66.82415
834.20        66.89644
834.60        66.92236
835.01        66.88323
835.42         66.8259
835.82        66.81125
836.23        66.89053
836.64        67.08855
837.04        67.38192
837.45         67.6809
837.86        67.96041
838.26        68.19912
838.67        68.36398
839.08         68.4204
839.48        68.29587
839.89        67.99254
840.29        67.51808
840.70        67.02125
841.11        66.66559
841.51         66.5155
841.92        66.55603
842.33        66.66441
842.73        66.62642
843.14        66.35963
843.54        65.94276
843.95        65.61976
844.35        65.81508
844.76        66.55079
845.17        67.69807
845.57          68.896
845.98        69.38103
846.38        69.01286
846.79        68.03909
847.19         66.8462
847.60         66.0549
848.00         65.8362
848.41        65.98608
848.81        66.43914
849.22        66.98324
849.62        67.55215
850.03        68.14788
850.43        68.66336
850.84        68.78627
851.24        68.50896
851.65        67.88338
852.05        67.11612
852.46        66.57365
852.86        66.34671
853.27        66.36137
853.67        66.52588
854.07        66.88181
854.48        67.33772
854.88        67.97012
855.29        68.45918
855.69        68.40989
856.10        67.63548
856.50        66.34704
856.90        64.96609
857.31         64.1488
857.71        64.08195
858.12        64.56886
858.52        65.40069
858.92        65.98413
859.33        66.09824
859.73        65.94268
860.13        65.67474
860.54        65.57581
860.94        65.75854
861.34        66.07587
861.75        66.39922
862.15        66.63793
862.55        66.70125
862.96        66.65089
863.36          66.509
863.76        66.31052
864.17        66.07594
864.57        65.83125
864.97        65.57181
865.38        65.27635
865.78         64.9895
866.18        64.69685
866.58        64.48019
866.99        64.47373
867.39        64.69939
867.79        65.07389
868.19        65.42707
868.60        65.47367
869.00        65.17503
869.40        64.65315
869.80         64.0399
870.21         63.5827
870.61        63.41465
871.01        63.42384
871.41        63.65097
871.81        64.16115
872.22        64.90226
872.62        65.90655
873.02         66.9182
873.42        67.43198
873.82        67.30828
874.22        66.68728
874.63        65.93614
875.03        65.59756
875.43        65.79658
875.83        66.33845
876.23        67.01128
876.63        67.43201
877.03        67.49142
877.44        67.40073
877.84        67.12936
878.24        66.64601
878.64        66.01262
879.04        65.18111
879.44        64.54607
879.84         64.7028
880.24        65.68172
880.64        67.33594
881.04        68.93121
881.44        69.13859
881.84        67.70469
882.24        65.15157
882.65         62.4953
883.05        61.08459
883.45        61.24622
883.85        62.57259
884.25        64.48231
884.65        65.89142
885.05        66.37502
885.45        66.24097
885.85        65.78322
886.25        65.45228
886.65        65.39043
887.05        65.39831
887.45        65.38342
887.85        65.25082
888.25        64.98176
888.65        64.69086
889.04        64.41975
889.44        64.22078
889.84        64.10795
890.24        64.06748
890.64        64.13909
891.04        64.39491
891.44        64.81932
891.84        65.36115
892.24         65.9195
892.64        66.33854
893.04        66.59057
893.44         66.7393
893.83        66.84002
894.23        66.91462
894.63        67.01152
895.03        67.05823
895.43        67.16156
895.83        67.49408
896.23        68.05199
896.63        68.80977
897.02        69.42084
897.42        69.31734
897.82        68.44875
898.22        67.02441
898.62        65.60343
899.01        64.97254
899.41        65.29234
899.81        66.35659
900.21        67.66361
900.61        68.24793
901.00        67.81882
901.40        66.75851
901.80        65.62099
902.20        65.17051
902.59        65.58128
902.99         66.5599
903.39        67.77328
903.79        68.50368
904.18        68.47197
904.58        67.96059
904.98         67.2673
905.38        66.78536
905.77        66.61182
906.17         66.6159
906.57        66.74032
906.96        66.95222
907.36        67.16417
907.76        67.42302
908.15        67.65377
908.55         67.6315
908.95         67.3531
909.34        66.87029
909.74        66.33855
910.14        65.96317
910.53        65.81064
910.93        65.86217
911.33        66.06921
911.72        66.35801
912.12        66.67879
912.52        67.02198
912.91        67.40899
913.31        67.84583
913.70        68.33601
914.10        68.80814
914.49        69.15423
914.89        69.13525
915.29        68.74667
915.68        68.08119
916.08        67.37132
916.47        66.92653
916.87        66.85556
917.26        67.01985
917.66        67.32835
918.05        67.62305
918.45         67.8102
918.84        67.99649
919.24        68.02248
919.64        67.73846
920.03        67.15871
920.42         66.3285
920.82         65.5882
921.21        65.29967
921.61        65.53088
922.00        66.23705
922.40        67.09948
922.79        67.63245
923.19         67.6375
923.58        67.25105
923.98        66.82598
924.37        66.86513
924.77        67.47506
925.16        68.52445
925.55          69.626
925.95        70.07995
926.34        69.72689
926.74        68.75731
927.13        67.61439
927.52        66.95892
927.92        66.94184
928.31        67.35795
928.70        67.87379
929.10        67.91657
929.49        67.37748
929.89        66.49875
930.28        65.59608
930.67        65.11552
931.07        65.18396
931.46        65.64375
931.85        66.40092
932.24         67.3401
932.64        68.32144
933.03        69.40858
933.42        70.34439
933.82        70.72622
934.21        70.50976
934.60        69.79115
934.99        68.90148
935.39        68.34344
935.78        68.23717
936.17        68.42748
936.56        68.77142
936.96        69.01381
937.35        69.09589
937.74        69.10892
938.13         68.9395
938.53        68.38604
938.92        67.48038
939.31        66.37886
939.70        65.46068
940.09        65.32574
940.49        66.02367
940.88        67.34146
941.27        68.98646
941.66        70.41759
942.05        71.33883
942.44        71.88877
942.84        71.76504
943.23        70.52818
943.62        68.35355
944.01        65.56587
944.40        63.05137
944.79        61.91827
945.18        62.29014
945.57         63.9112
945.97        66.06113
946.36        67.48981
946.75        67.57147
947.14        66.70026
947.53        65.48524
947.92        64.93538
948.31        65.32813
948.70        66.23595
949.09        67.43735
949.48        68.60345
949.87        69.52156
950.26        70.33885
950.65        70.75765
951.04        70.26749
951.43        68.88501
951.82        66.80984
952.21         64.7027
952.60        63.57202
952.99        63.63684
953.38        64.65041
953.77        66.06984
954.16        66.91669
954.55        66.87064
954.94        66.18061
955.33        65.25979
955.72        64.79603
956.11        64.98479
956.50        65.60301
956.89        66.29348
957.28        66.50224
957.66        66.11312
958.05        65.32673
958.44        64.54032
958.83        64.35802
959.22        64.91105
959.61        65.96696
960.00        67.15289
960.39        67.82722
960.78        67.77538
961.16        67.21178
961.55         66.3362
961.94        65.44701
962.33        64.69807
962.72        64.01693
963.11        63.53518
963.49        63.49082
963.88        63.86759
964.27        64.65023
964.66        65.59941
965.04         66.2971
965.43        66.56296
965.82        66.50608
966.21        66.30585
966.60        66.29887
966.98        66.58863
967.37        67.02606
967.76        67.48852
968.15        67.76988
968.53        67.81821
968.92        67.67325
969.31        67.41597
969.69        67.15555
970.08        66.91294
970.47        66.67988
970.86        66.46127
971.24        66.25603
971.63        66.08527
972.02        66.04712
972.40        66.16908
972.79        66.42609
973.17        66.86871
973.56        67.36153
973.95        68.07497
974.33         69.3229
974.72        71.03168
975.11         73.1371
975.49        75.16677
975.88        76.01051
976.26        75.35155
976.65        73.47946
977.04        71.06303
977.42         68.9863
977.81        67.53423
978.19        66.46709
978.58        65.72128
978.96         64.9882
979.35        64.21179
979.74        63.49237
980.12        62.93869
980.51        62.57457
980.89        62.49841
981.28        62.68077
981.66        63.03152
982.05        63.34666
982.43        63.59146
982.82        63.74371
983.20        64.11005
983.59        65.20216
983.97        67.15862
984.35         69.8261
984.74        72.38091
985.12        73.59726
985.51        72.94551
985.89        70.90515
986.28        68.45815
986.66         66.6824
987.04        65.94333
987.43        65.85133
987.81        66.18629
988.20        66.38548
988.58        66.31787
988.96        66.24538
989.35        66.05159
989.73        65.63326
990.12        64.97924
990.50        64.02192
990.88        63.22483
991.27         63.3218
991.65        64.44186
992.03        66.53728
992.42        68.66843
992.80        69.23928
993.18        67.59883
993.56        64.49357
993.95        61.47712
994.33        60.03529
994.71        60.51526
995.10         62.4249
995.48        65.10985
995.86        66.64328
996.24        66.24189
996.63        64.62137
997.01        62.76204
997.39        61.95773
997.77        62.51157
998.15        63.90052
998.54        65.84835
998.92        67.89771
999.30        69.73387
999.68        71.57224
1000.06        72.85813
1000.45        72.58667
1000.83        70.83169
1001.21        67.83601
1001.59        64.84048
1001.97        63.53983
1002.35        64.22118
1002.73        66.55541
1003.12        69.52242
1003.50        71.22305
1003.88        70.99738
1004.26        69.43398
1004.64        67.59439
1005.02        67.23962
1005.40        68.70718
1005.78        71.14848
1006.16        73.76369
1006.54        75.29066
1006.92        75.23483
1007.30          74.165
1007.69        71.71731
1008.07        67.58258
1008.45        62.54939
1008.83        57.32476
1009.21        53.54395
1009.59        52.87098
1009.97        55.31155
1010.35        60.65131
1010.73        67.59022
1011.11        72.53337
1011.49         73.5856
1011.86        71.14597
1012.24        67.41817
1012.62        66.08286
1013.00        68.27062
1013.38        73.43402
1013.76        79.53024
1014.14        81.20763
1014.52        77.12753
1014.90        70.47102
1015.28        64.70202
1015.66        62.72526
1016.04        64.67212
1016.41        69.87477
1016.79        77.41126
1017.17        84.88766
1017.55         90.0262
1017.93        93.09798
1018.31        92.86958
1018.69        88.30988
1019.06        80.80659
1019.44        72.36678
1019.82        65.58769
1020.20         62.4371
1020.58        62.53271
1020.95        65.41783
1021.33        70.03563
1021.71        73.36916
1022.09         73.8395
1022.46        71.92964
1022.84        69.55937
1023.22        69.25016
1023.60        71.70354
1023.97        76.85329
1024.35        82.78721
1024.73        83.78812
