SpectraSmart Spectrum 2.9.0.0
--------- Device Information -----------
Spectrum Name :  反射率_0
Saving Time :  2024/05/03 20:24:40
Spectro-Module Model Name : SE2030-DUVN
Spectro-Module Serial Number : OS361AC55029948
Wavelength Start : 200
Wavelength End : 1025
Wavelength Unit : Wavelength(nm)
Spectrum Unit : Reflectance(%)
-----------Spectrum Setting ------------
Integration Time : 20ms
Average : 10
Boxcar : 0
Background removal :  enabled
linearity correction :  enabled
SC :  disabled
Intensity correction :  disabled
DWT denoise :  enabled
savitzky-golay :  disabled
FFT :  disabled
Running average :  disabled
Kalman :  disabled
High pass :  disabled
---------------BEGIN--------------------
Wavelength(nm)             Reflectance(%)
200.29               0
200.75        25.99712
201.21        31.07895
201.67       -248.9275
202.13         8.00829
202.58        7.997324
203.04        5.755308
203.50        3.116665
203.96       0.6762463
204.42       -2.317116
204.88       -12.40053
205.34        306.3959
205.80        21.72062
206.26      -0.3628471
206.72        -8907.05
207.18        61.38779
207.64        50.59541
208.10        53.49966
208.55        75.31837
209.01        280.4006
209.47        346.6748
209.93        72.94249
210.39        46.25814
210.85        39.84882
211.31        39.51797
211.77        42.83338
212.23        52.75887
212.69        78.12338
213.14        92.55445
213.60        54.69655
214.06         32.4911
214.52        24.43705
214.98        22.38421
215.44        24.10573
215.90        35.44077
216.36       -156.8315
216.81       -33.97604
217.27       -51.69847
217.73       -125.4127
218.19       -553.1673
218.65       -11905.04
219.11       -851.9762
219.57       -205.9848
220.02        -99.9818
220.48       -159.9027
220.94        210.6597
221.40        77.97375
221.86        58.47741
222.32        51.47357
222.77        47.18847
223.23        43.57612
223.69        39.16288
224.15        34.39612
224.61        32.32015
225.06        32.37981
225.52        34.17268
225.98        37.65182
226.44        43.09398
226.90        51.14484
227.36        60.45796
227.81        64.96749
228.27        61.54839
228.73        53.78087
229.19        45.96624
229.65        41.32254
230.10        39.43125
230.56        39.08846
231.02        39.36023
231.48        39.50562
231.93         39.3593
232.39        39.32221
232.85        39.25565
233.31        38.96859
233.77        38.48153
234.22        37.74719
234.68         37.1891
235.14        37.54671
235.60        39.01451
236.05         41.5758
236.51        44.49025
236.97        46.21486
237.43        46.18129
237.88        44.97277
238.34        43.66425
238.80        43.57312
239.26        45.23139
239.71          51.041
240.17         59.2172
240.63        69.85902
241.08        75.89622
241.54        74.00071
242.00        68.54332
242.46        66.56052
242.91        70.09025
243.37        79.07555
243.83        96.00094
244.28        114.7967
244.74        116.5387
245.20        101.3095
245.66        80.22745
246.11        62.28815
246.57        49.36512
247.03        39.77639
247.48        32.23677
247.94        24.50122
248.40        16.20888
248.85        7.148359
249.31        1.161863
249.77        5.555897
250.22        18.76399
250.68        34.52974
251.14        48.46201
251.59        59.45794
252.05         69.4774
252.51        80.35033
252.96         93.2877
253.42        105.0317
253.88        109.5595
254.33        106.6079
254.79        98.20161
255.25         86.7258
255.70        76.09312
256.16        68.40746
256.62        64.32389
257.07        64.26223
257.53        67.16221
257.99        71.12531
258.44        74.09042
258.90        74.40702
259.35        71.91572
259.81        68.47591
260.27        64.88984
260.72        61.99538
261.18        60.25407
261.63        58.96984
262.09        58.15744
262.55         57.4391
263.00        56.61465
263.46        55.81362
263.91        54.97077
264.37        54.30999
264.83        53.75807
265.28        53.22189
265.74        52.54741
266.19        51.26443
266.65        49.51334
267.11          47.428
267.56        45.40548
268.02        44.08587
268.47        43.49932
268.93         43.4648
269.38        43.60027
269.84        43.26628
270.30        42.33822
270.75        41.03903
271.21        39.74963
271.66        38.90278
272.12        38.57852
272.57        38.54234
273.03         38.5665
273.48        38.33212
273.94        37.76403
274.39        36.99942
274.85        36.11646
275.31        35.11184
275.76        34.03942
276.22        32.97485
276.67         32.0585
277.13        31.59892
277.58        31.52925
278.04        31.76653
278.49        32.01003
278.95        31.84768
279.40           31.18
279.86        30.25644
280.31        29.26283
280.77         28.5561
281.22        28.11727
281.68        27.86781
282.13        27.68889
282.59        27.48644
283.04        27.20909
283.50        26.93429
283.95          26.648
284.41        26.35241
284.86        26.04376
285.32        25.74598
285.77        25.49364
286.22        25.40607
286.68         25.4972
287.13        25.68966
287.59         25.9206
288.04        26.04613
288.50        26.05824
288.95        25.97631
289.41        25.85563
289.86        25.73643
290.32        25.66979
290.77        25.63272
291.22        25.65867
291.68        25.78468
292.13        26.01535
292.59        26.38576
293.04        26.87561
293.50        27.45122
293.95        28.09285
294.40        28.80928
294.86        29.65103
295.31        30.70186
295.77        31.98165
296.22        33.44762
296.68        35.01176
297.13        36.50859
297.58        37.85543
298.04        39.10539
298.49        40.26935
298.95        41.44308
299.40        42.65405
299.85        43.89391
300.31        45.25272
300.76         46.8242
301.21        48.62786
301.67         50.6559
302.12        52.72245
302.58         54.5615
303.03        56.08571
303.48        57.37355
303.94        58.67711
304.39        60.30199
304.84        62.33719
305.30        64.65633
305.75         66.9903
306.20         68.9626
306.66        70.49683
307.11        71.68741
307.57        72.73354
308.02        73.80187
308.47        75.01145
308.93        76.31052
309.38        77.67769
309.83        79.17619
310.29        80.78671
310.74        82.46638
311.19        84.10059
311.65        85.47861
312.10        86.51439
312.55        87.24863
313.00        87.76469
313.46        88.22318
313.91         88.6664
314.36        89.11404
314.82        89.56997
315.27        90.00331
315.72        90.43401
316.18         90.8856
316.63        91.42667
317.08         92.1712
317.53        93.11806
317.99         94.1992
318.44        95.26712
318.89        96.02322
319.35        96.39075
319.80        96.45394
320.25        96.37664
320.70         96.4522
321.16           96.75
321.61        97.20588
322.06        97.71473
322.51        98.10285
322.97        98.30601
323.42        98.41779
323.87        98.46244
324.32        98.48601
324.78        98.50607
325.23        98.53702
325.68        98.60636
326.13        98.78416
326.59        99.05541
327.04        99.45799
327.49        99.91582
327.94        100.3318
328.39        100.6665
328.85        100.8944
329.30        101.1037
329.75        101.3102
330.20        101.5303
330.66        101.7318
331.11        101.9385
331.56        102.0746
332.01         102.148
332.46        102.1932
332.92        102.2652
333.37        102.5695
333.82        103.1047
334.27        103.8248
334.72        104.6272
335.17        105.3371
335.63        105.8536
336.08        106.2544
336.53        106.5484
336.98        106.8173
337.43        107.0939
337.88        107.3636
338.34        107.5964
338.79        107.7723
339.24        107.8995
339.69        108.0307
340.14        108.2431
340.59        108.6455
341.05        109.2489
341.50        110.0035
341.95        110.8426
342.40        111.6761
342.85        112.4474
343.30        113.1591
343.75        113.7374
344.20        114.0762
344.66         114.197
345.11        114.1327
345.56         114.027
346.01        114.0985
346.46        114.4064
346.91        114.8864
347.36        115.4802
347.81        116.0819
348.26        116.6383
348.72        117.1822
349.17        117.6358
349.62         117.905
350.07        117.9805
350.52        117.8753
350.97         117.704
351.42        117.6684
351.87        117.7976
352.32        118.0148
352.77        118.2025
353.22        118.1665
353.67        117.8706
354.13        117.4409
354.58        116.8885
355.03        116.2988
355.48        115.7331
355.93        115.1823
356.38        114.7629
356.83        114.6598
357.28        114.8683
357.73         115.296
358.18        115.7337
358.63        115.8386
359.08        115.5138
359.53         114.858
359.98        113.9714
360.43        113.0342
360.88        112.1236
361.33         111.186
361.78        110.2941
362.23        109.5484
362.68        108.9577
363.13        108.5343
363.58        108.1115
364.03        107.4101
364.48        106.3923
364.93        105.1362
365.38        103.9109
365.83        103.1324
366.28        102.8712
366.73        102.9948
367.18        103.1806
367.63        102.9087
368.08        102.0588
368.53        100.7959
368.98        99.44467
369.43        98.49197
369.88        98.05095
370.33        97.97755
370.78        98.00359
371.23         97.6876
371.68        96.91866
372.13         95.8502
372.58        94.75033
373.03        94.01118
373.48        93.70673
373.93        93.68663
374.38        93.70642
374.83        93.38294
375.28        92.61926
375.72        91.53158
376.17        90.38244
376.62        89.40498
377.07        88.66537
377.52        88.08619
377.97        87.58881
378.42         87.0688
378.87        86.50269
379.32        85.93368
379.77        85.42386
380.22        85.03585
380.67        84.76631
381.11        84.60906
381.56        84.41841
382.01        84.03858
382.46        83.45577
382.91        82.72847
383.36        82.04573
383.81        81.67986
384.26        81.65842
384.71        81.88374
385.15        82.12128
385.60        82.02531
386.05        81.50921
386.50        80.69436
386.95         79.7909
387.40        79.11519
387.85        78.75047
388.29        78.56908
388.74        78.50317
389.19        78.27666
389.64        77.83743
390.09        77.27008
390.54        76.72007
390.98        76.33662
391.43        76.17925
391.88        76.29662
392.33        76.52438
392.78        76.20135
393.23        75.48164
393.67        75.38908
394.12        75.81045
394.57        75.39441
395.02        74.30151
395.47        73.88033
395.91        74.14161
396.36        74.07252
396.81        73.68632
397.26         73.5694
397.71        73.60725
398.15        73.48168
398.60        73.28422
399.05        72.67785
399.50        71.94439
399.95        72.34495
400.39        73.56562
400.84        73.36302
401.29         71.8978
401.74         71.4156
402.18        71.93369
402.63        71.86504
403.08        71.29257
403.53         70.7155
403.97        71.15624
404.42        71.33636
404.87        71.46046
405.32        71.44961
405.76        71.25781
406.21         71.0823
406.66        70.88718
407.11        70.36728
407.55        69.72377
408.00        69.52764
408.45        69.77511
408.90        70.10657
409.34        70.27866
409.79        69.89797
410.24        69.15844
410.68         68.8357
411.13        68.98949
411.58        69.15486
412.03        69.18834
412.47        69.09661
412.92        68.82384
413.37        68.39095
413.81        67.94711
414.26        67.78712
414.71         67.9171
415.15        68.29816
415.60        68.69833
416.05        68.79602
416.49        68.50826
416.94        67.96754
417.39        67.39749
417.83        67.11015
418.28        67.18627
418.73         67.5158
419.17         67.9694
419.62        68.27899
420.07        68.34771
420.51        68.21849
420.96        67.99615
421.41         67.7038
421.85        67.34724
422.30        67.16615
422.74        67.04682
423.19        66.56481
423.64        65.86221
424.08        65.84753
424.53        66.48764
424.98        66.78389
425.42        66.98621
425.87        67.38361
426.31        67.98029
426.76        68.05206
427.21        67.71568
427.65        67.77881
428.10        68.13642
428.54        68.18851
428.99        67.86562
429.44        67.43772
429.88        67.03423
430.33        67.28455
430.77        67.87122
431.22        67.86401
431.66        67.28336
432.11        66.88884
432.56        66.80484
433.00        67.01681
433.45        67.31939
433.89         67.8532
434.34        65.67786
434.78        67.23562
435.23        67.61655
435.67        66.30507
436.12         66.1896
436.57        66.28187
437.01        67.53873
437.46        68.05582
437.90        67.78026
438.35        67.43665
438.79        67.48145
439.24        67.27728
439.68        66.96551
440.13        66.93633
440.57        67.16396
441.02        66.94196
441.46        66.37682
441.91        66.85154
442.35        67.91087
442.80         67.6023
443.24         66.2487
443.69        66.32782
444.13         67.6526
444.58        68.05157
445.02         67.4355
445.47        66.99341
445.91        66.88338
446.36        66.88542
446.80        67.01148
447.24        67.34468
447.69        67.73862
448.13        67.88783
448.58        67.78282
449.02        67.62259
449.47        67.48556
449.91        67.32412
450.36        67.18916
450.80        67.10773
451.25        67.08386
451.69        67.05193
452.13        67.00785
452.58        66.98252
453.02        66.94516
453.47        66.87177
453.91        66.74787
454.36        66.57403
454.80        66.36926
455.24        66.24447
455.69        66.23849
456.13        66.20172
456.58         66.0716
457.02         66.2812
457.46        65.86555
457.91        65.65488
458.35        65.38962
458.79        65.36259
459.24        65.49638
459.68        65.27854
460.13        64.79584
460.57        64.57086
461.01        64.69173
461.46        64.36861
461.90        64.17182
462.34        64.37031
462.79        63.69745
463.23         63.4563
463.68        63.29921
464.12        63.38495
464.56        63.59841
465.01         63.7936
465.45        63.91898
465.89        63.83185
466.34        63.51299
466.78        63.80276
467.22        64.06234
467.67        62.98338
468.11        63.33694
468.55        63.19432
468.99        63.36208
469.44        63.33166
469.88        63.11071
470.32        62.90375
470.77        62.72378
471.21        62.58828
471.65        62.49058
472.10        62.41933
472.54        62.37447
472.98        62.33996
473.42        62.29337
473.87        62.38329
474.31        62.47362
474.75        62.09657
475.20        61.39206
475.64        61.16237
476.08        61.45118
476.52         61.3841
476.97        60.85361
477.41        61.54095
477.85        61.50691
478.29        61.43837
478.74        61.75165
479.18        62.30682
479.62        61.67588
480.06        61.60783
480.50        61.54551
480.95        61.66428
481.39        61.96209
481.83        61.06242
482.27        61.00566
482.72        61.39488
483.16        60.80195
483.60        60.78014
484.04        61.06074
484.48        60.95099
484.93        60.49041
485.37        61.65247
485.81        62.89932
486.25        61.91322
486.69        64.79564
487.14        64.76024
487.58         61.3796
488.02        61.23929
488.46        61.94706
488.90        60.58082
489.34        60.85617
489.79        61.17305
490.23         61.0598
490.67        61.22753
491.11        61.17038
491.55        61.03486
491.99         60.8213
492.43        60.65309
492.88        60.57194
493.32        60.59348
493.76        60.68285
494.20        60.71993
494.64        60.67107
495.08        60.69987
495.52        60.80949
495.96        60.63396
496.41        60.29752
496.85        60.63922
497.29        61.43932
497.73        61.37942
498.17        60.54622
498.61        60.31856
499.05        60.70558
499.49        60.57724
499.93        59.99001
500.37        59.92418
500.82        60.34241
501.26        60.37647
501.70        59.93799
502.14        60.36426
502.58        59.94913
503.02        60.04861
503.46        60.14877
503.90        60.29646
504.34        60.42406
504.78        60.44014
505.22        60.30593
505.66        60.13465
506.10        60.00176
506.54        59.74295
506.98        59.32196
507.42        60.10412
507.86        59.25627
508.30        59.87693
508.74        59.44828
509.18        59.42096
509.62        59.33175
510.06        59.34216
510.50         59.4802
510.94        59.69216
511.38        59.91044
511.82        59.97755
512.26        59.86461
512.70        59.62411
513.14        59.33849
513.58        59.13806
514.02        59.05769
514.46        59.05297
514.90        59.09267
515.34        59.12235
515.78        59.12447
516.22        59.13519
516.66        59.13256
517.10        59.07604
517.54        58.96975
517.98        58.81486
518.42        58.69905
518.86        58.76856
519.30        59.03585
519.74         59.4452
520.18        59.85238
520.62        60.02124
521.06         59.8969
521.50        59.55755
521.93        59.12532
522.37        58.81214
522.81        58.67578
523.25         58.6549
523.69        58.70485
524.13        58.75007
524.57        58.76529
525.01        58.79356
525.45        58.81783
525.89        58.80326
526.32        58.74509
526.76         58.6423
527.20        58.56224
527.64        58.62581
528.08        58.84366
528.52        59.17606
528.96        59.49356
529.40        59.58972
529.83        59.41758
530.27        59.05949
530.71        58.65698
531.15        58.43791
531.59        58.45677
532.03        58.64833
532.46        58.89521
532.90        59.00762
533.34        58.94294
533.78        58.77884
534.22        58.60169
534.66        58.53346
535.09        58.59007
535.53        58.72192
535.97        58.88837
536.41        58.98867
536.85         58.9859
537.28        59.06808
537.72         59.1824
538.16        58.87455
538.60         58.3354
539.04        58.39003
539.47        58.92967
539.91        59.11808
540.35         58.9104
540.79        58.79788
541.22        58.78592
541.66          58.746
542.10        58.70116
542.54        58.53136
542.97        58.27335
543.41          58.609
543.85        58.80236
544.29        58.90019
544.72        58.71233
545.16        58.66383
545.60        58.74501
546.04        58.73638
546.47        58.64246
546.91        58.57149
547.35        58.53447
547.79         58.5218
548.22        58.53299
548.66        58.57769
549.10        58.65992
549.53        58.85365
549.97        59.13605
550.41        59.25311
550.84        59.17871
551.28        59.04274
551.72        58.89203
552.15        58.61809
552.59        58.51227
553.03        58.37772
553.46        58.25729
553.90        58.23972
554.34        58.29456
554.77        58.29762
555.21        58.27277
555.65        58.42836
556.08        58.69508
556.52        58.76931
556.96        58.65419
557.39        58.62885
557.83        58.71907
558.27        58.69585
558.70         58.5753
559.14        58.59322
559.57        58.68848
560.01        58.60789
560.45        58.39747
560.88        58.29512
561.32        58.33395
561.75        58.44711
562.19        58.61908
562.63        58.51762
563.06        58.22796
563.50         58.5185
563.93        59.19374
564.37        59.05228
564.80        58.24722
565.24        58.12541
565.68         58.6105
566.11        58.74231
566.55        58.52532
566.98        58.38026
567.42        58.36385
567.85        58.64851
568.29        58.77747
568.72        58.82094
569.16        58.79469
569.60         58.8564
570.03        58.95148
570.47          59.313
570.90        59.97832
571.34          59.043
571.77         60.2459
572.21        59.72081
572.64        60.13322
573.08        59.34781
573.51        59.80304
573.95        59.76502
574.38        59.98803
574.82        59.56412
575.25        60.55028
575.69        60.98271
576.12        60.49223
576.56        59.41175
576.99        59.67972
577.42        60.70322
577.86        60.10325
578.29        60.61436
578.73        60.66402
579.16        60.71986
579.60        60.45312
580.03        60.34963
580.47        60.41466
580.90        60.23245
581.33        59.47694
581.77        60.31287
582.20        61.89082
582.64        61.47217
583.07        61.42443
583.51        60.50254
583.94        59.83984
584.37        59.50537
584.81        59.53482
585.24        59.65288
585.68        60.60255
586.11        60.24081
586.54        60.73721
586.98        59.82457
587.41        59.10805
587.85         59.9431
588.28        60.49924
588.71         60.0001
589.15        59.58322
589.58        59.93259
590.01        59.21772
590.45        58.90867
590.88        59.34698
591.31        59.52996
591.75        59.60474
592.18        59.35543
592.61         59.0621
593.05        59.22672
593.48        60.44569
593.91        60.75484
594.35        60.20926
594.78        59.74884
595.21        59.54779
595.65         59.4646
596.08        59.38991
596.51        60.14004
596.94        59.62067
597.38        59.64935
597.81        59.59011
598.24        59.56555
598.68        59.81163
599.11        58.64936
599.54        60.32862
599.97        59.80086
600.41        59.73671
600.84        59.54277
601.27        59.64026
601.70        59.51795
602.14        59.20737
602.57        59.30901
603.00        59.70695
603.43        59.91163
603.87        59.55082
604.30        59.55643
604.73        59.59029
605.16        59.25703
605.60        58.94356
606.03        58.97532
606.46        59.39168
606.89        59.14783
607.32         59.4426
607.76        58.83862
608.19        59.29647
608.62        59.27928
609.05         59.1655
609.48        59.06401
609.92        59.27505
610.35        58.45969
610.78        59.79574
611.21        60.51121
611.64         59.8235
612.07        59.70228
612.50        59.75755
612.94         59.5715
613.37        59.11065
613.80        59.54386
614.23        59.10312
614.66        59.18476
615.09        59.25288
615.52        59.31615
615.96        59.34014
616.39        59.37733
616.82         59.4515
617.25        59.27477
617.68        59.49356
618.11        59.13662
618.54        58.58041
618.97         58.3984
619.40        58.61858
619.84        58.83503
620.27        58.97166
620.70        59.17599
621.13        59.38463
621.56        59.11171
621.99        58.63616
622.42        58.64087
622.85        59.15265
623.28        58.96277
623.71        58.69322
624.14          58.805
624.57        58.23172
625.00        58.22492
625.43        58.30402
625.86        58.40623
626.29        58.38937
626.72        58.76538
627.15        58.67101
627.58        58.67419
628.01        58.47537
628.44        58.61607
628.87        58.71002
629.30        58.17005
629.73        58.13009
630.16        58.53482
630.59        58.10236
631.02        58.16362
631.45         58.2524
631.88        58.30911
632.31        58.27737
632.74        58.53664
633.17        58.58967
633.60        58.43146
634.03        58.47469
634.46        58.29883
634.89         58.1033
635.32        57.93517
635.75        57.82689
636.18        57.75661
636.61        57.72062
637.04        57.73205
637.47        57.78708
637.89        57.85889
638.32        57.90514
638.75        57.97115
639.18        58.04731
639.61        57.84324
640.04        57.81026
640.47        57.67545
640.90         57.5868
641.33        57.50325
641.76        57.44813
642.18        57.47286
642.61        57.55683
643.04        57.69243
643.47         57.8481
643.90        57.96946
644.33        58.03362
644.76        58.06048
645.18        58.06099
645.61        57.97878
646.04        57.81921
646.47        57.73288
646.90        57.79844
647.33         57.4571
647.75        57.80761
648.18        57.92988
648.61        58.12688
649.04         58.3323
649.47        58.51867
649.89        58.71608
650.32        58.82916
650.75        58.70653
651.18        58.42627
651.61        58.19986
652.03         58.1149
652.46         58.2685
652.89        58.51175
653.32        58.44148
653.74        58.29894
654.17        57.97635
654.60          57.675
655.03        58.68031
655.46        58.06997
655.88        58.03822
656.31        61.72482
656.74        69.15769
657.16        65.27408
657.59         60.8989
658.02        59.96547
658.45         59.7485
658.87        59.64878
659.30        58.55233
659.73        58.26981
660.15         58.6235
660.58        57.99087
661.01        57.98664
661.44        57.88304
661.86        57.77674
662.29        57.63351
662.72        57.67068
663.14        57.87527
663.57        57.82584
664.00        57.59589
664.42        57.66521
664.85        57.99193
665.27        58.05233
665.70        57.84796
666.13        57.78722
666.55        57.88474
666.98         57.9021
667.41         57.8538
667.83        57.85407
668.26          57.903
668.69        57.99281
669.11        58.06061
669.54        57.99858
669.96        57.79799
670.39        57.50008
670.82        57.25498
671.24        57.25409
671.67        57.52531
672.09         58.0756
672.52        58.73345
672.94        58.79657
673.37        58.87864
673.80        58.49084
674.22        58.02578
674.65        57.78703
675.07        57.86585
675.50        58.13806
675.92        58.47559
676.35        58.65072
676.77        58.60774
677.20        58.43654
677.62        58.23299
678.05        58.11863
678.47        58.12404
678.90        58.30666
679.32        58.41975
679.75        58.59531
680.17        58.75548
680.60        58.84129
681.02        58.82298
681.45        59.02349
681.87        58.83093
682.30        58.73805
682.72        58.59999
683.15        58.48794
683.57         58.4279
684.00        58.41674
684.42        58.43639
684.85        58.45669
685.27        58.46632
685.70         58.4006
686.12        58.28451
686.54        58.39487
686.97        58.65782
687.39        58.57176
687.82        58.36323
688.24        58.19123
688.66        58.14492
689.09        58.00761
689.51        57.83496
689.94        57.84968
690.36        58.06495
690.78        58.36408
691.21         58.6106
691.63        59.16936
692.06        58.48202
692.48         59.1185
692.90        59.11277
693.33        59.26411
693.75        59.12698
694.17        58.88455
694.60        58.62929
695.02        58.87174
695.44        58.80793
695.87         59.2083
696.29        59.66323
696.71        59.56315
697.14        58.99997
697.56        58.76591
697.98        58.91504
698.41        58.92168
698.83        58.77853
699.25        58.84974
699.68        59.06013
700.10        59.16817
700.52        59.11957
700.94        58.99141
701.37        58.84377
701.79        58.79414
702.21        58.85643
702.64         58.9882
703.06        59.12348
703.48        59.16662
703.90        59.10295
704.33         58.9758
704.75           58.84
705.17        58.76907
705.59        58.78431
706.01        58.84842
706.44        58.96751
706.86        59.14882
707.28        59.35344
707.70        59.65985
708.12        59.97113
708.55        59.93379
708.97        59.61492
709.39        59.51025
709.81        59.64494
710.23        59.65837
710.66        59.55488
711.08         59.5951
711.50        59.74629
711.92        59.84508
712.34        59.87366
712.76        59.87171
713.19        59.84883
713.61        59.87521
714.03        59.93472
714.45        59.99722
714.87        60.02843
715.29        59.98207
715.71         59.8489
716.13        59.65432
716.56        59.41553
716.98        59.21008
717.40        59.04942
717.82        58.95943
718.24        58.96191
718.66        58.93895
719.08         59.1164
719.50        59.28455
719.92        59.48403
720.34        59.66059
720.76        59.79773
721.19        59.89235
721.61        59.92737
722.03        59.88737
722.45        59.80494
722.87        59.54949
723.29        59.19919
723.71        59.27857
724.13        59.81715
724.55        59.38514
724.97        59.78247
725.39        59.71184
725.81        59.70757
726.23        59.65193
726.65        59.48822
727.07        59.50223
727.49        59.66196
727.91        59.92982
728.33        60.23578
728.75        60.46688
729.17        60.58438
729.59        60.61979
730.01        60.61032
730.43        60.61486
730.85        60.65263
731.27        60.69976
731.69        60.74297
732.10        60.77077
732.52        60.77408
732.94        60.76332
733.36        60.73748
733.78         60.6853
734.20        60.62101
734.62        60.57108
735.04        60.53699
735.46        60.52363
735.88        60.51824
736.30        60.47931
736.72        60.46865
737.13        60.55558
737.55        60.65822
737.97        60.96841
738.39         61.3248
738.81        60.81234
739.23        59.75239
739.65        59.92538
740.06        61.09709
740.48        61.42783
740.90        60.82205
741.32        60.33206
741.74        60.12748
742.16        59.99048
742.57        59.98357
742.99        60.14487
743.41        60.41248
743.83        60.66755
744.25        60.86524
744.67        61.01599
745.08        61.12789
745.50        61.18354
745.92        61.19921
746.34        61.16037
746.75        61.07885
747.17        61.00157
747.59        60.93647
748.01        60.86492
748.42        60.79541
748.84        60.74933
749.26        60.69567
749.68        60.62719
750.09         60.5675
750.51        60.41597
750.93        60.30791
751.35        60.74926
751.76        61.57772
752.18        61.93256
752.60        61.72751
753.01        61.40448
753.43        61.11519
753.85        60.95189
754.27        60.97079
754.68        61.11729
755.10        61.32619
755.52        61.49623
755.93        61.61681
756.35         61.7586
756.77        61.84365
757.18        61.89082
757.60        61.94281
758.02        61.56636
758.43        61.00543
758.85        61.84002
759.26          63.139
759.68        63.50648
760.10        62.73188
760.51        62.22389
760.93        62.15963
761.34        62.28216
761.76        62.48454
762.18        62.17163
762.59        61.51614
763.01        61.46373
763.42        62.20689
763.84         62.3876
764.26        62.04331
764.67         61.7976
765.09        61.76589
765.50        61.83395
765.92        61.95549
766.33         61.8372
766.75        61.50949
767.16        61.46678
767.58        61.72913
768.00        62.15381
768.41        62.63633
768.83        62.95167
769.24        63.02072
769.66        62.87544
770.07        62.58119
770.49        62.29144
770.90        62.07699
771.32        62.06206
771.73        62.21744
772.15        62.30555
772.56        62.32074
772.97        62.38029
773.39        62.46991
773.80        62.57388
774.22        62.65095
774.63        62.73733
775.05        62.77592
775.46         62.7332
775.88        62.59187
776.29        62.38431
776.70        62.18113
777.12        62.10676
777.53        62.20962
777.95        62.44213
778.36        62.71882
778.77        62.86366
779.19         62.8392
779.60        62.70138
780.02        62.54616
780.43        62.53283
780.84        62.70119
781.26        62.96662
781.67        63.28344
782.09        63.51506
782.50        63.61847
782.91        63.62972
783.33        63.54961
783.74        63.45499
784.15        63.33772
784.57        63.18498
784.98        63.03946
785.39        62.96854
785.81        62.98911
786.22        63.09817
786.63        63.22866
787.04        63.26238
787.46        63.19417
787.87        63.02747
788.28        62.87991
788.70        62.90879
789.11         63.1172
789.52        63.49263
789.93        63.90181
790.35        64.03908
790.76        63.91426
791.17        63.77199
791.58        63.69061
792.00        63.64267
792.41        63.68495
792.82        63.80354
793.23        64.00617
793.65        64.35203
794.06        64.77749
794.47        65.03157
794.88        65.01879
795.29        64.86729
795.71        64.54539
796.12         63.9324
796.53        63.23499
796.94        63.02795
797.35        63.37899
797.76        63.92593
798.18        64.41864
798.59        64.71829
799.00        64.69836
799.41         64.3271
799.82        63.81318
800.23        63.56506
800.64        63.67286
801.06        63.97759
801.47        64.37756
801.88        64.59209
802.29        64.52785
802.70        64.27266
803.11        63.94051
803.52        63.69956
803.93        63.61684
804.34        63.65507
804.75        63.74409
805.17        63.79924
805.58        63.82102
805.99        63.71689
806.40        63.59849
806.81        63.88137
807.22        64.45304
807.63        64.71946
808.04        64.63555
808.45        64.58953
808.86        64.58156
809.27        64.33955
809.68        63.95468
810.09        63.74364
810.50        63.76682
810.91        63.94262
811.32        64.18524
811.73        64.34655
812.14        64.37437
812.55        64.31244
812.96        64.21316
813.37        64.16043
813.78        64.18607
814.19        64.26755
814.60        64.35311
815.01        64.37187
815.42        64.30977
815.83        64.17945
816.24        64.06314
816.65        64.10813
817.05        64.34686
817.46        64.69853
817.87        65.03374
818.28        65.11424
818.69        64.89523
819.10        64.43845
819.51        63.91724
819.92        63.65522
820.33        63.74345
820.74        64.07229
821.14        64.46365
821.55        64.65984
821.96        64.58485
822.37        64.34516
822.78         64.0189
823.19        63.74208
823.60        63.58833
824.00        63.52248
824.41        63.56836
824.82        63.84309
825.23        64.33421
825.64        65.00124
826.04        65.69817
826.45        66.07806
826.86        66.08079
827.27        65.79243
827.68        65.33776
828.08        64.96461
828.49        64.72839
828.90        64.58633
829.31        64.57217
829.72        64.73137
830.12        65.07648
830.53        65.56155
830.94        66.04999
831.35        66.24415
831.75        66.08363
832.16        65.58801
832.57        64.99141
832.97        64.65843
833.38        64.68355
833.79        64.96593
834.20        65.32018
834.60        65.44367
835.01        65.28345
835.42        64.94733
835.82        64.60012
836.23        64.45686
836.64        64.59631
837.04        64.96011
837.45        65.39533
837.86        65.75639
838.26        65.98237
838.67        66.07387
839.08        66.06423
839.48        65.98822
839.89        65.86035
840.29        65.63657
840.70        65.36796
841.11          65.077
841.51        64.80186
841.92        64.58112
842.33        64.37919
842.73        64.13192
843.14        63.81069
843.54          63.449
843.95        63.24636
844.35         63.5545
844.76        64.36176
845.17          65.553
845.57        66.75455
845.98        67.18202
846.38        66.69703
846.79        65.56145
847.19        64.17317
847.60        63.17355
848.00        62.74621
848.41        62.68156
848.81        62.96667
849.22        63.47305
849.62        64.14833
850.03        64.99155
850.43        65.77742
850.84        65.99525
851.24        65.58838
851.65        64.65142
852.05        63.56939
852.46        63.01218
852.86        63.11586
853.27        63.67983
853.67        64.39192
854.07        64.99789
854.48        65.36252
854.88        65.64945
855.29        65.70238
855.69        65.44347
856.10        64.80851
856.50         63.9039
856.90        62.99554
857.31        62.51121
857.71        62.57232
858.12        63.04897
858.52        63.79716
858.92        64.34073
859.33        64.49823
859.73        64.41725
860.13         64.2048
860.54         64.0743
860.94        64.11887
861.34        64.22214
861.75        64.29876
862.15        64.32025
862.55         64.2221
862.96        64.05691
863.36        63.82008
863.76        63.50111
864.17        63.11604
864.57        62.71674
864.97        62.33814
865.38        62.01661
865.78         61.8094
866.18        61.68174
866.58        61.68417
866.99        61.89494
867.39        62.30752
867.79        62.84288
868.19        63.33132
868.60        63.50253
869.00        63.31248
869.40        62.85345
869.80        62.25542
870.21        61.76768
870.61        61.52668
871.01           61.45
871.41         61.5387
871.81        61.78284
872.22        62.13645
872.62        62.65572
873.02        63.23436
873.42        63.64702
873.82        63.81314
874.22        63.76153
874.63        63.64533
875.03          63.693
875.43        63.95713
875.83        64.34642
876.23        64.73048
876.63        64.88046
877.03        64.75195
877.44        64.48062
877.84        64.11027
878.24        63.73235
878.64        63.39384
879.04        63.01941
879.44        62.77219
879.84        62.89608
880.24        63.38188
880.64        64.18656
881.04        64.87328
881.44        64.66886
881.84        63.46966
882.24        61.60147
882.65        59.77606
883.05        58.91335
883.45        59.22976
883.85        60.45229
884.25        62.10747
884.65        63.30196
885.05        63.70184
885.45        63.55355
885.85        63.14981
886.25        62.95305
886.65        63.09653
887.05        63.38636
887.45        63.70169
887.85         63.8821
888.25        63.86583
888.65        63.75072
889.04        63.55766
889.44        63.32119
889.84        63.06136
890.24        62.78504
890.64        62.54697
891.04        62.44958
891.44        62.51204
891.84        62.69707
892.24         62.9754
892.64        63.28592
893.04        63.61335
893.44        64.00346
893.83        64.40204
894.23        64.64201
894.63        64.71729
895.03        64.59196
895.43        64.49322
895.83        64.79448
896.23        65.53196
896.63        66.61159
897.02        67.54903
897.42        67.55952
897.82        66.54455
898.22        64.79144
898.62        63.00229
899.01        62.15765
899.41        62.46612
899.81        63.68358
900.21        65.19639
900.61        65.83616
901.00        65.26208
901.40        63.91965
901.80        62.53569
902.20        62.10487
902.59        62.83836
902.99        64.39775
903.39        66.24072
903.79        67.23024
904.18        66.96938
904.58        65.88578
904.98        64.59789
905.38        63.94317
905.77        64.08855
906.17        64.75205
906.57        65.62682
906.96        66.25655
907.36        66.42494
907.76          66.314
908.15        66.02286
908.55        65.62219
908.95        65.21712
909.34        64.76787
909.74        64.35441
910.14        64.07555
910.53        63.95292
910.93        64.00211
911.33          64.192
911.72        64.46117
912.12        64.76429
912.52        65.08591
912.91        65.40428
913.31        65.66827
913.70        65.87901
914.10        65.98446
914.49        65.99339
914.89        65.86044
915.29        65.62635
915.68        65.34206
916.08        65.06837
916.47        64.83917
916.87        64.70289
917.26        64.59213
917.66        64.61138
918.05        64.90766
918.45        65.44894
918.84        66.25351
919.24        66.93541
919.64         66.9234
920.03        66.11922
920.42        64.71848
920.82        63.33439
921.21        62.70205
921.61        62.95864
922.00        63.94057
922.40        65.15883
922.79        65.80742
923.19        65.59767
923.58        64.80521
923.98        63.91661
924.37        63.61294
924.77        64.05113
925.16        65.02301
925.55        66.15201
925.95        66.76364
926.34        66.66723
926.74        66.04754
927.13        65.21683
927.52        64.63171
927.92        64.42041
928.31        64.43993
928.70        64.51812
929.10        64.36179
929.49        63.93434
929.89        63.38685
930.28        62.91477
930.67        62.76975
931.07        62.99989
931.46        63.48915
931.85        64.16525
932.24        64.94527
932.64        65.72126
933.03        66.56554
933.42        67.22511
933.82        67.31747
934.21        66.82875
934.60        65.86427
934.99        64.86329
935.39        64.47847
935.78        64.83261
936.17        65.72295
936.56        66.78056
936.96        67.35761
937.35        67.30237
937.74        66.82017
938.13        66.05228
938.53        65.22794
938.92        64.46649
939.31        63.74397
939.70        63.26888
940.09           63.38
940.49        64.04731
940.88        65.18236
941.27        66.44985
941.66        67.23271
942.05        67.29185
942.44        66.79451
942.84        65.80199
943.23        64.46794
943.62        63.02212
944.01        61.53849
944.40        60.39039
944.79        60.02603
945.18        60.47205
945.57        61.65841
945.97        63.14548
946.36        64.26752
946.75        64.60508
947.14        64.30583
947.53        63.77679
947.92        63.73065
948.31        64.33904
948.70         65.3321
949.09        66.38371
949.48        66.96661
949.87        66.92146
950.26        66.47579
950.65        65.79262
951.04        65.11456
951.43        64.56982
951.82        64.08224
952.21        63.75282
952.60        63.73542
952.99        64.02057
953.38        64.58283
953.77        65.16936
954.16        65.32897
954.55        64.94273
954.94        64.11076
955.33        63.13635
955.72        62.53473
956.11        62.45439
956.50        62.78019
956.89        63.24328
957.28        63.38907
957.66        63.11593
958.05        62.56018
958.44        62.02175
958.83        61.96553
959.22         62.4862
959.61        63.40194
960.00        64.39293
960.39        64.91656
960.78        64.80159
961.16        64.22162
961.55        63.40575
961.94        62.70064
962.33        62.23917
962.72        61.92279
963.11        61.75263
963.49        61.75122
963.88        61.85831
964.27        62.12302
964.66        62.44286
965.04        62.63774
965.43        62.61633
965.82        62.44051
966.21        62.23717
966.60        62.23921
966.98        62.51506
967.37         62.9618
967.76        63.46593
968.15        63.83077
968.53        63.99768
968.92        63.96959
969.31        63.82994
969.69        63.70527
970.08        63.61629
970.47        63.56343
970.86        63.48026
971.24        63.25461
971.63        62.89375
972.02        62.50718
972.40        62.28628
972.79        62.49608
973.17        63.23647
973.56        64.28851
973.95        65.55077
974.33        66.91107
974.72        68.20551
975.11        69.47553
975.49          70.533
975.88        70.88806
976.26        70.44755
976.65         69.2989
977.04        67.80453
977.42        66.42638
977.81        65.33274
978.19        64.41196
978.58        63.67755
978.96        62.93821
979.35        62.17687
979.74        61.43076
980.12        60.81001
980.51         60.3581
980.89        60.18748
981.28        60.31821
981.66        60.62685
982.05        60.84084
982.43        60.91592
982.82        60.82504
983.20        61.01234
983.59        62.20433
983.97        64.56728
984.35        67.91796
984.74        71.14423
985.12        72.43427
985.51        71.12952
985.89        67.93901
986.28        64.32883
986.66        62.02828
987.04        61.51067
987.43        62.20283
987.81        63.57308
988.20        64.44579
988.58        64.42455
988.96        63.94891
989.35        63.08686
989.73        62.02895
990.12         60.9105
990.50        59.62341
990.88        58.60447
991.27        58.56016
991.65        59.59682
992.03        61.64582
992.42        63.93235
992.80        65.08247
993.18        64.39728
993.56        62.45626
993.95        60.32953
994.33        58.96539
994.71        58.67651
995.10        59.06215
995.48        59.98013
995.86        60.75542
996.24        61.07562
996.63        61.23629
997.01        61.41827
997.39        61.81976
997.77        62.51166
998.15        63.27604
998.54        64.19057
998.92        65.47178
999.30        67.06472
999.68        68.93951
1000.06        70.39798
1000.45        70.18375
1000.83        68.28746
1001.21        65.16927
1001.59        62.00529
1001.97        60.33453
1002.35        60.43956
1002.73        61.92736
1003.12         64.1432
1003.50        65.90377
1003.88        66.66469
1004.26        66.77862
1004.64         66.5507
1005.02        66.50789
1005.40         66.7953
1005.78        67.06321
1006.16        67.29642
1006.54        67.55618
1006.92        67.79147
1007.30        68.10265
1007.69        68.03627
1008.07        66.84455
1008.45        64.61388
1008.83        61.87908
1009.21        59.53864
1009.59        58.46669
1009.97        58.69174
1010.35        60.03372
1010.73        61.94668
1011.11        63.08342
1011.49        62.79839
1011.86        61.28936
1012.24        59.55901
1012.62        59.09799
1013.00        60.34754
1013.38        63.13764
1013.76          66.513
1014.14        67.83685
1014.52        66.37046
1014.90        63.59563
1015.28        61.16866
1015.66        60.59036
1016.04        61.99112
1016.41        65.07735
1016.79        69.44955
1017.17         74.3679
1017.55        78.69718
1017.93        82.45947
1018.31        83.90884
1018.69        80.67509
1019.06        73.58163
1019.44        65.13079
1019.82        58.12012
1020.20        54.61818
1020.58        54.28565
1020.95          56.494
1021.33        60.30564
1021.71        63.16103
1022.09        63.66487
1022.46        62.18653
1022.84        60.32927
1023.22        60.13168
1023.60        62.18622
1023.97        66.53638
1024.35        71.36604
1024.73        71.44416
