SpectraSmart Spectrum 2.9.0.0
--------- Device Information -----------
Spectrum Name :  反射率_0
Saving Time :  2024/05/03 19:59:11
Spectro-Module Model Name : SE2030-DUVN
Spectro-Module Serial Number : OS361AC55029948
Wavelength Start : 200
Wavelength End : 1025
Wavelength Unit : Wavelength(nm)
Spectrum Unit : Reflectance(%)
-----------Spectrum Setting ------------
Integration Time : 20ms
Average : 10
Boxcar : 0
Background removal :  enabled
linearity correction :  enabled
SC :  disabled
Intensity correction :  disabled
DWT denoise :  enabled
savitzky-golay :  disabled
FFT :  disabled
Running average :  disabled
Kalman :  disabled
High pass :  disabled
---------------BEGIN--------------------
Wavelength(nm)             Reflectance(%)
200.29               0
200.75       -24.55945
201.21       -29.79348
201.67        688.9064
202.13        27.33455
202.58        23.07403
203.04        27.52452
203.50        33.31251
203.96        37.78122
204.42        41.90706
204.88        50.73343
205.34       -302.7558
205.80       -21.96035
206.26       -78.39007
206.72       -39735.95
207.18        210.0084
207.64        152.8704
208.10        140.0213
208.55        147.3748
209.01        194.4682
209.47       -86.83636
209.93        16.62399
210.39        38.22638
210.85        47.33148
211.31        53.31523
211.77        60.06488
212.23        75.09815
212.69        107.7734
213.14         108.394
213.60        44.92801
214.06        13.58858
214.52         3.27999
214.98       0.5782931
215.44        1.776351
215.90        13.37113
216.36       -181.8359
216.81       -52.58559
217.27       -63.84353
217.73        -119.378
218.19       -443.2806
218.65       -8913.389
219.11       -643.5366
219.57       -167.2025
220.02        -92.3342
220.48        -155.744
220.94        189.3647
221.40        63.71294
221.86        45.49196
222.32        40.55695
222.77        39.82526
223.23        42.09373
223.69        46.28909
224.15        46.39947
224.61        40.40451
225.06        33.45634
225.52        29.71363
225.98        30.37824
226.44        34.96034
226.90        43.23609
227.36        54.09308
227.81        61.50754
228.27        61.25694
228.73        56.26606
229.19        49.83636
229.65        44.54093
230.10        40.69975
230.56        37.95562
231.02        36.11359
231.48        35.20675
231.93         35.0383
232.39        35.53378
232.85        36.46241
233.31        37.54704
233.77        38.66547
234.22        39.77709
234.68        40.87799
235.14        41.94866
235.60        42.98685
236.05        44.11692
236.51        45.03141
236.97        45.30354
237.43        44.91284
237.88        44.22306
238.34        44.02212
238.80        45.34074
239.26        48.88695
239.71        57.68859
240.17        71.25668
240.63        89.16389
241.08        101.4882
241.54        101.3425
242.00        94.23908
242.46        91.24172
242.91        95.43443
243.37        106.2613
243.83         124.863
244.28        137.3731
244.74        119.4123
245.20        81.70673
245.66        47.40001
246.11        29.05173
246.57        24.32946
247.03        27.53327
247.48        33.70149
247.94        38.34632
248.40        40.96839
248.85        42.61528
249.31         44.5421
249.77        47.61076
250.22        51.16615
250.68        54.36309
251.14        57.03643
251.59        60.03234
252.05        64.24188
252.51        70.37835
252.96        79.70747
253.42          90.551
253.88        97.96981
254.33        99.94273
254.79        96.58796
255.25        89.03429
255.70        80.69814
256.16        74.14549
256.62         69.7924
257.07        67.82333
257.53        67.76792
257.99         68.2886
258.44         68.3904
258.90        67.64975
259.35        65.74289
259.81        63.67755
260.27        61.47995
260.72        59.21392
261.18        57.36283
261.63        55.64205
262.09        54.36029
262.55        53.44036
263.00        52.70344
263.46        52.13816
263.91        51.55759
264.37         51.0148
264.83        50.41778
265.28        49.74363
265.74         48.9496
266.19        47.72226
266.65         46.1913
267.11        44.41779
267.56        42.66429
268.02        41.37999
268.47        40.57511
268.93        40.14407
269.38        39.83238
269.84         39.2165
270.30          38.248
270.75         37.0963
271.21        36.05688
271.66        35.44691
272.12        35.30925
272.57        35.43567
273.03        35.63358
273.48        35.63638
273.94        35.35396
274.39        34.87609
274.85        34.19598
275.31        33.20772
275.76        31.97162
276.22        30.62645
276.67        29.40707
277.13        28.72801
277.58        28.54734
278.04        28.74403
278.49        28.99768
278.95        28.85802
279.40         28.2099
279.86        27.31137
280.31        26.33773
280.77        25.61491
281.22        25.13458
281.68        24.82669
282.13        24.60101
282.59        24.40328
283.04        24.19049
283.50        24.01332
283.95         23.8539
284.41        23.70122
284.86        23.54391
285.32        23.40854
285.77         23.2918
286.22        23.25316
286.68        23.30343
287.13        23.38554
287.59        23.50908
288.04        23.64303
288.50        23.79138
288.95        23.93974
289.41        24.05611
289.86        24.04285
290.32        23.92674
290.77        23.74194
291.22        23.60772
291.68        23.68389
292.13         24.0034
292.59        24.55798
293.04        25.27539
293.50        26.03682
293.95        26.78922
294.40        27.56161
294.86        28.42784
295.31        29.50765
295.77        30.83302
296.22        32.35359
296.68        33.95886
297.13        35.45024
297.58        36.74519
298.04        37.91426
298.49        39.02383
298.95        40.24432
299.40        41.61556
299.85        43.10699
300.31        44.73619
300.76        46.48669
301.21          48.351
301.67        50.34311
302.12        52.35608
302.58        54.24834
303.03        55.94927
303.48         57.4929
303.94        59.02871
304.39        60.71308
304.84        62.62456
305.30        64.70622
305.75        66.80339
306.20        68.71524
306.66         70.3978
307.11        71.86687
307.57        73.24206
308.02        74.57602
308.47        75.94554
308.93        77.33257
309.38        78.70466
309.83         80.1078
310.29        81.53773
310.74        82.96281
311.19        84.33154
311.65        85.53906
312.10        86.52679
312.55        87.31055
313.00        87.92883
313.46        88.46468
313.91         88.9335
314.36        89.37378
314.82        89.79619
315.27        90.18208
315.72        90.55807
316.18        90.94044
316.63        91.40421
317.08        92.07747
317.53        92.96596
317.99        94.00723
318.44        95.05556
318.89        95.80954
319.35        96.19331
319.80         96.2923
320.25        96.27177
320.70        96.42922
321.16        96.82677
321.61        97.38435
322.06        97.98582
322.51        98.44197
322.97        98.68084
323.42        98.80555
323.87         98.8224
324.32        98.74918
324.78        98.61233
325.23         98.4444
325.68        98.34129
326.13        98.48382
326.59        98.88068
327.04        99.53687
327.49        100.3044
327.94        100.9586
328.39        101.4186
328.85         101.694
329.30        101.9022
329.75         102.115
330.20        102.3728
330.66        102.6143
331.11        102.8849
331.56        103.1491
332.01        103.4127
332.46        103.7035
332.92        104.0055
333.37        104.3999
333.82        104.8576
334.27         105.369
334.72         105.917
335.17        106.4777
335.63        106.9991
336.08        107.5197
336.53        107.9943
336.98         108.412
337.43        108.7677
337.88         109.069
338.34        109.2973
338.79        109.4509
339.24        109.5462
339.69        109.6286
340.14        109.7731
340.59        110.0877
341.05        110.5979
341.50         111.279
341.95        112.0907
342.40        112.9786
342.85        113.8929
343.30        114.8134
343.75         115.662
344.20        116.3261
344.66        116.7976
345.11        117.0859
345.56        117.2635
346.01        117.4477
346.46        117.6868
346.91        117.9574
347.36        118.2781
347.81        118.6684
348.26        119.1173
348.72        119.6285
349.17        120.1097
349.62        120.4361
350.07        120.5801
350.52        120.5704
350.97        120.4893
351.42        120.4822
351.87        120.5735
352.32        120.6998
352.77         120.794
353.22        120.7505
353.67         120.546
354.13        120.2652
354.58        119.8774
355.03        119.4041
355.48        118.8852
355.93        118.3408
356.38        117.8721
356.83        117.6394
357.28        117.6499
357.73        117.8198
358.18        118.0249
358.63        118.0603
359.08        117.8531
359.53        117.4624
359.98        116.8744
360.43        116.0848
360.88        115.1283
361.33        114.0052
361.78         112.886
362.23        112.0284
362.68        111.4772
363.13        111.1898
363.58        110.9274
364.03        110.2968
364.48        109.2324
364.93        107.8617
365.38        106.4981
365.83        105.6224
366.28         105.325
366.73         105.443
367.18        105.6531
367.63        105.4382
368.08         104.666
368.53        103.5028
368.98        102.2264
369.43         101.248
369.88        100.6725
370.33        100.3787
370.78        100.1683
371.23        99.72407
371.68        98.96997
372.13        98.02331
372.58        97.09259
373.03        96.47385
373.48        96.21323
373.93        96.19123
374.38        96.18396
374.83        95.84338
375.28        95.08559
375.72         94.0053
376.17        92.87175
376.62        91.93158
377.07        91.24666
377.52        90.73662
377.97        90.29577
378.42        89.76999
378.87        89.13409
379.32        88.46046
379.77        87.84082
380.22        87.38072
380.67        87.08556
381.11        86.92393
381.56        86.76228
382.01        86.46601
382.46        86.00753
382.91        85.43564
383.36        84.85915
383.81        84.42982
384.26         84.1692
384.71        84.02908
385.15        83.89278
385.60        83.60767
386.05         83.1342
386.50         82.5284
386.95        81.91268
387.40        81.46584
387.85        81.22627
388.29        81.10291
388.74        81.04494
389.19        80.80254
389.64        80.32879
390.09        79.67843
390.54        79.02571
390.98        78.57175
391.43        78.40174
391.88        78.58127
392.33        78.86957
392.78        78.53364
393.23        77.73956
393.67        77.38977
394.12        77.53004
394.57        77.41456
395.02        77.04153
395.47         76.8308
395.91         76.7788
396.36        76.62597
396.81        76.38731
397.26        76.16157
397.71        75.91199
398.15        75.61933
398.60        75.39401
399.05        74.94673
399.50        74.42093
399.95        74.60896
400.39        75.29951
400.84        74.94986
401.29        73.75777
401.74         73.4491
402.18          73.997
402.63        74.03019
403.08        73.60271
403.53        73.09401
403.97         73.5437
404.42        73.62344
404.87        73.59338
405.32        73.50999
405.76        73.36384
406.21        73.25255
406.66        73.09661
407.11        72.72883
407.55         72.2725
408.00        71.81587
408.45        71.50959
408.90        71.92702
409.34        72.73438
409.79        72.51022
410.24        71.43479
410.68        70.97623
411.13        71.19833
411.58        71.24705
412.03        71.01508
412.47        70.78149
412.92        70.52467
413.37        70.18205
413.81        69.86697
414.26        69.82578
414.71        70.04816
415.15        70.52756
415.60        71.00803
416.05        71.11943
416.49        70.77451
416.94        70.11225
417.39         69.4295
417.83        69.15253
418.28        69.37614
418.73        69.95636
419.17        70.66708
419.62        71.06623
420.07        71.02525
420.51        70.65978
420.96        70.17241
421.41         69.7496
421.85        69.43236
422.30        69.33533
422.74        69.32307
423.19        69.09923
423.64        68.72556
424.08        68.78926
424.53        69.23195
424.98         69.5084
425.42        69.56497
425.87        69.75687
426.31        70.07954
426.76        70.06253
427.21        69.84898
427.65        70.16576
428.10        70.78417
428.54        70.92817
428.99        70.63516
429.44        69.92789
429.88          69.114
430.33        69.53217
430.77        70.67581
431.22          70.466
431.66         69.1121
432.11        68.77618
432.56        69.48787
433.00        69.96502
433.45        70.00961
433.89        70.32545
434.34        68.34278
434.78        70.83177
435.23        70.32581
435.67        69.23849
436.12        68.16646
436.57        68.54018
437.01        70.60866
437.46        71.48579
437.90        71.06964
438.35        70.18074
438.79        70.43173
439.24        70.09354
439.68        69.64076
440.13        69.52535
440.57        69.76134
441.02        69.56038
441.46        69.03992
441.91        69.86244
442.35        71.38573
442.80        71.02357
443.24        69.20199
443.69        69.14417
444.13        70.68195
444.58        71.10533
445.02        70.32624
445.47        69.87382
445.91        69.88893
446.36        69.94017
446.80        70.02203
447.24        70.39004
447.69        70.68113
448.13        70.85618
448.58        70.85561
449.02         70.6674
449.47        70.42032
449.91        70.26936
450.36        70.27589
450.80        70.35638
451.25        70.46365
451.69        70.49206
452.13        70.42169
452.58        70.29666
453.02        70.13531
453.47        69.99287
453.91        69.87479
454.36         69.7635
454.80        69.63789
455.24        69.53957
455.69        69.49319
456.13        69.38988
456.58        69.20732
457.02        69.40606
457.46        69.01557
457.91        69.00428
458.35         69.0116
458.79        69.12296
459.24        69.23485
459.68        68.89077
460.13        68.27271
460.57        68.02686
461.01        68.26206
461.46        68.07021
461.90        68.24996
462.34        68.25962
462.79        67.44594
463.23        67.05575
463.68        66.90532
464.12        66.93694
464.56        67.05463
465.01        67.16566
465.45        67.21173
465.89        67.29873
466.34        67.35567
466.78        67.65735
467.22        67.35268
467.67        67.11987
468.11         66.8556
468.55         66.9117
468.99        67.21263
469.44        67.26548
469.88        67.05669
470.32        66.87527
470.77        66.76906
471.21        66.69128
471.65        66.63445
472.10        66.60187
472.54        66.58148
472.98        66.52909
473.42        66.42532
473.87        66.45475
474.31        66.48551
474.75        66.02872
475.20        65.29887
475.64        65.05334
476.08        65.47803
476.52        65.53656
476.97        65.25181
477.41        65.33772
477.85        65.17435
478.29        65.64618
478.74        65.51176
479.18        65.81671
479.62        65.81384
480.06        65.77214
480.50        65.49042
480.95          65.506
481.39         65.5563
481.83        64.81152
482.27         64.6598
482.72        65.42004
483.16        64.88855
483.60        65.09531
484.04        65.31163
484.48         65.3141
484.93        65.07871
485.37        65.69585
485.81        66.30705
486.25        65.78842
486.69        67.70884
487.14        67.91797
487.58        65.09489
488.02        64.91916
488.46        65.98698
488.90         64.3201
489.34        65.13305
489.79        64.67274
490.23        64.76944
490.67        64.98698
491.11         65.2922
491.55        65.24905
491.99        64.85562
492.43        64.67292
492.88        64.72472
493.32        64.75899
493.76        64.75907
494.20        64.76656
494.64         64.7466
495.08        64.87258
495.52        65.10671
495.96        64.82318
496.41          64.226
496.85        64.65736
497.29        65.79377
497.73        65.72015
498.17        64.54868
498.61        64.03567
499.05        64.32358
499.49        64.43367
499.93         64.3034
500.37        64.38509
500.82          64.579
501.26        64.41721
501.70        63.98327
502.14        63.95111
502.58        64.10662
503.02        64.18929
503.46        64.12663
503.90        64.20094
504.34        64.36802
504.78        64.41039
505.22        64.30795
505.66        64.11919
506.10        63.88873
506.54        63.75122
506.98        63.74603
507.42        63.71557
507.86        63.59629
508.30        63.93304
508.74        63.64145
509.18         63.6026
509.62        63.54211
510.06        63.56052
510.50        63.65948
510.94        63.81692
511.38        63.97266
511.82         64.0033
512.26         63.8879
512.70        63.67015
513.14        63.41663
513.58        63.23149
514.02        63.14196
514.46        63.11067
514.90         63.1163
515.34        63.12116
515.78        63.11221
516.22         63.1193
516.66        63.11325
517.10        63.04273
517.54        62.91069
517.98        62.72639
518.42        62.58482
518.86        62.64154
519.30         62.9146
519.74        63.34847
520.18        63.80035
520.62         64.0356
521.06        63.99593
521.50        63.75268
521.93        63.42249
522.37        63.21234
522.81        63.17164
523.25         63.2326
523.69        63.33674
524.13        63.39039
524.57        63.36616
525.01        63.31534
525.45        63.23741
525.89        63.12264
526.32        62.98023
526.76        62.81472
527.20        62.69313
527.64        62.73146
528.08        62.94086
528.52        63.28265
528.96         63.6384
529.40        63.81849
529.83        63.76782
530.27        63.55066
530.71        63.27415
531.15        63.11848
531.59        63.12695
532.03        63.25068
532.46        63.39112
532.90        63.39148
533.34        63.23026
533.78         62.9869
534.22        62.75756
534.66         62.6765
535.09        62.75584
535.53        62.93606
535.97        63.16902
536.41        63.33591
536.85        63.38695
537.28        63.52412
537.72        63.66173
538.16        63.26923
538.60        62.55622
539.04        62.42863
539.47        62.82464
539.91        62.93941
540.35        62.74355
540.79        62.73757
541.22        62.88525
541.66        62.93304
542.10        62.87077
542.54         62.6791
542.97        62.44902
543.41        62.56337
543.85        62.93229
544.29        63.03979
544.72        62.86022
545.16        62.79599
545.60        62.83393
546.04        62.74735
546.47        62.56259
546.91        62.44265
547.35         62.4059
547.79        62.43575
548.22        62.50331
548.66        62.55304
549.10        62.58651
549.53        62.76147
549.97        63.01614
550.41        63.11329
550.84        63.01114
551.28        62.87006
551.72        62.73389
552.15        62.50769
552.59        62.22454
553.03        62.33943
553.46        62.04222
553.90         62.0637
554.34        62.13304
554.77        62.19291
555.21        62.23809
555.65        62.31357
556.08        62.40157
556.52        62.50204
556.96        62.59183
557.39        62.56589
557.83        62.49419
558.27        62.59224
558.70        62.79313
559.14        62.83554
559.57         62.6937
560.01        62.47159
560.45        62.27017
560.88        62.31604
561.32        62.57086
561.75        62.68081
562.19        62.65326
562.63        62.51843
563.06        62.35088
563.50        62.57697
563.93        63.05782
564.37         62.9523
564.80         62.3685
565.24        62.37663
565.68         62.8469
566.11        62.85472
566.55        62.46518
566.98         62.1968
567.42        62.13467
567.85         62.5098
568.29        62.78749
568.72        62.79163
569.16        62.50745
569.60        62.68553
570.03        62.78335
570.47        63.07813
570.90        63.34546
571.34         63.0086
571.77        63.51267
572.21        63.24197
572.64         63.4158
573.08        63.09671
573.51        63.26006
573.95        63.13151
574.38        63.26417
574.82        62.44431
575.25        63.88911
575.69        64.47659
576.12        63.49686
576.56        62.90469
576.99        63.12263
577.42        64.29356
577.86        63.36662
578.29        63.73719
578.73        63.76646
579.16        63.82473
579.60        63.64581
580.03        63.45493
580.47        63.20591
580.90        63.65593
581.33        62.96532
581.77        63.29542
582.20        64.43834
582.64        64.34182
583.07        64.36543
583.51        63.71635
583.94        63.11057
584.37        62.79311
584.81        63.04742
585.24        63.13761
585.68        63.96582
586.11        63.71414
586.54        63.90648
586.98        63.01705
587.41        62.59873
587.85        63.43602
588.28        63.75742
588.71        63.53973
589.15        63.12662
589.58        63.50819
590.01        62.92569
590.45        62.64796
590.88        63.00976
591.31        63.22945
591.75        63.42225
592.18        63.21207
592.61        62.79395
593.05        62.77221
593.48        63.93036
593.91        63.68334
594.35        63.55342
594.78        63.28401
595.21        63.29435
595.65        63.15513
596.08        62.85082
596.51        63.27562
596.94        63.14146
597.38        63.13873
597.81        62.86993
598.24        62.86868
598.68        63.21524
599.11        61.92255
599.54        64.02446
599.97        63.16105
600.41        63.14542
600.84        62.93946
601.27        63.26662
601.70        62.85687
602.14        62.94655
602.57        62.86819
603.00        62.93574
603.43        63.05365
603.87        62.67934
604.30         63.0373
604.73        63.05537
605.16        62.94731
605.60        62.33796
606.03        62.29805
606.46        62.71024
606.89        62.66473
607.32        62.66433
607.76        62.43443
608.19        62.70345
608.62        62.82954
609.05         62.8555
609.48         62.7197
609.92        62.72442
610.35        61.95094
610.78         63.2463
611.21        63.86972
611.64        63.28394
612.07        63.10625
612.50        63.04806
612.94        62.92278
613.37          62.749
613.80        62.82965
614.23        62.83589
614.66        62.81292
615.09        62.71427
615.52        62.79065
615.96        62.98751
616.39         63.0719
616.82        63.04675
617.25        62.71775
617.68        62.96995
618.11        62.56957
618.54        61.95769
618.97         61.8741
619.40        62.37188
619.84        62.35608
620.27        62.72277
620.70        62.94764
621.13         63.2552
621.56        62.75236
621.99        61.60126
622.42        61.90172
622.85        62.63199
623.28        62.02918
623.71        62.24146
624.14        62.10114
624.57        62.09724
625.00         61.5601
625.43         62.0841
625.86        62.09897
626.29        62.01531
626.72        62.39811
627.15        62.35277
627.58        62.49887
628.01        62.49005
628.44         62.4681
628.87        62.31562
629.30          61.545
629.73        62.00101
630.16        61.88184
630.59        61.74806
631.02        61.75934
631.45        61.92009
631.88        62.04279
632.31        62.07538
632.74        62.24397
633.17        62.22382
633.60        62.22751
634.03        62.16394
634.46        62.04482
634.89        61.89856
635.32        61.78159
635.75        61.71425
636.18        61.68684
636.61        61.68352
637.04        61.66729
637.47        61.62304
637.89        61.58318
638.32        61.53675
638.75        61.45893
639.18        61.34636
639.61        61.35804
640.04         61.2381
640.47        61.20385
640.90        61.18369
641.33        61.18344
641.76        61.21361
642.18        61.30476
642.61        61.43612
643.04        61.59706
643.47        61.75453
643.90        61.85685
644.33        61.88395
644.76        61.85277
645.18         61.7984
645.61        61.69724
646.04        61.56223
646.47        61.54912
646.90        61.69572
647.33        61.33921
647.75        61.63932
648.18        61.59936
648.61        61.61639
649.04        61.81093
649.47        62.14267
649.89        62.45016
650.32        62.58471
650.75        62.45403
651.18         62.1433
651.61          61.807
652.03        61.57165
652.46        61.76568
652.89        62.20703
653.32        62.10988
653.74        61.66453
654.17        61.61027
654.60        61.09809
655.03        62.25721
655.46        61.44415
655.88        61.11286
656.31        63.72616
656.74        69.07827
657.16         66.6636
657.59        63.54671
658.02        62.82512
658.45        62.83617
658.87         62.8259
659.30        62.28702
659.73        61.83918
660.15        62.08329
660.58        61.62774
661.01        61.60537
661.44        61.49326
661.86        61.35984
662.29        61.19579
662.72        61.26796
663.14         61.5241
663.57        61.35876
664.00        60.91647
664.42        60.95527
664.85        61.44869
665.27        61.72267
665.70        61.69744
666.13        61.71625
666.55        61.76802
666.98        61.63892
667.41        61.39761
667.83        61.24867
668.26        61.22016
668.69        61.27878
669.11        61.36166
669.54        61.33101
669.96        61.15936
670.39        60.97696
670.82         60.8873
671.24        60.80439
671.67        60.83723
672.09        61.45984
672.52        62.44318
672.94        62.56705
673.37        62.47222
673.80         61.9323
674.22         61.4088
674.65        61.15186
675.07         61.2669
675.50        61.64333
675.92        62.11588
676.35        62.38539
676.77        62.37825
677.20        62.19748
677.62        61.93904
678.05        61.75723
678.47         61.6963
678.90        61.69395
679.32        61.73922
679.75        61.85926
680.17        62.03934
680.60        62.25167
681.02        62.39783
681.45        62.57248
681.87        62.16214
682.30        62.02969
682.72        62.02384
683.15        61.93154
683.57        61.79465
684.00        61.84166
684.42        62.03917
684.85        62.17736
685.27        62.22391
685.70        62.19669
686.12        62.11194
686.54        62.19126
686.97        62.35079
687.39         62.2104
687.82        61.80415
688.24        61.56795
688.66        61.53773
689.09        61.46859
689.51        61.37327
689.94        61.42973
690.36        61.65623
690.78        61.88019
691.21        61.96319
691.63        62.52657
692.06        61.98378
692.48        62.13541
692.90        62.45158
693.33        62.53706
693.75        62.38441
694.17        62.15261
694.60        61.92809
695.02         62.2345
695.44        62.20758
695.87        62.56964
696.29        62.92687
696.71        62.96998
697.14        62.68254
697.56        62.28847
697.98        61.95678
698.41        61.79158
698.83        61.81281
699.25        62.05233
699.68        62.36997
700.10        62.56452
700.52         62.5539
700.94         62.4091
701.37        62.21009
701.79        62.10912
702.21        62.13417
702.64        62.23258
703.06        62.35164
703.48        62.41638
703.90        62.41023
704.33        62.37099
704.75        62.31847
705.17        62.26487
705.59        62.21886
706.01        62.16182
706.44        62.13381
706.86        62.20533
707.28        62.35946
707.70        62.65177
708.12        62.97245
708.55        62.96777
708.97        62.68587
709.39        62.58056
709.81        62.69119
710.23        62.72598
710.66        62.69371
711.08        62.81261
711.50         63.0295
711.92        63.16897
712.34        63.20752
712.76        63.18964
713.19        63.13633
713.61        63.14033
714.03        63.19313
714.45        63.26063
714.87        63.30593
715.29        63.27821
715.71        63.16557
716.13        62.99237
716.56        62.76984
716.98        62.58326
717.40        62.44285
717.82        62.34425
718.24        62.29657
718.66        62.31212
719.08        62.38189
719.50        62.48972
719.92         62.6199
720.34        62.74426
720.76        62.85331
721.19        62.94667
721.61        62.99997
722.03        62.97727
722.45        62.90695
722.87        62.65049
723.29         62.3032
723.71        62.44047
724.13        63.09513
724.55        62.74248
724.97        63.24343
725.39        63.17625
725.81        63.09889
726.23        62.84921
726.65        62.56834
727.07        62.42095
727.49        62.60457
727.91         62.9295
728.33        63.33411
728.75        63.61586
729.17        63.71111
729.59        63.68216
730.01        63.58768
730.43        63.52011
730.85        63.51444
731.27        63.54003
731.69        63.57846
732.10         63.6125
732.52        63.62675
732.94        63.62893
733.36        63.63045
733.78        63.62309
734.20        63.61408
734.62        63.67106
735.04        63.74913
735.46        63.67572
735.88        63.49418
736.30        63.42437
736.72        63.52018
737.13        63.69719
737.55        63.82969
737.97        63.99991
738.39        64.12457
738.81        63.68351
739.23        62.94489
739.65        63.15979
740.06        64.09421
740.48        64.35235
740.90        63.85516
741.32        63.28304
741.74        63.05803
742.16        62.93468
742.57        63.05408
742.99        63.40355
743.41        63.85904
743.83        64.19707
744.25        64.34849
744.67        64.35971
745.08        64.30927
745.50        64.29389
745.92        64.35938
746.34        64.45349
746.75        64.52503
747.17        64.51242
747.59          64.395
748.01        64.21843
748.42        64.02611
748.84        63.82267
749.26        63.62498
749.68        63.57129
750.09        63.64607
750.51        63.49931
750.93        63.28001
751.35        63.74042
751.76        64.68537
752.18        65.02563
752.60        64.66602
753.01        64.15975
753.43        63.73643
753.85        63.55437
754.27        63.68166
754.68        64.07589
755.10        64.60277
755.52        64.79023
755.93        65.00996
756.35         65.0462
756.77        64.96279
757.18        64.86164
757.60        64.83015
758.02        64.26938
758.43        63.45246
758.85         64.5022
759.26        65.95919
759.68        66.30853
760.10        65.81876
760.51        65.25101
760.93        65.14979
761.34        64.58963
761.76         65.2144
762.18        65.10275
762.59        64.77989
763.01        64.81516
763.42        65.20568
763.84        65.26173
764.26        64.97939
764.67        64.63796
765.09        64.39651
765.50        64.41765
765.92        64.64785
766.33        64.62683
766.75        64.36111
767.16        64.39703
767.58        64.75451
768.00        65.24725
768.41        65.74058
768.83        66.10342
769.24        66.19798
769.66         65.7011
770.07        64.85644
770.49        64.50494
770.90        64.67674
771.32        64.85612
771.73        64.97382
772.15        65.17863
772.56        65.45259
772.97        65.67747
773.39        65.79945
773.80        65.87819
774.22        65.86608
774.63          65.771
775.05          65.607
775.46        65.47142
775.88         65.3733
776.29         65.3208
776.70        65.29767
777.12        65.27798
777.53        65.27183
777.95        65.27016
778.36        65.28528
778.77        65.29951
779.19        65.32435
779.60        65.37659
780.02        65.44411
780.43        65.55672
780.84        65.72704
781.26        65.78877
781.67        65.83462
782.09        66.25557
782.50        66.90441
782.91        67.08521
783.33         66.7818
783.74        66.63142
784.15        66.63809
784.57        66.43891
784.98         66.1154
785.39        65.97898
785.81        66.06683
786.22        66.29492
786.63         66.5587
787.04         66.6824
787.46        66.63945
787.87        66.45954
788.28        66.25427
788.70        66.17249
789.11        66.22919
789.52        66.39327
789.93        66.58042
790.35        66.64246
790.76        66.57353
791.17        66.42706
791.58        66.28405
792.00         66.2494
792.41        66.37309
792.82        66.59737
793.23        66.88411
793.65        67.16959
794.06        67.44016
794.47        67.67094
794.88        67.75172
795.29        67.73713
795.71        67.33859
796.12        66.77755
796.53         66.1703
796.94        66.00229
797.35        66.32384
797.76        66.79008
798.18        67.19199
798.59        67.46317
799.00        67.49601
799.41        67.23785
799.82        66.85052
800.23        66.67467
800.64        66.78267
801.06        67.02549
801.47        67.36069
801.88        67.60577
802.29        67.68547
802.70        67.65245
803.11        67.52654
803.52          67.327
803.93        67.08554
804.34        66.81102
804.75         66.5364
805.17        66.33655
805.58        66.26552
805.99        66.22991
806.40        66.26157
806.81        66.54381
807.22        66.97388
807.63        67.21268
808.04        67.23039
808.45        67.23991
808.86        67.23724
809.27         67.0616
809.68        66.77855
810.09        66.60494
810.50        66.58681
810.91        66.66631
811.32        66.80679
811.73        66.93814
812.14         67.0307
812.55        67.11721
812.96        67.17637
813.37        67.16451
813.78        67.08588
814.19        66.95246
814.60        66.83332
815.01        66.83901
815.42        66.99003
815.83        67.25523
816.24        67.56995
816.65        67.79854
817.05        67.88622
817.46         67.8355
817.87        67.70995
818.28        67.55902
818.69        67.41087
819.10        67.25491
819.51        67.12114
819.92        67.07038
820.33        67.11149
820.74        67.21538
821.14        67.34741
821.55        67.47478
821.96         67.5663
822.37        67.63394
822.78         67.6355
823.19        67.51674
823.60        67.28558
824.00        66.96884
824.41        66.68304
824.82        66.70103
825.23         67.0697
825.64        67.71285
826.04         68.4565
826.45        68.90171
826.86        68.96432
827.27        68.74158
827.68        68.37186
828.08        68.11867
828.49        68.03003
828.90        68.04855
829.31        68.14858
829.72        68.28873
830.12        68.47093
830.53        68.67258
830.94        68.85764
831.35        68.90386
831.75         68.8003
832.16        68.51593
832.57         68.1825
832.97        67.99089
833.38        67.98689
833.79        68.12508
834.20        68.27891
834.60        68.23769
835.01        67.97976
835.42        67.57861
835.82        67.18955
836.23        67.01538
836.64        67.12753
837.04        67.48197
837.45        67.90793
837.86        68.22869
838.26        68.37634
838.67        68.35139
839.08        68.22413
839.48        68.08739
839.89        67.97337
840.29        67.83751
840.70        67.67763
841.11        67.43016
841.51        67.12221
841.92        66.80871
842.33        66.55346
842.73        66.46285
843.14        66.52357
843.54        66.69344
843.95        67.00935
844.35        67.57357
844.76        68.31925
845.17        69.22177
845.57        70.02142
845.98        70.14304
846.38        69.53695
846.79        68.38907
847.19        67.11229
847.60        66.36993
848.00         66.3125
848.41        66.73243
848.81        67.44749
849.22        68.02974
849.62         68.3708
850.03        68.53975
850.43        68.55761
850.84        68.34745
851.24        67.97732
851.65        67.41396
852.05        66.84077
852.46        66.57146
852.86        66.63438
853.27        66.96809
853.67        67.34933
854.07        67.63393
854.48        67.72282
854.88        67.73432
855.29        67.55296
855.69        67.21666
856.10        66.68788
856.50        66.04894
856.90         65.4741
857.31        65.24713
857.71        65.44266
858.12        65.94393
858.52        66.62792
858.92        67.06317
859.33        67.09708
859.73        66.88332
860.13        66.52129
860.54        66.21268
860.94         66.0637
861.34        65.97443
861.75        65.94689
862.15        66.08379
862.55        66.33295
862.96        66.69811
863.36        67.01302
863.76        67.00826
864.17        66.63391
864.57         66.0005
864.97        65.29607
865.38        64.81584
865.78         64.6788
866.18        64.76703
866.58        64.99981
866.99        65.22774
867.39        65.39286
867.79        65.52475
868.19        65.56192
868.60        65.38098
869.00        64.99886
869.40        64.46799
869.80        63.93828
870.21        63.69007
870.61        63.82796
871.01        64.22853
871.41        64.79641
871.81        65.39212
872.22        65.93326
872.62        66.49709
873.02        66.99165
873.42        67.23873
873.82        67.19978
874.22        66.91563
874.63        66.57929
875.03        66.46651
875.43        66.63713
875.83        66.98517
876.23        67.38184
876.63        67.58747
877.03        67.53957
877.44        67.37962
877.84        67.07195
878.24        66.58213
878.64        65.96293
879.04        65.20193
879.44        64.60841
879.84        64.64038
880.24        65.31886
880.64        66.51685
881.04        67.69543
881.44        67.88028
881.84        66.87904
882.24        65.08218
882.65        63.19355
883.05        62.11852
883.45        62.10428
883.85        62.87242
884.25        64.09602
884.65        65.15797
885.05        65.77934
885.45        66.11489
885.85        66.24357
886.25        66.29543
886.65        66.32426
887.05        66.23628
887.45        66.03388
887.85        65.77412
888.25        65.48441
888.65         65.2075
889.04         64.9507
889.44        64.72277
889.84        64.53268
890.24        64.42366
890.64        64.42197
891.04        64.56503
891.44        64.84845
891.84        65.21555
892.24        65.68306
892.64        66.28648
893.04        67.00438
893.44        67.82515
893.83        68.57314
894.23        68.87686
894.63        68.69465
895.03        68.08935
895.43        67.40173
895.83        67.17872
896.23        67.53226
896.63        68.32623
897.02        69.13701
897.42        69.26465
897.82        68.58336
898.22        67.33569
898.62        66.03165
899.01        65.37477
899.41        65.52451
899.81        66.29707
900.21         67.2485
900.61        67.55447
901.00         66.9883
901.40        65.89288
901.80        64.83362
902.20        64.58533
902.59        65.30968
902.99        66.73119
903.39        68.39194
903.79        69.31065
904.18        69.13875
904.58         68.2374
904.98        67.12641
905.38        66.51839
905.77        66.56069
906.17        67.01942
906.57        67.66616
906.96          68.175
907.36          68.364
907.76        68.37018
908.15        68.23035
908.55        67.90678
908.95        67.47483
909.34        66.94279
909.74        66.41993
910.14        66.04349
910.53        65.85773
910.93        65.86302
911.33        66.06342
911.72        66.45855
912.12        66.99841
912.52        67.63802
912.91        68.27827
913.31        68.74332
913.70        69.00381
914.10        69.04009
914.49        68.90318
914.89        68.62878
915.29        68.28829
915.68         67.8973
916.08        67.53607
916.47        67.26614
916.87        67.13326
917.26         67.0808
917.66        67.12613
918.05        67.27156
918.45        67.46445
918.84        67.75397
919.24        67.91914
919.64        67.70218
920.03        67.08531
920.42        66.16514
920.82        65.31889
921.21        64.95559
921.61         65.1479
922.00        65.80933
922.40        66.63764
922.79        67.17739
923.19        67.23457
923.58        66.96935
923.98        66.62685
924.37        66.54309
924.77        66.81075
925.16        67.32515
925.55        67.94179
925.95        68.40532
926.34        68.63933
926.74        68.67548
927.13        68.56383
927.52        68.37521
927.92        68.14965
928.31        67.87755
928.70         67.5477
929.10        67.13017
929.49        66.67574
929.89         66.2392
930.28        65.95997
930.67        66.00537
931.07        66.38068
931.46        67.00929
931.85        67.77812
932.24        68.52884
932.64        69.14065
933.03        69.68848
933.42        70.00665
933.82        69.87999
934.21        69.34289
934.60        68.47028
934.99        67.58949
935.39        67.16837
935.78        67.29588
936.17        67.82827
936.56         68.5286
936.96         68.9761
937.35        69.07109
937.74        68.92972
938.13        68.55718
938.53        67.96579
938.92        67.22078
939.31        66.38742
939.70        65.73684
940.09        65.70173
940.49        66.28941
940.88        67.36343
941.27         68.6462
941.66        69.62962
942.05        70.06842
942.44        70.09341
942.84        69.57055
943.23        68.32265
943.62        66.54439
944.01        64.46984
944.40        62.69616
944.79        61.95403
945.18        62.32694
945.57         63.6544
945.97        65.47193
946.36        67.04325
946.75        67.87077
947.14        68.11763
947.53         68.0489
947.92        68.17944
948.31        68.63926
948.70        69.14613
949.09        69.58664
949.48        69.82342
949.87        69.79409
950.26        69.66049
950.65        69.26644
951.04        68.31911
951.43        66.88174
951.82        65.09732
952.21        63.52653
952.60        63.00642
952.99        63.65403
953.38        65.20825
953.77        67.01158
954.16        67.90994
954.55         67.5597
954.94        66.28191
955.33        64.61561
955.72        63.47565
956.11        63.15997
956.50        63.40159
956.89        63.94514
957.28        64.37102
957.66        64.54015
958.05        64.61195
958.44        64.67837
958.83        64.84248
959.22        65.12444
959.61        65.40834
960.00        65.66173
960.39        65.86847
960.78        66.00668
961.16        66.11444
961.55        66.09597
961.94        65.78142
962.33        65.17258
962.72        64.30983
963.11        63.49933
963.49        63.25514
963.88         63.6386
964.27        64.55755
964.66        65.56378
965.04         65.9144
965.43         65.3848
965.82        64.21468
966.21         62.9503
966.60        62.50235
966.98        63.10499
967.37        64.44984
967.76        66.00083
968.15        66.86141
968.53        66.79554
968.92         66.0392
969.31        65.02988
969.69        64.48864
970.08        64.60491
970.47        65.14386
970.86        65.83247
971.24        66.24713
971.63        66.26218
972.02        66.10403
972.40         65.8996
972.79        65.78445
973.17        65.90405
973.56        66.10336
973.95        66.54191
974.33        67.51403
974.72        68.94967
975.11        70.80583
975.49         72.7371
975.88         73.8465
976.26        73.82519
976.65        72.84171
977.04        71.26356
977.42         69.5898
977.81        68.05383
978.19        66.52895
978.58        65.19539
978.96         64.1317
979.35        63.38231
979.74        62.94786
980.12        62.76074
980.51        62.53612
980.89         62.2976
981.28        62.13324
981.66        62.11156
982.05        62.30482
982.43        62.72637
982.82        63.18539
983.20        63.88469
983.59        65.19279
983.97         67.1933
984.35        69.84264
984.74        72.13446
985.12        72.53306
985.51        70.57413
985.89        66.90759
986.28        63.13297
986.66        61.14684
987.04        61.40393
987.43        63.34192
987.81        66.05753
988.20        67.58997
988.58        67.32492
988.96        65.91424
989.35        63.98337
989.73        62.66576
990.12        62.26569
990.50        62.26167
990.88         62.7008
991.27        63.74508
991.65        65.36388
992.03        67.78819
992.42        70.02103
992.80        70.32069
993.18        68.09061
993.56        64.08493
993.95        60.32253
994.33        58.89625
994.71        60.20873
995.10        63.71617
995.48        68.19922
995.86        70.36548
996.24        68.95641
996.63        65.15795
997.01        60.94843
997.39         58.9686
997.77        59.79788
998.15        62.58218
998.54        66.42554
998.92        69.70233
999.30        71.64489
999.68        72.72722
1000.06        72.96455
1000.45        72.39104
1000.83        71.38355
1001.21        69.81782
1001.59        68.18724
1001.97        67.23597
1002.35         67.0721
1002.73        67.55819
1003.12        68.46085
1003.50        69.36056
1003.88        69.99118
1004.26        70.52041
1004.64        70.73983
1005.02         70.3679
1005.40        69.35339
1005.78        67.56869
1006.16        65.66489
1006.54        64.76665
1006.92        65.13318
1007.30        66.67003
1007.69        68.14413
1008.07        67.31055
1008.45        63.96172
1008.83        59.29012
1009.21        55.26227
1009.59        53.92253
1009.97        55.45572
1010.35        59.47588
1010.73        64.81801
1011.11        68.46651
1011.49        68.91971
1011.86        66.63766
1012.24        63.77817
1012.62        63.82884
1013.00        67.84299
1013.38        75.33404
1013.76        83.89787
1014.14        87.01902
1014.52        82.82462
1014.90        75.01511
1015.28        67.60113
1015.66        63.88296
1016.04        63.95322
1016.41        66.80377
1016.79        71.85933
1017.17        77.94727
1017.55        83.56892
1017.93        89.09374
1018.31        92.04742
1018.69        88.70795
1019.06        79.91613
1019.44        68.81728
1019.82        59.55329
1020.20        55.42382
1020.58        56.02973
1020.95        60.48853
1021.33        67.12235
1021.71        71.32051
1022.09        70.81527
1022.46        66.67006
1022.84        61.90594
1023.22        60.37955
1023.60        63.09974
1023.97        69.82758
1024.35        78.29364
1024.73        80.77634
