SpectraSmart Spectrum 2.9.0.0
--------- Device Information -----------
Spectrum Name :  反射率_0
Saving Time :  2024/05/03 20:05:18
Spectro-Module Model Name : SE2030-DUVN
Spectro-Module Serial Number : OS361AC55029948
Wavelength Start : 200
Wavelength End : 1025
Wavelength Unit : Wavelength(nm)
Spectrum Unit : Reflectance(%)
-----------Spectrum Setting ------------
Integration Time : 20ms
Average : 10
Boxcar : 0
Background removal :  enabled
linearity correction :  enabled
SC :  disabled
Intensity correction :  disabled
DWT denoise :  enabled
savitzky-golay :  disabled
FFT :  disabled
Running average :  disabled
Kalman :  disabled
High pass :  disabled
---------------BEGIN--------------------
Wavelength(nm)             Reflectance(%)
200.29               0
200.75       -30.59008
201.21       -44.95797
201.67        1045.915
202.13        36.63311
202.58        28.76222
203.04        31.09576
203.50        36.86105
203.96        46.78688
204.42        66.91541
204.88        138.8284
205.34       -2449.756
205.80       -232.0106
206.26       -270.3254
206.72       -65115.39
207.18        232.4324
207.64        151.7376
208.10        155.9052
208.55        249.6546
209.01        1200.057
209.47        1449.157
209.93        211.9958
210.39        94.82853
210.85         66.3046
211.31        62.26034
211.77        71.43864
212.23        101.6465
212.69        182.8655
213.14        240.6895
213.60         134.287
214.06        63.53695
214.52        35.34898
214.98        25.65347
215.44        24.61473
215.90        36.60432
216.36       -184.4747
216.81       -38.45135
217.27       -49.75303
217.73       -109.2676
218.19       -458.2731
218.65        -9549.49
219.11       -663.5844
219.57       -154.6033
220.02       -71.02995
220.48       -112.6901
220.94        157.3218
221.40        61.39271
221.86        48.33917
222.32        45.69849
222.77        46.74661
223.23        51.06079
223.69        58.11171
224.15        60.68098
224.61        54.78998
225.06        46.55444
225.52        40.81942
225.98        38.43835
226.44        38.44537
226.90        39.82498
227.36        42.48612
227.81        45.41303
228.27        47.04451
228.73        47.66939
229.19        46.58614
229.65        43.23326
230.10        38.45716
230.56        33.44172
231.02        29.41161
231.48        27.77663
231.93        28.27269
232.39        30.13463
232.85        32.37164
233.31        33.64837
233.77        33.73682
234.22        33.09774
234.68        32.43614
235.14        32.89714
235.60        34.87178
236.05        38.13073
236.51        42.07678
236.97        45.38103
237.43        47.32467
237.88        48.30691
238.34        49.06034
238.80        50.76175
239.26        54.24292
239.71        62.08699
240.17        73.76837
240.63        89.42941
241.08        100.8959
241.54        102.2534
242.00        97.72526
242.46        96.55031
242.91         101.982
243.37        114.2606
243.83        136.4964
244.28        159.7706
244.74        159.5023
245.20        138.6728
245.66        113.8005
246.11        97.66654
246.57        90.68256
247.03        87.10332
247.48        85.00574
247.94        82.57687
248.40        79.11975
248.85        75.81016
249.31        71.52115
249.77        64.62007
250.22        57.43414
250.68        51.90981
251.14        50.26336
251.59        55.23122
252.05        68.08663
252.51        91.16056
252.96        125.6946
253.42        157.0787
253.88        166.0723
254.33        154.4553
254.79        133.1558
255.25        112.6902
255.70        97.39799
256.16        87.15445
256.62        81.08637
257.07        78.63406
257.53        78.84573
257.99        80.16537
258.44        81.10832
258.90        80.73788
259.35        78.66428
259.81        76.19463
260.27           73.55
260.72        71.01531
261.18        69.12662
261.63        67.40545
262.09         66.1299
262.55        65.10544
263.00        64.12408
263.46        63.23927
263.91         62.2809
264.37         61.3883
264.83        60.48218
265.28        59.52795
265.74        58.45882
266.19        56.87269
266.65        54.92941
267.11        52.72347
267.56        50.59196
268.02        49.10387
268.47        48.26282
268.93         47.9015
269.38        47.68629
269.84        47.07075
270.30        45.95808
270.75        44.54844
271.21        43.15133
271.66        42.08167
272.12        41.40397
272.57        40.92579
273.03        40.52007
273.48        40.03143
273.94        39.42688
274.39          38.784
274.85        38.08481
275.31        37.18605
275.76        36.10368
276.22        34.95264
276.67        33.92566
277.13        33.40935
277.58        33.34107
278.04        33.60733
278.49        33.85164
278.95         33.5842
279.40         32.7067
279.86        31.52697
280.31        30.29865
280.77        29.45746
281.22        28.99467
281.68        28.80884
282.13        28.74532
282.59        28.66109
283.04        28.48193
283.50        28.28746
283.95        28.08783
284.41        27.92165
284.86         27.7899
285.32        27.71728
285.77        27.67076
286.22        27.67453
286.68        27.73881
287.13        27.80952
287.59        27.95776
288.04        28.23265
288.50        28.63961
288.95        29.12154
289.41        29.54641
289.86        29.65324
290.32        29.44969
290.77        29.03602
291.22        28.64107
291.68        28.57881
292.13        28.92043
292.59        29.61761
293.04        30.56521
293.50         31.5819
293.95        32.59015
294.40         33.6492
294.86        34.82496
295.31        36.22208
295.77        37.87672
296.22        39.72002
296.68        41.68075
297.13        43.62712
297.58        45.46117
298.04          47.221
298.49        48.85603
298.95        50.38665
299.40        51.83098
299.85         53.2154
300.31        54.69714
300.76        56.46789
301.21        58.57182
301.67        60.97049
302.12         63.4257
302.58         65.5975
303.03         67.3684
303.48        68.84677
303.94        70.31394
304.39        72.09917
304.84        74.31331
305.30         76.8224
305.75        79.35091
306.20        81.52507
306.66        83.26511
307.11        84.64886
307.57        85.88036
308.02        87.10798
308.47        88.45341
308.93        89.87263
309.38        91.31787
309.83        92.83131
310.29        94.39246
310.74        95.95623
311.19        97.46034
311.65        98.77418
312.10        99.82512
312.55        100.6423
313.00        101.2243
313.46        101.6002
313.91        101.7893
314.36        101.8529
314.82        101.9261
315.27         102.181
315.72        102.6768
316.18        103.3753
316.63        104.1835
317.08        104.9608
317.53         105.651
317.99        106.2644
318.44        106.8247
318.89        107.3102
319.35        107.7182
319.80        108.0441
320.25        108.3038
320.70        108.5604
321.16         108.815
321.61        109.0755
322.06        109.3304
322.51        109.5598
322.97        109.7468
323.42        109.9367
323.87        110.0867
324.32        110.1416
324.78        110.0942
325.23         110.007
325.68        109.9669
326.13        110.1361
326.59        110.5203
327.04        111.1246
327.49        111.8238
327.94        112.4473
328.39        112.9236
328.85        113.2388
329.30        113.4906
329.75        113.6957
330.20        113.8794
330.66        114.0041
331.11        114.1223
331.56         114.196
332.01         114.247
332.46        114.3091
332.92        114.4217
333.37        114.7697
333.82        115.3398
334.27        116.0952
334.72         116.936
335.17        117.6932
335.63        118.2608
336.08        118.7074
336.53        119.0405
336.98        119.3498
337.43        119.6654
337.88        119.9731
338.34        120.2094
338.79        120.3044
339.24        120.2617
339.69        120.1528
340.14        120.1243
340.59        120.3941
341.05             121
341.50        121.8707
341.95        122.8611
342.40        123.7521
342.85        124.4554
343.30        125.0054
343.75        125.4119
344.20        125.7073
344.66         125.937
345.11        126.0743
345.56        126.1621
346.01        126.2674
346.46        126.4181
346.91        126.6105
347.36        126.8679
347.81          127.21
348.26        127.6277
348.72        128.1231
349.17        128.5919
349.62        128.8971
350.07        129.0115
350.52        128.9622
350.97        128.8642
351.42        128.9157
351.87        129.1389
352.32        129.4411
352.77        129.6878
353.22        129.6692
353.67        129.3399
354.13        128.8234
354.58        128.1393
355.03        127.3941
355.48        126.6566
355.93        125.9239
356.38         125.295
356.83        124.9211
357.28        124.8058
357.73        124.8839
358.18         125.003
358.63        124.9095
359.08        124.5228
359.53        123.9007
359.98        123.0984
360.43        122.2237
360.88        121.3204
361.33        120.3517
361.78        119.3636
362.23        118.4199
362.68        117.5361
363.13         116.737
363.58        115.9362
364.03        114.9852
364.48        113.8809
364.93        112.6776
365.38        111.5603
365.83        110.8057
366.28        110.4476
366.73        110.3823
367.18        110.3706
367.63        110.0339
368.08        109.2752
368.53        108.2046
368.98        107.0274
369.43        106.0509
369.88        105.3535
370.33        104.8529
370.78        104.4009
371.23        103.7659
371.68        102.8987
372.13        101.8836
372.58        100.9024
373.03        100.2072
373.48         99.8306
373.93        99.68056
374.38        99.52163
374.83        98.98792
375.28        98.00498
375.72        96.66653
376.17        95.31271
376.62        94.29018
377.07        93.66471
377.52        93.32497
377.97        93.04909
378.42        92.49194
378.87        91.59966
379.32        90.51918
379.77        89.48113
380.22        88.78828
380.67        88.48285
381.11        88.46802
381.56        88.51964
382.01         88.3458
382.46        87.86946
382.91        87.19844
383.36        86.48853
383.81        85.95635
384.26        85.64838
384.71        85.48946
385.15          85.369
385.60        85.15288
386.05        84.78886
386.50        84.31435
386.95        83.81709
387.40        83.42102
387.85        83.15201
388.29        82.94437
388.74        82.75567
389.19        82.33638
389.64        81.66542
390.09        80.82395
390.54        80.03285
390.98        79.56441
391.43        79.49733
391.88         79.8439
392.33        80.34929
392.78        80.19307
393.23        79.50388
393.67        79.38747
394.12        79.76683
394.57         79.2979
395.02        78.16586
395.47          77.744
395.91        78.02885
396.36        77.96173
396.81        77.54121
397.26        77.36633
397.71         77.3547
398.15        77.18311
398.60        76.93694
399.05        76.39559
399.50        75.75581
399.95         75.8669
400.39        76.51571
400.84        76.21043
401.29        75.10468
401.74        74.61904
402.18         74.8457
402.63        75.05679
403.08         75.2278
403.53         75.0071
403.97         75.4062
404.42        75.46797
404.87        75.48589
405.32        75.36395
405.76        75.09045
406.21        74.85795
406.66        74.61117
407.11        74.02152
407.55        73.28438
408.00        72.98821
408.45        73.14323
408.90        73.39848
409.34        73.53658
409.79        73.17724
410.24        72.49326
410.68        72.25702
411.13        72.53446
411.58        72.61141
412.03         72.8143
412.47          72.704
412.92        72.36546
413.37        71.81985
413.81        71.26912
414.26        71.07775
414.71         71.2585
415.15        71.76833
415.60        72.31188
416.05        72.45393
416.49        72.08782
416.94        71.38585
417.39        70.66294
417.83        70.36953
418.28        70.60548
418.73        71.20087
419.17        71.94699
419.62        72.43372
420.07        72.52702
420.51        72.33366
420.96         71.9771
421.41        71.53261
421.85        71.03909
422.30        70.63811
422.74         70.3174
423.19        70.01025
423.64        69.78571
424.08        70.06908
424.53        70.71662
424.98        71.13166
425.42         71.2215
425.87        71.31975
426.31        71.47916
426.76        71.38595
427.21        71.18358
427.65        71.45912
428.10        72.02633
428.54        72.16746
428.99        71.88765
429.44        71.42735
429.88        70.95124
430.33        70.93652
430.77        71.18881
431.22        71.15627
431.66         70.8067
432.11        70.50983
432.56        70.34406
433.00        70.57176
433.45        71.03611
433.89        71.70448
434.34        69.39091
434.78        71.55973
435.23        71.64131
435.67        70.32448
436.12        70.08365
436.57        70.02314
437.01        71.14587
437.46        71.60977
437.90        71.38757
438.35        71.14793
438.79        71.42537
439.24        71.31207
439.68        70.97549
440.13        70.76925
440.57        70.77795
441.02        70.63458
441.46        70.36719
441.91        70.95349
442.35        71.91209
442.80        71.45905
443.24        69.97661
443.69        70.06208
444.13        71.51099
444.58        71.95897
445.02        71.30576
445.47        70.87147
445.91        70.82665
446.36        70.88947
446.80        71.06431
447.24        71.48188
447.69        71.94134
448.13        71.99516
448.58        71.65823
449.02        71.27821
449.47        71.00903
449.91        70.81896
450.36         70.7782
450.80        70.93187
451.25        71.20467
451.69        71.37208
452.13        71.39196
452.58        71.33999
453.02        71.22704
453.47        71.09911
453.91        70.96366
454.36        70.79669
454.80        70.60527
455.24        70.48164
455.69        70.45932
456.13        70.41887
456.58         70.2961
457.02        70.48757
457.46        69.99736
457.91        69.84714
458.35        69.71887
458.79        69.73659
459.24        69.80406
459.68        69.51305
460.13        68.99277
460.57        68.72256
461.01        68.78519
461.46        68.72149
461.90        68.42987
462.34        68.82495
462.79        68.36484
463.23        68.24036
463.68        68.06039
464.12        68.05376
464.56        68.13561
465.01        68.15297
465.45        68.10172
465.89         67.8893
466.34        67.56277
466.78         67.8086
467.22        68.66818
467.67        67.48767
468.11        67.70227
468.55         67.5328
468.99        67.92458
469.44        67.99706
469.88        67.75145
470.32        67.59641
470.77          67.529
471.21        67.46108
471.65        67.37079
472.10        67.27416
472.54        67.19824
472.98        67.13451
473.42         67.0644
473.87        67.23139
474.31         67.4351
474.75        66.90864
475.20        65.92166
475.64        65.70028
476.08        66.20208
476.52         66.3196
476.97        66.00189
477.41        65.98565
477.85        66.27779
478.29        66.29278
478.74        66.15117
479.18        66.45734
479.62        66.53888
480.06        66.57939
480.50        66.29906
480.95        66.33502
481.39        66.76733
481.83        65.47968
482.27        66.06849
482.72        65.96803
483.16        65.72916
483.60        65.75899
484.04        66.03141
484.48        65.88372
484.93        65.22163
485.37        66.64081
485.81        67.03999
486.25        66.44289
486.69        67.88845
487.14        68.38384
487.58        65.95213
488.02        65.41687
488.46        66.62893
488.90        64.89872
489.34        65.96223
489.79        65.81656
490.23        65.85075
490.67        65.92048
491.11        65.95541
491.55        65.93334
491.99        65.81857
492.43        65.73228
492.88        65.68625
493.32        65.71344
493.76        65.77718
494.20        65.78577
494.64        65.71932
495.08        65.66592
495.52        65.66582
495.96        65.57988
496.41        65.46281
496.85        65.77029
497.29        66.32787
497.73        66.20866
498.17        65.53117
498.61        65.44312
499.05        65.88863
499.49        65.83044
499.93        65.28126
500.37        64.91967
500.82        64.80535
501.26        64.71345
501.70        64.65094
502.14        64.70718
502.58        64.84798
503.02        64.98131
503.46        65.07912
503.90        65.15399
504.34        65.18254
504.78        65.14103
505.22        65.03178
505.66        64.84518
506.10        64.62638
506.54        64.52816
506.98        64.58533
507.42        64.63313
507.86         64.5705
508.30        64.94774
508.74         64.5528
509.18        64.38387
509.62         64.1799
510.06        64.12292
510.50         64.2344
510.94        64.47095
511.38        64.73719
511.82        64.84819
512.26        64.76681
512.70        64.54541
513.14        64.26612
513.58        64.09174
514.02        64.06618
514.46        63.99873
514.90        64.10464
515.34        64.14154
515.78        64.16404
516.22        64.19795
516.66         64.2169
517.10        64.16815
517.54        64.05096
517.98        63.87445
518.42        63.72707
518.86        63.75563
519.30         63.9781
519.74        64.34382
520.18        64.71976
520.62        64.88702
521.06        64.79352
521.50        64.50894
521.93        64.14822
522.37        63.91287
522.81        63.85241
523.25        63.90503
523.69        64.01014
524.13        64.07144
524.57         64.0595
525.01        64.01784
525.45        63.95941
525.89        63.89906
526.32        63.84751
526.76        63.79959
527.20        63.77932
527.64        63.85924
528.08        64.04704
528.52        64.25443
528.96        64.42561
529.40        64.63814
529.83        64.77703
530.27        64.50446
530.71        63.97672
531.15        63.76858
531.59        63.93503
532.03        64.20856
532.46         64.4336
532.90        64.45815
533.34        64.24651
533.78        63.88171
534.22        63.51663
534.66        63.37099
535.09        63.47552
535.53        63.74947
535.97        64.10281
536.41        64.34408
536.85         64.4036
537.28        64.50876
537.72        64.60603
538.16        64.20967
538.60         63.5414
539.04        63.49696
539.47        63.98331
539.91        64.13613
540.35        63.91535
540.79         63.8468
541.22        63.90764
541.66         63.8957
542.10        63.82109
542.54        63.59089
542.97        63.27597
543.41        63.56432
543.85        63.82401
544.29        63.95951
544.72        63.79392
545.16        63.74547
545.60        63.79483
546.04          63.757
546.47        63.63541
546.91        63.45236
547.35        63.26981
547.79        63.29177
548.22        63.48038
548.66        63.58952
549.10        63.61526
549.53        63.83371
549.97        64.16731
550.41        64.28324
550.84        64.11884
551.28        63.90579
551.72        63.72919
552.15        63.41999
552.59        62.99875
553.03        63.44908
553.46        63.00417
553.90        63.10485
554.34        63.19233
554.77        63.22991
555.21         63.2345
555.65        63.30569
556.08        63.43679
556.52        63.61909
556.96        63.78544
557.39        63.71583
557.83        63.51667
558.27        63.55696
558.70        63.80387
559.14        63.96349
559.57         63.9519
560.01        63.78948
560.45        63.53116
560.88        63.41081
561.32        63.46214
561.75        63.45926
562.19        63.44143
562.63        63.44378
563.06        63.46026
563.50        63.70406
563.93        64.03534
564.37        63.82747
564.80        63.22644
565.24        63.18525
565.68        63.61153
566.11        63.73742
566.55        63.56405
566.98        63.40746
567.42        63.33308
567.85        63.59803
568.29        63.70784
568.72        63.68644
569.16        63.50686
569.60         63.4768
570.03        63.58041
570.47        63.71658
570.90        63.86382
571.34        63.59111
571.77        64.36762
572.21        63.76536
572.64        63.98286
573.08        63.53779
573.51        64.02306
573.95        63.79694
574.38        63.46098
574.82        63.11916
575.25         64.3608
575.69        64.50901
576.12        64.21113
576.56        63.66761
576.99        63.81944
577.42        64.94711
577.86        64.05195
578.29        64.54242
578.73        64.41789
579.16        64.44778
579.60        64.22009
580.03        64.06367
580.47        63.94615
580.90         64.0592
581.33        63.48377
581.77        63.96944
582.20        65.00368
582.64        64.69553
583.07        64.77782
583.51        64.21392
583.94        63.97724
584.37        63.88287
584.81         64.0882
585.24        64.05626
585.68        64.90547
586.11        63.93086
586.54        64.58791
586.98         63.8562
587.41        63.24623
587.85         63.7866
588.28        64.15073
588.71        63.88411
589.15        63.41405
589.58          64.248
590.01        63.60511
590.45        63.53088
590.88        63.78664
591.31        64.04076
591.75        64.26565
592.18        64.21781
592.61        64.11205
593.05        63.46167
593.48        64.46205
593.91        64.48899
594.35        64.38287
594.78        63.93863
595.21        63.99183
595.65        63.85012
596.08        63.62191
596.51        64.28855
596.94        63.92416
597.38        63.94104
597.81        63.74304
598.24         64.1013
598.68        63.92445
599.11        63.37476
599.54        64.53948
599.97        63.78807
600.41        64.02848
600.84        63.76351
601.27        63.91261
601.70         63.6204
602.14         63.5827
602.57        63.60133
603.00        63.75562
603.43        64.06136
603.87        63.63184
604.30         64.0202
604.73        63.80238
605.16        63.86963
605.60        63.29723
606.03        63.22692
606.46        63.43893
606.89        63.34015
607.32        63.86881
607.76        63.14012
608.19        63.69874
608.62        63.64511
609.05        63.59713
609.48        63.49139
609.92        63.60022
610.35        62.98974
610.78         64.4108
611.21        64.72421
611.64        64.41932
612.07        64.16158
612.50        63.99785
612.94        63.84652
613.37        63.75715
613.80        63.81337
614.23        63.94835
614.66        63.92553
615.09        63.77201
615.52        63.73582
615.96        63.80405
616.39        63.80285
616.82        63.76731
617.25          63.466
617.68        63.94508
618.11        63.54172
618.54        62.80468
618.97        62.73993
619.40        63.37138
619.84        63.60579
620.27         63.7365
620.70         63.9215
621.13        64.26553
621.56        63.52536
621.99        63.01935
622.42        62.96347
622.85        63.64088
623.28        63.46061
623.71        63.17408
624.14        63.21393
624.57         63.0056
625.00        63.06122
625.43        63.17439
625.86        63.24887
626.29        63.21812
626.72        63.61628
627.15        63.44773
627.58        63.52192
628.01        63.51582
628.44        63.38788
628.87         63.1967
629.30        62.94177
629.73        62.99742
630.16        63.01917
630.59        63.02083
631.02        63.02151
631.45        63.02593
631.88        63.07328
632.31        63.14116
632.74        63.38406
633.17        63.36529
633.60        63.37206
634.03        63.27906
634.46        63.10986
634.89        62.90597
635.32         62.7459
635.75        62.65829
636.18        62.61924
636.61        62.62351
637.04        62.66209
637.47        62.72718
637.89        62.80965
638.32        62.85429
638.75        62.86828
639.18        62.85288
639.61        62.56981
640.04         62.5359
640.47        62.40622
640.90        62.33501
641.33        62.47813
641.76        62.50889
642.18        62.65393
642.61        62.77692
643.04         62.8959
643.47         63.0083
643.90        63.11632
644.33        63.21469
644.76        63.30371
645.18        63.36596
645.61        63.29392
646.04        63.08164
646.47        62.90849
646.90        62.89088
647.33        62.46718
647.75        62.84287
648.18        63.01198
648.61        63.26955
649.04         63.4643
649.47        63.56581
649.89        63.68878
650.32        63.75557
650.75        63.57098
651.18        63.25119
651.61         63.0926
652.03        63.12775
652.46        63.39949
652.89        63.70847
653.32         63.4218
653.74        62.78485
654.17        62.64805
654.60        62.44615
655.03        63.44659
655.46        62.68096
655.88        62.53883
656.31        64.44948
656.74        68.30544
657.16        66.09648
657.59        63.30916
658.02        63.23709
658.45        64.19322
658.87        64.41282
659.30        63.06849
659.73        62.88171
660.15        63.18988
660.58         62.7772
661.01        62.81098
661.44        62.63644
661.86        62.51049
662.29        62.40624
662.72        62.43797
663.14        62.59753
663.57        62.52435
664.00        62.29854
664.42         62.3761
664.85        62.71445
665.27        62.79396
665.70        62.60994
666.13        62.56116
666.55        62.65993
666.98        62.66976
667.41        62.60292
667.83        62.57242
668.26        62.58077
668.69        62.62093
669.11        62.64813
669.54        62.58308
669.96        62.41991
670.39        62.19019
670.82        62.01688
671.24        62.04304
671.67        62.28545
672.09         62.7759
672.52        63.36779
672.94        63.35522
673.37        63.42478
673.80        63.06099
674.22        62.65185
674.65        62.44484
675.07        62.52282
675.50        62.78114
675.92        63.11383
676.35        63.32217
676.77        63.35598
677.20        63.28035
677.62        63.15205
678.05        63.06237
678.47        63.03805
678.90         63.0462
679.32        63.06784
679.75        63.13251
680.17        63.23789
680.60        63.30139
681.02        63.28775
681.45        63.52267
681.87        63.33543
682.30        63.29642
682.72        63.23201
683.15        63.11019
683.57        62.98771
684.00         63.0382
684.42        63.21457
684.85          63.284
685.27        63.22117
685.70        63.08257
686.12        62.91647
686.54        62.97141
686.97        63.16956
687.39        63.12226
687.82        62.83282
688.24        62.68797
688.66        62.70681
689.09         62.6513
689.51        62.54979
689.94        62.61194
690.36        62.86532
690.78        63.12288
691.21        63.23403
691.63        63.82258
692.06        63.26397
692.48        63.39683
692.90        63.69235
693.33        63.76499
693.75        63.61658
694.17         63.4116
694.60        63.20992
695.02        63.52697
695.44        63.48113
695.87        63.73495
696.29        63.95391
696.71        64.12734
697.14        64.16073
697.56        63.80806
697.98        63.26115
698.41        63.02438
698.83        63.12484
699.25        63.36383
699.68        63.60213
700.10         63.7605
700.52        63.76399
700.94        63.64706
701.37         63.4829
701.79        63.41198
702.21        63.45638
702.64        63.57417
703.06        63.70165
703.48        63.74504
703.90          63.686
704.33        63.56165
704.75        63.42694
705.17         63.3519
705.59        63.35983
706.01        63.42176
706.44        63.51318
706.86        63.62417
707.28        63.72223
707.70        63.81107
708.12        63.88188
708.55        63.91226
708.97        63.89257
709.39        63.83063
709.81        63.74558
710.23        63.69213
710.66        63.68745
711.08         63.7247
711.50        63.79325
711.92        63.89779
712.34        64.03011
712.76        64.18443
713.19        64.31096
713.61        64.38361
714.03        64.36588
714.45         64.2681
714.87        64.13567
715.29        64.03943
715.71         63.9943
716.13        63.98469
716.56        63.95882
716.98        63.89403
717.40        63.76529
717.82        63.60504
718.24        63.45874
718.66        63.39555
719.08        63.42855
719.50        63.52171
719.92        63.65683
720.34         63.8058
720.76         63.9519
721.19        64.09364
721.61        64.19333
722.03        64.18845
722.45        64.10207
722.87        63.80444
723.29        63.39303
723.71        63.45543
724.13        64.03374
724.55        63.58258
724.97        64.02323
725.39        63.98063
725.81        64.02554
726.23        63.94399
726.65        63.81891
727.07        63.83554
727.49        64.00114
727.91         64.2756
728.33         64.5731
728.75        64.75336
729.17        64.77645
729.59        64.68702
730.01        64.56369
730.43        64.52914
730.85         64.6142
731.27        64.77515
731.69        64.94904
732.10        65.04626
732.52        65.03708
732.94        64.95047
733.36        64.82269
733.78        64.71067
734.20        64.64374
734.62        64.62169
735.04        64.61874
735.46        64.59114
735.88        64.52516
736.30        64.43277
736.72        64.38132
737.13        64.43559
737.55        64.55656
737.97        64.90753
738.39         65.3497
738.81        65.22024
739.23        64.67516
739.65        64.79617
740.06        65.43859
740.48        65.53761
740.90        65.04349
741.32        64.57043
741.74        64.27399
742.16        64.12634
742.57        64.19104
742.99         64.4584
743.41        64.83196
743.83         65.1329
744.25        65.30177
744.67        65.36826
745.08        65.38517
745.50        65.40303
745.92        65.45986
746.34        65.52584
746.75        65.56458
747.17        65.54626
747.59        65.45716
748.01         65.2984
748.42        65.13403
748.84        65.04855
749.26        65.02039
749.68        65.09585
750.09        65.22501
750.51        64.99234
750.93        64.61619
751.35        65.09283
751.76        66.22145
752.18        66.65843
752.60         66.2905
753.01        65.83946
753.43        65.49087
753.85        65.26398
754.27        65.22206
754.68         65.3351
755.10        65.52816
755.52        65.63966
755.93          65.728
756.35        65.82391
756.77        65.86521
757.18        65.88043
757.60        65.91461
758.02        65.45936
758.43        64.82263
758.85        65.71642
759.26        67.41504
759.68        67.79736
760.10        66.73302
760.51        66.06918
760.93        66.04459
761.34        66.15083
761.76        66.31223
762.18         66.2461
762.59        65.98962
763.01        65.98353
763.42         66.2402
763.84        66.25868
764.26        66.08364
764.67        65.80833
765.09        65.59566
765.50        65.86653
765.92        66.44692
766.33        66.30373
766.75        65.51624
767.16        65.38634
767.58        65.97352
768.00        66.45177
768.41        66.70424
768.83        67.17152
769.24        67.64678
769.66        67.24066
770.07        66.22465
770.49        65.87997
770.90        66.22356
771.32         66.4352
771.73        66.43851
772.15        66.55165
772.56         66.7667
772.97        66.90207
773.39        66.92596
773.80        66.95094
774.22        66.94738
774.63        66.92122
775.05        66.86479
775.46        66.82418
775.88        66.79223
776.29         66.7899
776.70        66.81099
777.12        66.84155
777.53        66.89806
777.95        66.97129
778.36        67.05016
778.77        67.07972
779.19        67.05691
779.60        67.00168
780.02         66.9596
780.43        66.99923
780.84        67.13523
781.26        67.34518
781.67        67.61604
782.09        67.77084
782.50        67.82378
782.91        67.98496
783.33        68.18293
783.74        68.19891
784.15        67.98693
784.57        67.68975
784.98        67.42252
785.39         67.3153
785.81        67.40806
786.22        67.66477
786.63        67.96597
787.04        68.11107
787.46        68.07302
787.87        67.88412
788.28        67.66951
788.70        67.60922
789.11        67.71709
789.52        67.93456
789.93        68.17949
790.35        68.31104
790.76        68.32628
791.17        68.28549
791.58        68.20692
792.00        68.15552
792.41        68.19028
792.82        68.08347
793.23        67.93171
793.65        68.40789
794.06        69.34978
794.47        69.52362
794.88         68.8876
795.29        69.03743
795.71        68.70234
796.12        68.35365
796.53        67.75867
796.94         67.6149
797.35        67.95564
797.76        68.38532
798.18        68.71955
798.59        68.91677
799.00        68.87985
799.41        68.55215
799.82        68.10985
800.23        67.90554
800.64        68.01524
801.06        68.30553
801.47        68.69404
801.88        68.91784
802.29        68.89489
802.70        68.70349
803.11        68.45947
803.52        68.33855
803.93        68.39199
804.34        68.56446
804.75        68.76672
805.17        68.84311
805.58         68.7748
805.99        68.61232
806.40        68.44183
806.81         68.3438
807.22        68.36834
807.63        68.58984
808.04          68.903
808.45        68.99711
808.86         68.8116
809.27        68.48183
809.68        68.15057
810.09        68.02431
810.50        68.16486
810.91        68.50551
811.32        68.90537
811.73        69.13208
812.14        69.11433
812.55        68.91763
812.96         68.6371
813.37        68.44289
813.78        68.39893
814.19         68.4551
814.60        68.55714
815.01        68.62788
815.42        68.64464
815.83        68.63383
816.24        68.63094
816.65         68.6905
817.05        68.82577
817.46        68.97546
817.87        69.10808
818.28         69.1362
818.69        69.04282
819.10        68.84752
819.51        68.62339
819.92        68.50634
820.33        68.53209
820.74        68.65647
821.14        68.79237
821.55        68.82021
821.96        68.70715
822.37        68.51916
822.78        68.31113
823.19        68.17712
823.60        68.16446
824.00        68.25171
824.41        68.44284
824.82        68.82485
825.23        69.37719
825.64        70.05642
826.04        70.72927
826.45        71.07539
826.86        71.04729
827.27        70.72339
827.68        70.23202
828.08        69.82484
828.49        69.55489
828.90        69.38707
829.31        69.33868
829.72        69.42366
830.12        69.65259
830.53        69.98402
830.94        70.31738
831.35        70.41758
831.75        70.24143
832.16         69.7863
832.57        69.25036
832.97        68.93565
833.38        68.92021
833.79        69.12717
834.20        69.39045
834.60        69.43514
835.01        69.22482
835.42        68.86214
835.82        68.52271
836.23        68.43846
836.64        68.68877
837.04        69.20692
837.45         69.8177
837.86         70.3445
838.26        70.69966
838.67        70.86778
839.08        70.86853
839.48        70.71918
839.89        70.44607
840.29        70.03896
840.70        69.55919
841.11        69.03843
841.51        68.53345
841.92        68.07648
842.33        67.72655
842.73        67.57385
843.14            67.6
843.54        67.78796
843.95         68.1396
844.35        68.69681
844.76        69.38271
845.17        70.17165
845.57        70.89338
845.98        71.13072
846.38         70.8563
846.79        70.19912
847.19        69.40366
847.60        68.88541
848.00        68.74892
848.41        68.85213
848.81         69.1853
849.22        69.61549
849.62        70.10804
850.03        70.63677
850.43        71.04993
850.84        70.96729
851.24        70.37875
851.65        69.37223
852.05         68.2665
852.46        67.59651
852.86        67.48207
853.27        67.79099
853.67        68.28613
854.07        68.82102
854.48        69.27184
854.88        69.76306
855.29        70.08727
855.69        70.07851
856.10        69.60821
856.50        68.79842
856.90        67.91885
857.31        67.41354
857.71        67.42339
858.12        67.81624
858.52        68.46723
858.92        68.93256
859.33        69.04312
859.73        68.93392
860.13        68.73983
860.54        68.71191
860.94        68.93792
861.34        69.29597
861.75        69.57823
862.15        69.55879
862.55        69.14117
862.96        68.43959
863.36         67.6551
863.76         67.1068
864.17        66.89223
864.57        66.97889
864.97        67.19041
865.38        67.22278
865.78        67.03748
866.18        66.66943
866.58        66.35628
866.99        66.50365
867.39         67.1795
867.79        68.18883
868.19        69.11263
868.60         69.2988
869.00        68.64287
869.40        67.39243
869.80        65.94922
870.21        65.02487
870.61        64.88462
871.01        65.26893
871.41        65.99165
871.81        66.77924
872.22        67.48891
872.62        68.26385
873.02         68.9495
873.42        69.22906
873.82        69.04272
874.22        68.45766
874.63        67.80801
875.03        67.59691
875.43        67.93047
875.83        68.64022
876.23        69.48214
876.63        70.01067
877.03        70.09259
877.44        69.92399
877.84        69.53082
878.24         68.9827
878.64         68.3609
879.04        67.60664
879.44        67.00522
879.84        66.98302
880.24        67.55849
880.64        68.64168
881.04        69.69486
881.44        69.74285
881.84        68.61042
882.24        66.68462
882.65        64.73486
883.05          63.759
883.45        64.00957
883.85        65.18585
884.25        66.82591
884.65        68.06892
885.05        68.56806
885.45        68.53835
885.85        68.24509
886.25        68.10334
886.65        68.23186
887.05        68.46883
887.45        68.63381
887.85         68.4787
888.25        67.96085
888.65        67.21796
889.04        66.48074
889.44        66.09602
889.84        66.13461
890.24        66.52934
890.64        67.06094
891.04        67.36597
891.44        67.35331
891.84        67.11288
892.24        66.91405
892.64        67.17881
893.04        67.98563
893.44        69.20101
893.83        70.48373
894.23        71.17877
894.63        71.14457
895.03        70.52875
895.43        69.75054
895.83        69.47972
896.23        69.86597
896.63        70.71453
897.02        71.57103
897.42        71.70238
897.82          70.972
898.22           69.65
898.62        68.25529
899.01        67.48964
899.41        67.51814
899.81        68.15961
900.21        68.98849
900.61        69.21827
901.00        68.63892
901.40        67.58873
901.80        66.61452
902.20        66.46838
902.59         67.3055
902.99        68.84622
903.39        70.63533
903.79         71.6897
904.18        71.63959
904.58        70.83151
904.98        69.75877
905.38        69.10003
905.77        69.01419
906.17        69.30308
906.57        69.77533
906.96        70.17004
907.36        70.32767
907.76        70.35274
908.15        70.31255
908.55        70.21261
908.95        70.10278
909.34        69.96137
909.74         69.7437
910.14        69.35593
910.53        68.81806
910.93          68.214
911.33        67.74408
911.72        67.73472
912.12        68.22663
912.52        69.08237
912.91        70.06629
913.31        70.77695
913.70        71.10916
914.10        71.10571
914.49        70.86829
914.89        70.51205
915.29        70.14478
915.68         69.7544
916.08        69.39718
916.47        69.11168
916.87        68.93835
917.26        68.82438
917.66          68.841
918.05        69.06416
918.45        69.44761
918.84        70.02792
919.24        70.46076
919.64        70.27241
920.03        69.40436
920.42        68.03218
920.82        66.73518
921.21        66.19032
921.61        66.52312
922.00        67.58918
922.40        68.91939
922.79        69.74449
923.19        69.76579
923.58        69.22201
923.98        68.56403
924.37        68.43325
924.77        68.97982
925.16        70.01018
925.55        71.14651
925.95        71.71409
926.34        71.53851
926.74        70.81161
927.13        69.88095
927.52        69.25404
927.92        69.06709
928.31        69.16444
928.70        69.34164
929.10        69.24696
929.49        68.82619
929.89         68.2458
930.28         67.7177
930.67        67.51921
931.07        67.71309
931.46        68.18495
931.85          68.867
932.24        69.68373
932.64        70.52972
933.03        71.47974
933.42        72.28583
933.82        72.57274
934.21        72.30904
934.60        71.56834
934.99        70.75495
935.39        70.47513
935.78        70.84409
936.17        71.68366
936.56        72.61732
936.96        72.99537
937.35        72.68468
937.74        71.88804
938.13        70.85365
938.53        69.96429
938.92        69.37277
939.31        69.05203
939.70        69.01729
940.09         69.3102
940.49        69.83662
940.88        70.53579
941.27        71.39319
941.66         72.3728
942.05        73.34917
942.44         74.3186
942.84        74.72195
943.23        73.68984
943.62         71.3112
944.01        68.10897
944.40        65.20608
944.79        64.00591
945.18        64.69186
945.57         66.9013
945.97        69.80125
946.36        71.91145
946.75        72.44359
947.14        71.80877
947.53        70.62116
947.92        69.92076
948.31        70.01969
948.70        70.49747
949.09        71.15217
949.48         71.7047
949.87        72.00573
950.26        72.23995
950.65        72.25092
951.04        71.72182
951.43        70.68036
951.82         69.2444
952.21        67.84769
952.60        67.16076
952.99        67.30774
953.38        68.09708
953.77        69.13327
954.16        69.71438
954.55        69.60656
954.94        68.99328
955.33        68.14255
955.72        67.50204
956.11        67.23366
956.50         67.2262
956.89        67.33408
957.28        67.33237
957.66        67.17152
958.05        66.91972
958.44        66.78077
958.83        67.04664
959.22        67.75349
959.61        68.77983
960.00        69.79089
960.39        70.22491
960.78        69.93032
961.16        69.07373
961.55        68.01922
961.94        67.33045
962.33        67.18049
962.72        67.43349
963.11        67.89195
963.49         68.2426
963.88        68.34322
964.27        68.31973
964.66        68.30807
965.04        68.53989
965.43        69.00185
965.82        69.60671
966.21        70.18546
966.60        70.49255
966.98         70.4797
967.37        70.21131
967.76        69.81888
968.15        69.50016
968.53        69.34293
968.92        69.24348
969.31        69.21726
969.69        69.27135
970.08         69.3532
970.47        69.49619
970.86        69.60022
971.24         69.4837
971.63        69.13916
972.02        68.69188
972.40        68.32961
972.79        68.32999
973.17        68.83031
973.56        69.61507
973.95        70.70224
974.33         72.1633
974.72        73.85358
975.11        75.77536
975.49        77.54575
975.88        78.23025
976.26        77.58596
976.65        75.83435
977.04        73.57138
977.42        71.58163
977.81        70.13766
978.19        69.05212
978.58        68.28468
978.96        67.55699
979.35        66.81479
979.74        66.10928
980.12        65.58892
980.51        65.34396
980.89        65.47675
981.28        65.96823
981.66        66.54519
982.05        66.68548
982.43        66.31718
982.82        65.50961
983.20        64.94346
983.59        65.70075
983.97        68.02743
984.35        71.63557
984.74        75.28543
985.12        76.88518
985.51         75.6602
985.89        72.46078
986.28        68.73987
986.66        66.18867
987.04        65.31966
987.43        65.51779
987.81        66.56025
988.20        67.84241
988.58        69.07619
988.96         70.5127
989.35        71.59388
989.73         71.5294
990.12        70.23932
990.50        67.86155
990.88        65.48102
991.27        64.76118
991.65        66.04459
992.03        69.08413
992.42        72.54684
992.80        73.89408
993.18         72.0976
993.56        68.28272
993.95        64.39265
994.33        62.33737
994.71         62.5528
995.10        64.34515
995.48        67.10017
995.86        68.97855
996.24        69.15366
996.63        68.34832
997.01        67.22203
997.39        66.62512
997.77        66.80904
998.15         67.2916
998.54        68.21439
998.92        69.95026
999.30        72.41521
999.68        75.63432
1000.06        78.41882
1000.45        78.55376
1000.83        75.84253
1001.21        71.04436
1001.59        66.13225
1001.97        63.75501
1002.35         64.3992
1002.73        67.38289
1003.12        71.49165
1003.50        74.45584
1003.88        75.30901
1004.26        74.69048
1004.64        73.39172
1005.02        72.72992
1005.40        73.05612
1005.78        73.74822
1006.16         74.4149
1006.54        74.50195
1006.92        73.81432
1007.30        72.74416
1007.69        71.20619
1008.07        69.17554
1008.45         66.9738
1008.83         64.7636
1009.21        63.27595
1009.59        63.28456
1009.97        64.79755
1010.35        67.81934
1010.73         71.4171
1011.11        73.22089
1011.49        72.17847
1011.86        68.63496
1012.24        64.69103
1012.62        63.59156
1013.00        66.29669
1013.38        72.55477
1013.76        80.26358
1014.14        83.50866
1014.52        80.37759
1014.90        73.83723
1015.28        67.67732
1015.66        65.21986
1016.04        66.67589
1016.41        71.43226
1016.79        78.15484
1017.17        83.67704
1017.55        85.60056
1017.93        84.34003
1018.31        80.75235
1018.69        77.26881
1019.06        75.01004
1019.44        73.61892
1019.82        72.57447
1020.20        71.34119
1020.58        69.73203
1020.95        68.05624
1021.33        66.41198
1021.71        65.31084
1022.09        65.09651
1022.46        65.32072
1022.84         66.1739
1023.22        67.80292
1023.60        70.30458
1023.97        74.25935
1024.35        78.20109
1024.73        78.10472
