SpectraSmart Spectrum 2.9.0.0
--------- Device Information -----------
Spectrum Name :  反射率_0
Saving Time :  2024/04/26 21:28:54
Spectro-Module Model Name : SE2030-DUVN
Spectro-Module Serial Number : OS361AC55029948
Wavelength Start : 200
Wavelength End : 1025
Wavelength Unit : Wavelength(nm)
Spectrum Unit : Reflectance(%)
-----------Spectrum Setting ------------
Integration Time : 20ms
Average : 10
Boxcar : 0
Background removal :  enabled
linearity correction :  enabled
SC :  disabled
Intensity correction :  disabled
DWT denoise :  enabled
savitzky-golay :  disabled
FFT :  disabled
Running average :  disabled
Kalman :  disabled
High pass :  disabled
---------------BEGIN--------------------
Wavelength(nm)             Reflectance(%)
200.29               0
200.75        40.19539
201.21        39.64168
201.67        38.83792
202.13        37.79184
202.58        36.38472
203.04        34.74206
203.50        33.02408
203.96        31.94704
204.42         32.1764
204.88        33.70002
205.34        36.18836
205.80        38.74741
206.26        40.56561
206.72        41.34409
207.18         41.2492
207.64        40.47004
208.10        39.06086
208.55        37.22172
209.01        33.84945
209.47        29.21025
209.93        25.68683
210.39        23.96852
210.85        24.16979
211.31        26.50597
211.77        31.90888
212.23        44.58917
212.69        75.90165
213.14        126.0154
213.60        119.0486
214.06        79.61246
214.52        54.91758
214.98        45.96456
215.44        44.65919
215.90        46.21957
216.36        49.04267
216.81        51.02541
217.27        51.71883
217.73        52.95429
218.19        53.39948
218.65        49.02258
219.11        41.81061
219.57        35.15192
220.02        32.66033
220.48        36.70035
220.94        47.46656
221.40         67.1175
221.86         95.2636
222.32        113.7877
222.77        107.0411
223.23        86.97774
223.69        67.39901
224.15        56.28356
224.61         52.1316
225.06        50.96309
225.52        51.61502
225.98        52.94904
226.44        54.50183
226.90        56.74165
227.36        58.72736
227.81        58.63967
228.27        56.53024
228.73        53.06539
229.19        49.84426
229.65        48.72643
230.10         49.7665
230.56        52.34436
231.02        55.23032
231.48        56.46274
231.93         55.6087
232.39        53.67664
232.85        51.69086
233.31        51.01163
233.77        51.78568
234.22        53.53676
234.68        55.49901
235.14        56.61518
235.60         56.5577
236.05        55.63662
236.51         54.2847
236.97         53.4753
237.43        53.62585
237.88        54.54665
238.34        55.71862
238.80        56.51994
239.26         56.7542
239.71        56.83378
240.17        56.81322
240.63        57.56273
241.08        59.72267
241.54        62.80627
242.00        66.85303
242.46        72.12292
242.91        79.55746
243.37        89.83987
243.83        103.4237
244.28        115.1096
244.74        116.0275
245.20         105.689
245.66        91.47023
246.11        79.72189
246.57        71.23271
247.03        64.04236
247.48        58.44296
247.94        55.65458
248.40        55.63141
248.85        57.20382
249.31        58.76892
249.77        58.57323
250.22        56.30872
250.68        51.74787
251.14        45.97323
251.59        43.49531
252.05        46.84866
252.51        54.11449
252.96        60.31605
253.42        61.31028
253.88        57.89316
254.33        52.10902
254.79        48.00904
255.25        48.88398
255.70        54.23576
256.16        62.38745
256.62        69.49802
257.07        69.92076
257.53        65.07629
257.99        58.62537
258.44         53.2704
258.90        51.29695
259.35        51.68079
259.81        53.45072
260.27        55.27684
260.72        55.63635
261.18        54.64557
261.63        52.76494
262.09        51.03772
262.55        50.08842
263.00        49.80219
263.46        49.97408
263.91        49.90803
264.37        49.01252
264.83          47.308
265.28         45.1516
265.74        43.26368
266.19        42.25761
266.65        42.23818
267.11        42.83533
267.56        43.64468
268.02        44.02369
268.47        43.77641
268.93        43.14277
269.38         42.2387
269.84        41.30062
270.30        40.41539
270.75        39.48393
271.21        38.64759
271.66        38.08363
272.12        37.79975
272.57         37.7322
273.03        37.65292
273.48         37.1639
273.94        36.25417
274.39        35.05243
274.85        33.85125
275.31        32.92263
275.76        32.31051
276.22        31.94475
276.67        31.71232
277.13        31.53995
277.58        31.33305
278.04        31.13373
278.49        30.86247
278.95        30.51192
279.40        30.03523
279.86        29.50552
280.31        28.89927
280.77        28.29248
281.22        27.67929
281.68        27.11369
282.13        26.61367
282.59        26.27555
283.04        26.07363
283.50         25.9987
283.95        25.97322
284.41        25.88634
284.86        25.70384
285.32        25.46896
285.77         25.2231
286.22        25.08539
286.68        25.06734
287.13        25.09516
287.59        25.10665
288.04         24.9673
288.50        24.68114
288.95        24.28187
289.41        23.86056
289.86        23.48656
290.32        23.21695
290.77         23.0193
291.22        22.89775
291.68        22.84281
292.13        22.84043
292.59        22.91339
293.04        23.05457
293.50        23.26867
293.95        23.54083
294.40         23.8596
294.86        24.21776
295.31        24.60184
295.77        25.00897
296.22        25.43155
296.68        25.85613
297.13        26.25173
297.58        26.62073
298.04        26.97069
298.49         27.3335
298.95        27.77566
299.40        28.29555
299.85        28.87005
300.31        29.44008
300.76         29.9066
301.21        30.25163
301.67        30.51844
302.12        30.73814
302.58        31.01323
303.03        31.34062
303.48        31.70415
303.94        32.07833
304.39        32.39581
304.84        32.65181
305.30        32.87653
305.75        33.06178
306.20        33.24577
306.66        33.44116
307.11        33.61663
307.57        33.77092
308.02        33.86041
308.47        33.88842
308.93        33.87629
309.38        33.82765
309.83        33.79216
310.29        33.78006
310.74        33.77372
311.19        33.74969
311.65        33.66529
312.10        33.50853
312.55        33.29528
313.00        33.06516
313.46        32.87266
313.91         32.7181
314.36        32.59638
314.82        32.46682
315.27        32.27532
315.72        32.01066
316.18        31.70036
316.63        31.38827
317.08         31.1551
317.53        31.01267
317.99        30.92793
318.44        30.84921
318.89        30.68297
319.35        30.40632
319.80        30.04815
320.25        29.65702
320.70        29.31013
321.16        29.02998
321.61        28.80791
322.06        28.60953
322.51        28.38117
322.97        28.10598
323.42        27.80395
323.87        27.52017
324.32        27.32999
324.78        27.23361
325.23        27.21703
325.68        27.18583
326.13        26.99335
326.59        26.61091
327.04        26.10137
327.49        25.57133
327.94        25.18699
328.39        24.98646
328.85        24.91011
329.30        24.90982
329.75        24.84965
330.20        24.68495
330.66        24.45225
331.11        24.19595
331.56        23.96482
332.01         23.7753
332.46        23.59937
332.92        23.41579
333.37        23.23716
333.82        23.04975
334.27        22.86551
334.72        22.68347
335.17        22.49265
335.63         22.2957
336.08        22.11663
336.53        21.96568
336.98        21.86708
337.43        21.82566
337.88        21.82176
338.34        21.85981
338.79        21.96977
339.24        22.13048
339.69        22.32553
340.14        22.47091
340.59        22.43746
341.05        22.21491
341.50        21.84717
341.95        21.44679
342.40        21.18785
342.85        21.11294
343.30        21.16881
343.75        21.28687
344.20        21.35149
344.66        21.32642
345.11        21.24915
345.56        21.13249
346.01        20.99549
346.46        20.85642
346.91        20.70834
347.36        20.57947
347.81         20.5199
348.26        20.53562
348.72        20.61314
349.17        20.71291
349.62        20.78023
350.07        20.79482
350.52        20.76696
350.97        20.70207
351.42        20.61398
351.87        20.51177
352.32        20.39352
352.77        20.26843
353.22        20.14781
353.67        20.03632
354.13        19.93981
354.58        19.85505
355.03        19.78012
355.48        19.71424
355.93        19.65406
356.38        19.60612
356.83        19.58071
357.28        19.57172
357.73        19.56838
358.18         19.5409
358.63        19.44466
359.08        19.27458
359.53        19.05094
359.98        18.80814
360.43        18.59481
360.88        18.42519
361.33         18.2885
361.78        18.17517
362.23         18.0689
362.68        17.96403
363.13        17.86636
363.58        17.77358
364.03        17.68057
364.48        17.58252
364.93        17.47304
365.38        17.35364
365.83        17.23023
366.28        17.10647
366.73         16.9871
367.18        16.86234
367.63        16.71593
368.08        16.54802
368.53        16.36256
368.98        16.19068
369.43        16.08116
369.88        16.03883
370.33        16.04682
370.78        16.05434
371.23        15.97692
371.68        15.79758
372.13        15.54745
372.58        15.28057
373.03        15.08316
373.48        14.97945
373.93        14.94035
374.38        14.94063
374.83        14.93976
375.28        14.91701
375.72        14.87773
376.17        14.82119
376.62        14.72489
377.07         14.5919
377.52        14.43161
377.97        14.26473
378.42        14.13156
378.87        14.04387
379.32        13.98569
379.77        13.95859
380.22        13.96157
380.67        13.98539
381.11        14.03592
381.56        14.05956
382.01         13.9816
382.46        13.79614
382.91        13.53329
383.36        13.27631
383.81        13.14041
384.26        13.14347
384.71         13.2546
385.15        13.39882
385.60        13.45243
386.05        13.38329
386.50        13.23253
386.95        13.07183
387.40        13.01177
387.85        13.06999
388.29        13.18765
388.74        13.31884
389.19        13.37666
389.64         13.3414
390.09        13.23903
390.54        13.09603
390.98        12.95208
391.43          12.836
391.88        12.73994
392.33        12.65617
392.78        12.57249
393.23        12.48863
393.67        12.40735
394.12        12.35777
394.57        12.35417
395.02        12.39626
395.47        12.47124
395.91        12.55461
396.36         12.5972
396.81        12.59249
397.26        12.55282
397.71        12.49692
398.15        12.46233
398.60        12.47133
399.05         12.4591
399.50          12.428
399.95        12.47368
400.39        12.55335
400.84        12.45097
401.29        12.20334
401.74        12.06218
402.18        12.05371
402.63        12.04398
403.08        12.02936
403.53        12.05792
403.97        12.12328
404.42        12.20922
404.87        12.29303
405.32        12.33663
405.76        12.32749
406.21         12.2795
406.66        12.21248
407.11        12.16192
407.55        12.14103
408.00         12.1352
408.45        12.13064
408.90        12.09732
409.34        12.02983
409.79        11.94486
410.24        11.86385
410.68         11.8092
411.13        11.78915
411.58         11.7947
412.03        11.81084
412.47        11.81353
412.92        11.79187
413.37        11.75721
413.81        11.72198
414.26        11.71375
414.71        11.73341
415.15        11.77467
415.60        11.82047
416.05        11.84991
416.49        11.85616
416.94        11.84422
417.39        11.82365
417.83        11.80888
418.28        11.80242
418.73        11.79632
419.17        11.78882
419.62        11.77815
420.07        11.76249
420.51        11.74124
420.96        11.70954
421.41        11.65678
421.85        11.58044
422.30        11.48505
422.74        11.38102
423.19        11.33449
423.64        11.33285
424.08        11.30391
424.53        11.24707
424.98        11.25087
425.42        11.32326
425.87        11.38187
426.31        11.42165
426.76        11.52123
427.21        11.64072
427.65        11.61667
428.10        11.47844
428.54        11.39607
428.99        11.38896
429.44        11.40815
429.88        11.42616
430.33        11.35697
430.77        11.23572
431.22        11.27062
431.66        11.43804
432.11        11.49832
432.56        11.44073
433.00        11.42946
433.45        11.42791
433.89        11.29579
434.34        11.12691
434.78         10.8605
435.23        11.10392
435.67         11.1315
436.12        11.09412
436.57        11.02679
437.01        10.95236
437.46        10.91305
437.90        10.91128
438.35        10.90388
438.79        10.88385
439.24        10.87812
439.68        10.88563
440.13         10.8956
440.57        10.90762
441.02        10.93233
441.46        10.96635
441.91        10.97668
442.35        10.95566
442.80        11.00137
443.24        11.06619
443.69        10.96775
444.13        10.75449
444.58        10.67552
445.02        10.74531
445.47        10.83994
445.91        10.91629
446.36         10.9594
446.80        10.95216
447.24        10.90394
447.69         10.8365
448.13        10.77847
448.58        10.74371
449.02        10.72133
449.47        10.71268
449.91        10.71583
450.36        10.72931
450.80        10.75166
451.25        10.77545
451.69        10.78174
452.13        10.76745
452.58        10.73545
453.02        10.69205
453.47        10.65069
453.91        10.61684
454.36        10.59026
454.80        10.56708
455.24        10.53887
455.69        10.50792
456.13        10.46967
456.58        10.44286
457.02        10.43747
457.46          10.458
457.91        10.49669
458.35        10.52646
458.79        10.50608
459.24         10.4408
459.68        10.34141
460.13        10.24961
460.57        10.19854
461.01        10.20584
461.46        10.24844
461.90        10.31987
462.34        10.39843
462.79        10.46705
463.23        10.53195
463.68        10.56905
464.12        10.54716
464.56        10.46522
465.01        10.35315
465.45        10.22805
465.89        10.14117
466.34        10.10154
466.78        10.09276
467.22        10.11428
467.67        10.15359
468.11        10.20734
468.55          10.273
468.99        10.33229
469.44        10.35464
469.88        10.33452
470.32        10.27779
470.77        10.20865
471.21        10.17128
471.65        10.17628
472.10        10.21517
472.54        10.26524
472.98        10.29424
473.42        10.29388
473.87        10.27756
474.31        10.25606
474.75        10.25588
475.20        10.28361
475.64        10.32408
476.08        10.36474
476.52        10.38145
476.97         10.3702
477.41        10.34652
477.85        10.32461
478.29        10.31171
478.74         10.3219
479.18        10.37364
479.62        10.45355
480.06        10.52318
480.50        10.57578
480.95         10.6152
481.39        10.62889
481.83        10.70082
482.27        10.67406
482.72        10.68163
483.16        10.69583
483.60        10.71087
484.04        10.71079
484.48        10.82123
484.93        11.05826
485.37        11.00669
485.81        10.99119
486.25        11.51896
486.69         11.0302
487.14        11.28856
487.58        11.84896
488.02        11.65799
488.46        11.49285
488.90        11.51945
489.34        11.37223
489.79        11.51824
490.23        11.70069
490.67        11.91418
491.11        12.08245
491.55        12.10157
491.99        12.01265
492.43        12.00264
492.88        12.09258
493.32        12.15722
493.76        12.19558
494.20        12.27977
494.64        12.41463
495.08        12.55466
495.52        12.68232
495.96         12.8525
496.41        13.02954
496.85        13.02515
497.29        12.88953
497.73        13.00291
498.17        13.18372
498.61        13.33454
499.05        13.37659
499.49        13.43344
499.93        13.47771
500.37        13.58545
500.82        13.72764
501.26        13.81815
501.70        13.84952
502.14        13.87462
502.58         13.9227
503.02        14.01284
503.46        14.14932
503.90        14.32457
504.34        14.49516
504.78        14.58798
505.22        14.58804
505.66        14.52051
506.10        14.43189
506.54        14.39698
506.98        14.43707
507.42         14.5295
507.86        14.65189
508.30        14.76592
508.74        14.85607
509.18        14.93493
509.62        15.00001
510.06        15.04691
510.50        15.07694
510.94         15.0863
511.38        15.09002
511.82        15.11494
512.26         15.1672
512.70        15.24347
513.14        15.32213
513.58        15.36654
514.02        15.36853
514.46        15.33608
514.90        15.29916
515.34        15.30621
515.78        15.36572
516.22        15.46222
516.66        15.55412
517.10        15.57545
517.54          15.514
517.98        15.39349
518.42        15.26107
518.86        15.19117
519.30        15.20224
519.74        15.27014
520.18        15.35812
520.62        15.40822
521.06        15.40415
521.50        15.36471
521.93          15.311
522.37        15.27114
522.81        15.25666
523.25        15.25352
523.69        15.25279
524.13        15.24311
524.57        15.21955
525.01        15.18739
525.45        15.14529
525.89         15.0899
526.32        15.02126
526.76         14.9441
527.20        14.86537
527.64        14.79763
528.08        14.74407
528.52        14.70252
528.96        14.66702
529.40        14.62704
529.83        14.57987
530.27        14.52925
530.71        14.47899
531.15        14.43692
531.59        14.40476
532.03        14.37792
532.46        14.35067
532.90        14.32499
533.34        14.29736
533.78        14.26148
534.22        14.21745
534.66         14.1819
535.09        14.14748
535.53        14.08479
535.97         14.0068
536.41         13.9705
536.85        13.98168
537.28         14.0097
537.72        14.05461
538.16        14.12591
538.60        14.21611
539.04        14.31882
539.47        14.40709
539.91        14.44994
540.35        14.44193
540.79        14.39754
541.22        14.34682
541.66        14.34371
542.10        14.40033
542.54        14.50165
542.97        14.62847
543.41        14.75461
543.85        14.86784
544.29        14.97811
544.72         15.0821
545.16        15.18547
545.60        15.28846
546.04        15.39039
546.47         15.5015
546.91         15.6369
547.35        15.79518
547.79        15.96953
548.22        16.14463
548.66        16.29391
549.10        16.43114
549.53        16.55636
549.97        16.67558
550.41        16.75977
550.84        16.83054
551.28        16.93479
551.72        17.06251
552.15        17.21102
552.59        17.39976
553.03        17.37324
553.46        17.65142
553.90        17.77621
554.34         17.8979
554.77        18.01497
555.21        18.13541
555.65        18.25652
556.08        18.36984
556.52        18.46657
556.96        18.53822
557.39        18.62353
557.83        18.70921
558.27        18.69046
558.70        18.60283
559.14        18.61408
559.57        18.72341
560.01        18.83066
560.45        18.91278
560.88        18.99308
561.32        19.07501
561.75        19.13199
562.19        19.18235
562.63        19.25138
563.06        19.33952
563.50        19.43975
563.93        19.52446
564.37        19.60136
564.80        19.67487
565.24        19.70025
565.68           19.65
566.11        19.90721
566.55        19.76346
566.98        19.81081
567.42        19.87428
567.85        19.98968
568.29        20.16442
568.72        20.39979
569.16        20.68527
569.60        20.88441
570.03        21.06155
570.47        21.21581
570.90         21.3859
571.34        21.41994
571.77        21.65791
572.21        21.83478
572.64         22.0116
573.08        22.17027
573.51        22.32988
573.95        22.41494
574.38        22.47448
574.82        22.70979
575.25        22.63263
575.69         22.7596
576.12        22.89694
576.56        22.93588
576.99        22.97602
577.42        22.72341
577.86         23.0631
578.29        23.29989
578.73        23.26376
579.16        23.15601
579.60        22.85662
580.03        22.81911
580.47        22.76029
580.90        22.79015
581.33        22.75989
581.77        22.76128
582.20         22.4468
582.64        22.60317
583.07         22.5584
583.51        22.40913
583.94        22.04528
584.37        21.83751
584.81        21.62748
585.24        21.57797
585.68         21.6214
586.11        21.44062
586.54        21.50864
586.98        21.32968
587.41        21.12127
587.85        20.92455
588.28         20.7699
588.71        21.00397
589.15        20.92278
589.58        20.76937
590.01        20.89002
590.45        20.89202
590.88        20.93104
591.31        20.79817
591.75        20.58739
592.18        20.57536
592.61        20.75275
593.05        20.95562
593.48        21.24502
593.91        20.99829
594.35        21.16768
594.78        21.05468
595.21        20.99117
595.65        21.14705
596.08         21.5418
596.51        21.75495
596.94        21.69874
597.38        21.85179
597.81         22.1986
598.24        22.43226
598.68         22.5911
599.11        22.96308
599.54        23.38781
599.97        23.52731
600.41        23.94514
600.84        24.08624
601.27        24.48608
601.70        24.82232
602.14        25.17139
602.57        25.50592
603.00        25.90421
603.43        26.06778
603.87        26.95349
604.30        27.39827
604.73         27.7469
605.16        27.82864
605.60        28.40144
606.03        28.64237
606.46        28.75962
606.89        29.37816
607.32        30.28825
607.76        30.50115
608.19        31.03303
608.62        31.41992
609.05        31.74618
609.48        32.06564
609.92        32.75009
610.35        33.09635
610.78        33.04325
611.21        33.48953
611.64        33.84909
612.07        34.37094
612.50        34.66802
612.94        35.00463
613.37        35.30581
613.80         35.5037
614.23         35.4425
614.66        35.74662
615.09         36.3291
615.52        36.78387
615.96        37.04219
616.39        37.36436
616.82        37.76329
617.25         37.8191
617.68        37.97227
618.11        38.25829
618.54        38.75114
618.97        39.04338
619.40         39.1218
619.84          39.397
620.27        39.51248
620.70        39.75745
621.13        39.96775
621.56        39.89796
621.99        39.61551
622.42        39.60452
622.85        39.89975
623.28        39.96429
623.71        39.96009
624.14        40.26237
624.57        40.58229
625.00        40.46663
625.43        40.51251
625.86        40.33105
626.29        40.22105
626.72        39.68118
627.15        39.77964
627.58         39.6217
628.01        39.44076
628.44        39.29517
628.87        38.98574
629.30        38.59201
629.73        38.06691
630.16        37.98209
630.59        37.51259
631.02        37.29824
631.45        37.06076
631.88         36.7718
632.31        36.40743
632.74        35.99199
633.17        35.53116
633.60         35.0107
634.03        34.44368
634.46        33.83659
634.89        33.22755
635.32        32.68523
635.75        32.22764
636.18        31.80634
636.61        31.40528
637.04        31.01068
637.47         30.6074
637.89         30.1944
638.32        29.76415
638.75        29.33963
639.18        28.93268
639.61        28.54088
640.04        28.17766
640.47        27.86008
640.90        27.58949
641.33        27.36627
641.76        27.17486
642.18        26.99146
642.61        26.80526
643.04         26.6269
643.47        26.48126
643.90        26.40859
644.33        26.41452
644.76        26.48478
645.18        26.58788
645.61        26.66608
646.04        26.71148
646.47        26.74754
646.90        26.80623
647.33        26.93541
647.75        27.13948
648.18        27.42291
648.61        27.79103
649.04        28.16044
649.47        28.49001
649.89        29.20883
650.32        29.52784
650.75        30.01468
651.18        30.45676
651.61        30.96602
652.03         31.5912
652.46        32.26662
652.89        32.95071
653.32        33.68399
653.74        34.51632
654.17        34.61635
654.60        35.41495
655.03        35.81001
655.46         35.9338
655.88        36.54034
656.31        38.41208
656.74         39.7629
657.16        42.79123
657.59        45.63056
658.02        41.96347
658.45        41.46936
658.87        41.57187
659.30        42.35357
659.73        42.52172
660.15        43.52064
660.58        43.39796
661.01        43.75814
661.44        44.19235
661.86        44.49475
662.29        44.67382
662.72        45.48568
663.14          45.991
663.57        46.33127
664.00        46.33816
664.42        46.63306
664.85        47.25396
665.27        47.90439
665.70        48.39479
666.13        48.75041
666.55        48.92997
666.98        48.89954
667.41        48.76194
667.83        49.00153
668.26        49.15358
668.69         49.5773
669.11        50.05563
669.54        50.47133
669.96        50.79051
670.39        51.06398
670.82        51.29517
671.24         51.4561
671.67        51.60088
672.09        51.62508
672.52        51.93545
672.94        52.14977
673.37        52.36348
673.80        52.53794
674.22        52.68351
674.65        52.82817
675.07         52.9827
675.50        53.10124
675.92         53.1882
676.35        53.29008
676.77        53.41907
677.20        53.50763
677.62        53.58892
678.05        53.82623
678.47        54.13914
678.90        54.31039
679.32        54.37075
679.75        54.39574
680.17        54.33959
680.60        54.96634
681.02        54.70379
681.45        54.87903
681.87        55.02797
682.30        55.29385
682.72        55.48512
683.15         55.5549
683.57        55.52068
684.00        55.60604
684.42        55.83014
684.85        56.02953
685.27        56.19538
685.70         56.4411
686.12        56.70309
686.54        56.85187
686.97        56.87134
687.39         56.7693
687.82        56.61003
688.24        56.61673
688.66        56.77208
689.09        56.81014
689.51        56.75648
689.94        56.82898
690.36        57.03741
690.78        57.23893
691.21        57.40191
691.63        57.54245
692.06         57.6429
692.48        57.67337
692.90        57.66512
693.33        57.68002
693.75        57.72223
694.17        57.81375
694.60        57.95388
695.02        57.95513
695.44        57.87099
695.87        58.18625
696.29        58.77357
696.71        58.72505
697.14        58.16703
697.56        58.13432
697.98        58.61748
698.41        58.84991
698.83        58.80781
699.25        58.94802
699.68        59.21493
700.10        59.36194
700.52        59.34838
700.94        59.25109
701.37         59.1394
701.79        59.13667
702.21        59.26574
702.64        59.47104
703.06        59.69893
703.48        59.84874
703.90        59.89051
704.33        59.85865
704.75        59.78595
705.17        59.71614
705.59        59.67503
706.01         59.6521
706.44        59.66327
706.86         59.7481
707.28        59.89733
707.70        60.10775
708.12        60.35243
708.55        60.55612
708.97        60.71178
709.39        60.86376
709.81        61.00215
710.23        61.08944
710.66        61.12186
711.08        61.13355
711.50         61.1179
711.92        61.07698
712.34         61.0234
712.76        60.96894
713.19         60.9283
713.61        60.95729
714.03        61.05035
714.45        61.19757
714.87        61.37904
715.29        61.56125
715.71        61.72446
716.13         61.8726
716.56        61.99715
716.98        62.09073
717.40        62.11654
717.82        62.23253
718.24        62.43372
718.66        62.02964
719.08        62.03931
719.50        61.75182
719.92        61.53874
720.34        61.40195
720.76        61.40522
721.19        61.62816
721.61        62.02548
722.03        62.38645
722.45        62.65395
722.87        62.82239
723.29        63.01976
723.71        62.96595
724.13        62.71857
724.55        62.33409
724.97        61.91866
725.39         61.6959
725.81         61.7179
726.23        61.91507
726.65         62.2047
727.07        62.58583
727.49        62.78242
727.91        62.99955
728.33        63.18932
728.75         63.3926
729.17        63.60901
729.59        63.80582
730.01        63.93737
730.43        63.96807
730.85        63.90054
731.27        63.70618
731.69        63.43634
732.10        63.42737
732.52         63.3162
732.94        63.32233
733.36        63.34255
733.78        63.32709
734.20        63.26699
734.62        63.37852
735.04        63.69181
735.46        63.20345
735.88        63.83244
736.30        63.49658
736.72         63.6748
737.13        64.00423
737.55        64.54953
737.97        64.78046
738.39         64.6218
738.81        64.13359
739.23        63.58833
739.65        63.74755
740.06        64.41721
740.48        64.78218
740.90        64.82288
741.32        64.17728
741.74        64.65554
742.16        64.63828
742.57        64.66222
742.99        64.73051
743.41        64.81917
743.83        64.83166
744.25         64.7407
744.67        64.58094
745.08          64.421
745.50        64.35696
745.92        64.41559
746.34        64.55058
746.75        64.70057
747.17        64.75127
747.59        64.69002
748.01         64.5806
748.42        64.44762
748.84        64.34654
749.26        64.32736
749.68        64.27681
750.09        64.24339
750.51        64.60203
750.93        65.14117
751.35        65.08991
751.76        64.55147
752.18        64.15347
752.60        64.21304
753.01        64.37234
753.43        64.11195
753.85        64.07189
754.27        64.06727
754.68        64.46599
755.10        64.62457
755.52        64.67398
755.93         64.6815
756.35        64.64574
756.77        64.73056
757.18        64.89732
757.60        65.17593
758.02        65.73991
758.43        66.25906
758.85        66.21786
759.26        65.37124
759.68        64.66061
760.10        64.26799
760.51        64.87566
760.93         65.6772
761.34        65.31879
761.76        65.75544
762.18        65.52467
762.59        65.43067
763.01        65.54047
763.42        65.87025
763.84        65.97513
764.26         65.8363
764.67        65.63522
765.09        65.51572
765.50        65.65773
765.92        65.99699
766.33        66.07718
766.75        65.80598
767.16        65.56159
767.58        65.38246
768.00        65.15166
768.41        65.03753
768.83        65.29334
769.24        65.74512
769.66        66.18816
770.07        66.54327
770.49        65.66544
770.90        65.48385
771.32        65.67496
771.73        66.59436
772.15        66.90094
772.56        66.54817
772.97        66.22493
773.39        66.06108
773.80        66.07125
774.22        66.23044
774.63        66.35311
775.05         66.4258
775.46        66.44986
775.88        66.40733
776.29        66.22514
776.70        66.00991
777.12        66.02366
777.53        66.30922
777.95        66.73565
778.36        67.17591
778.77        67.38393
779.19        67.32318
779.60         67.1065
780.02        66.80056
780.43        66.61805
780.84        66.65202
781.26        66.46735
781.67        66.22274
782.09        67.03868
782.50        68.47965
782.91        68.46521
783.33        67.19247
783.74        66.72995
784.15        67.17188
784.57        67.56666
784.98        67.75983
785.39        67.34324
785.81        66.78199
786.22        67.11626
786.63        68.21669
787.04        68.62592
787.46        68.25836
787.87        67.87432
788.28        67.68423
788.70        67.60162
789.11        67.65026
789.52         68.0633
789.93        68.59339
790.35        68.42629
790.76        67.69553
791.17        67.35568
791.58        67.53886
792.00        67.72343
792.41        67.80765
792.82        68.02727
793.23        68.19567
793.65        67.71662
794.06         67.0046
794.47        67.16084
794.88        67.84022
795.29        69.49911
795.71        68.28407
796.12        68.18505
796.53         68.5201
796.94        68.19566
797.35        67.50022
797.76         67.6144
798.18        68.46011
798.59        68.86149
799.00        68.70839
799.41        68.64196
799.82        68.70543
800.23        68.68858
800.64        68.60229
801.06        68.45979
801.47        68.33286
801.88        68.26456
802.29         68.2624
802.70        68.30157
803.11        68.33781
803.52        68.30042
803.93         68.2009
804.34        68.08291
804.75        67.98306
805.17        68.07127
805.58        68.42693
805.99        68.58958
806.40        68.61807
806.81        69.55083
807.22        70.92587
807.63        70.58994
808.04        68.85478
808.45         68.1133
808.86        68.56825
809.27        68.93755
809.68        69.01598
810.09        69.07002
810.50        69.03084
810.91        68.82224
811.32        68.63024
811.73        68.68951
812.14        69.03101
812.55        69.76705
812.96        70.60194
813.37        70.52641
813.78        69.62759
814.19        69.12134
814.60        69.10229
815.01        68.84796
815.42        68.39588
815.83        68.22359
816.24        68.33846
816.65        68.45945
817.05        68.55158
817.46        68.67512
817.87        68.80297
818.28        68.83726
818.69        68.76835
819.10        68.58986
819.51        68.39445
819.92        68.39942
820.33        68.65456
820.74        69.00993
821.14        69.34669
821.55        69.67865
821.96        69.85977
822.37        69.47057
822.78        68.72176
823.19        68.41479
823.60        68.67239
824.00        69.14233
824.41        69.58745
824.82        69.85332
825.23        69.84615
825.64        69.62363
826.04         69.3344
826.45        69.17648
826.86        69.22736
827.27        69.43247
827.68        69.69131
828.08        69.86223
828.49        69.84613
828.90        69.70529
829.31        69.55221
829.72        69.56593
830.12        69.80753
830.53        70.16311
830.94        70.47392
831.35        70.43077
831.75         69.9875
832.16        69.23602
832.57        68.43806
832.97        67.97626
833.38        67.95217
833.79        68.23756
834.20        68.67884
834.60        69.02736
835.01        69.20461
835.42         69.3225
835.82        69.40934
836.23        69.43364
836.64        69.43607
837.04         69.3668
837.45         69.3566
837.86        69.69696
838.26        70.43974
838.67        71.46024
839.08        72.40858
839.48        72.61631
839.89        71.93288
840.29        70.61156
840.70        69.23501
841.11        68.45924
841.51        68.45462
841.92        69.01557
842.33        69.89485
842.73        70.64045
843.14        70.97075
843.54        71.06236
843.95        71.03695
844.35        71.14957
844.76         71.4417
845.17        71.80262
845.57        72.10671
845.98        72.14172
846.38        71.88973
846.79        71.43604
847.19        70.93204
847.60        70.58594
848.00        70.46939
848.41        70.48772
848.81        70.59886
849.22        70.64553
849.62        70.61771
850.03        70.56108
850.43        70.47425
850.84        70.27818
851.24        70.02776
851.65        69.67352
852.05        69.44332
852.46        69.64169
852.86         70.3032
853.27        71.23445
853.67        72.08202
854.07        72.61646
854.48        72.67941
854.88        72.10667
855.29        71.10505
855.69        70.47668
856.10        70.34193
856.50         70.4669
856.90        70.63167
857.31        70.57409
857.71        70.25608
858.12        69.71818
858.52        69.16267
858.92        68.79131
859.33        68.66013
859.73        68.75118
860.13        68.91606
860.54        68.93637
860.94        68.79639
861.34         68.5447
861.75        68.31786
862.15        68.37917
862.55        68.75637
862.96        69.31825
863.36          69.925
863.76        70.26262
864.17        70.22507
864.57        69.93552
864.97        69.47071
865.38        68.96184
865.78        68.50146
866.18        68.05556
866.58        67.69471
866.99        67.54015
867.39        67.64025
867.79        67.96936
868.19        68.41188
868.60        68.75175
869.00        68.95379
869.40        69.02055
869.80        69.02367
870.21        69.11065
870.61        69.36687
871.01        69.68592
871.41        69.89331
871.81        69.74743
872.22        69.22278
872.62         68.4071
873.02        67.56732
873.42        67.15415
873.82        67.28348
874.22        67.80913
874.63        68.44601
875.03        68.75216
875.43        68.59259
875.83        68.11549
876.23        67.50364
876.63        67.03598
877.03        66.81043
877.44        66.71933
877.84        66.73412
878.24        66.82909
878.64        66.92889
879.04        66.90688
879.44        66.84912
879.84        66.98555
880.24        67.30428
880.64        67.68122
881.04        67.89613
881.44         67.6306
881.84        66.85046
882.24        65.70644
882.65        64.52282
883.05        63.78812
883.45        63.64128
883.85        63.95995
884.25        64.56555
884.65        65.12908
885.05        65.51403
885.45        65.79443
885.85        66.00279
886.25        66.19954
886.65        66.40593
887.05        66.57026
887.45        66.67719
887.85        66.72884
888.25        66.72543
888.65        66.68182
889.04        66.61345
889.44        66.56439
889.84        66.52937
890.24        66.49704
890.64        66.45241
891.04        66.36947
891.44        66.24994
891.84        66.12453
892.24        65.99187
892.64        65.84063
893.04        65.68675
893.44          65.544
893.83        65.49776
894.23        65.63209
894.63        65.97138
895.03         66.4584
895.43        66.98564
895.83        67.38564
896.23        67.58364
896.63        67.58997
897.02        67.42977
897.42        67.18071
897.82        66.88882
898.22        66.59201
898.62        66.27207
899.01        65.88441
899.41        65.46784
899.81        65.03282
900.21        64.75871
900.61        64.92631
901.00        65.54649
901.40        66.49093
901.80        67.42728
902.20        67.82301
902.59        67.57112
902.99        66.84034
903.39        65.91245
903.79        65.26163
904.18        65.03634
904.58        65.09218
904.98        65.37718
905.38        65.81483
905.77        66.34398
906.17        67.02693
906.57         67.6539
906.96        67.86186
907.36        67.57294
907.76         66.8721
908.15        66.15031
908.55        66.03391
908.95        66.65224
909.34        67.82153
909.74        69.04606
910.14        69.58358
910.53        69.21297
910.93        68.20792
911.33        66.92622
911.72        65.90252
912.12        65.38306
912.52        65.22822
912.91        65.30698
913.31        65.44286
913.70        65.57011
914.10        65.70819
914.49        66.00134
914.89        66.58442
915.29        67.45974
915.68        68.53726
916.08        69.42038
916.47        69.55715
916.87        68.87603
917.26        67.56626
917.66        66.18365
918.05        65.40215
918.45        65.38342
918.84        65.98969
919.24        66.83745
919.64        67.36803
920.03        67.41048
920.42        67.09874
920.82        66.74797
921.21        66.79346
921.61        67.30886
922.00        68.15575
922.40        68.99614
922.79        69.40309
923.19        69.22077
923.58        68.64736
923.98        67.94019
924.37        67.39726
924.77        67.13173
925.16        67.00908
925.55        67.01868
925.95        67.12519
926.34        67.29775
926.74        67.53561
927.13        67.69032
927.52        67.44424
927.92        66.82359
928.31        65.94309
928.70        65.08475
929.10        64.65759
929.49        64.74329
929.89        65.15222
930.28        65.86192
930.67        66.70525
931.07         67.5291
931.46        68.43539
931.85        69.07373
932.24        68.93848
932.64        68.03084
933.03        66.48325
933.42        64.94585
933.82        64.37672
934.21        64.96493
934.60        66.50205
934.99        68.35707
935.39        69.35941
935.78        69.20608
936.17        68.15136
936.56        66.80836
936.96        66.15131
937.35        66.41914
937.74        67.27599
938.13        68.21632
938.53        68.47832
938.92        67.88799
939.31         66.7773
939.70        65.53454
940.09        64.67458
940.49        64.31838
940.88        64.32813
941.27        64.60829
941.66         64.9864
942.05        65.37291
942.44         65.8429
942.84        66.34225
943.23        66.75729
943.62        67.06651
944.01        67.22637
944.40        67.33228
944.79         67.5893
945.18         68.0119
945.57        68.51927
945.97        68.87193
946.36        68.77405
946.75        68.14089
947.14        67.16673
947.53          66.102
947.92        65.27586
948.31        64.79817
948.70        64.59377
949.09        64.66216
949.48         64.9901
949.87        65.52763
950.26        66.25832
950.65        67.04761
951.04        67.66724
951.43        68.03604
951.82        68.17546
952.21        68.13496
952.60        68.03471
952.99        67.93781
953.38        67.82729
953.77        67.74702
954.16        67.76888
954.55        67.88499
954.94        68.05321
955.33        68.22552
955.72         68.2963
956.11        68.22768
956.50        68.08562
956.89        67.77204
957.28        67.14244
957.66        66.22432
958.05        65.12027
958.44        64.18985
958.83        63.94501
959.22        64.43998
959.61        65.53465
960.00        66.75836
960.39        67.23007
960.78        66.70438
961.16         65.4548
961.55         64.0467
961.94        63.22035
962.33        63.17299
962.72        63.73219
963.11        64.60845
963.49        65.26663
963.88        65.41386
964.27        65.19557
964.66         64.9553
965.04        65.23241
965.43        66.07913
965.82        67.38331
966.21        68.57513
966.60        68.60925
966.98        67.24332
967.37        64.95673
967.76        62.68661
968.15        61.59086
968.53        61.87498
968.92        63.27354
969.31        65.09634
969.69        65.95692
970.08         65.3424
970.47        63.71984
970.86        62.05407
971.24        61.70352
971.63        62.94614
972.02        65.40984
972.40        68.25056
972.79        69.51677
973.17        68.66366
973.56        66.36903
973.95        63.77657
974.33          62.365
974.72        62.44886
975.11        63.57391
975.49        65.16557
975.88        66.05565
976.26        65.88347
976.65        65.00821
977.04        63.90704
977.42        63.25344
977.81        63.20731
978.19         63.4897
978.58        64.00846
978.96        64.61027
979.35        65.17118
979.74        65.79708
980.12         66.3765
980.51        66.45699
980.89        66.09822
981.28        65.37987
981.66         64.6739
982.05        64.51367
982.43        65.01026
982.82        65.99181
983.20        67.30126
983.59        68.48447
983.97        69.41586
984.35        70.18451
984.74        70.59543
985.12        70.60441
985.51        70.17989
985.89        69.33086
986.28        68.51069
986.66         68.3469
987.04        69.00622
987.43        70.31048
987.81         71.7288
988.20        72.08327
988.58        71.08338
988.96        69.04327
989.35         66.7115
989.73        65.12246
990.12        64.51472
990.50        64.68448
990.88        65.13235
991.27        64.99075
991.65        64.07866
992.03        62.73338
992.42        61.64085
992.80        61.71025
993.18        63.12214
993.56        65.59624
993.95        68.34519
994.33        70.04024
994.71        70.06806
995.10        68.89844
995.48        67.29064
995.86        66.48164
996.24        66.77821
996.63        67.67986
997.01        68.94294
997.39        69.69846
997.77        69.59241
998.15        69.09312
998.54        68.24107
998.92        66.90421
999.30        65.29452
999.68        63.43585
1000.06        62.08427
1000.45         62.3326
1000.83        64.42097
1001.21        68.17236
1001.59        72.56053
1001.97        75.03851
1002.35        74.64029
1002.73        72.16946
1003.12        69.09446
1003.50        67.25296
1003.88        67.18709
1004.26        68.20819
1004.64        70.08153
1005.02        72.21471
1005.40        74.09909
1005.78        76.05281
1006.16        77.18214
1006.54        76.06224
1006.92        72.76936
1007.30        67.85166
1007.69        63.16611
1008.07        61.23723
1008.45        62.75869
1008.83        67.24454
1009.21        73.25823
1009.59         77.1172
1009.97         77.0133
1010.35        73.92309
1010.73         69.4371
1011.11        65.88436
1011.49        63.99645
1011.86        63.13947
1012.24        62.88614
1012.62        62.65373
1013.00         62.2715
1013.38        61.96783
1013.76         62.1587
1014.14        63.49878
1014.52        66.00819
1014.90         69.1556
1015.28         71.9123
1015.66        73.13131
1016.04        72.64569
1016.41        70.74319
1016.79        68.10593
1017.17        66.14434
1017.55        65.39335
1017.93        65.56635
1018.31        66.10062
1018.69        66.09831
1019.06        65.34945
1019.44        64.09183
1019.82        62.79475
1020.20        62.50188
1020.58        63.43932
1020.95        64.87096
1021.33        66.24076
1021.71        66.85266
1022.09        66.63718
1022.46        66.08906
1022.84        64.81795
1023.22        62.36008
1023.60        59.11588
1023.97        55.30253
1024.35        52.87886
1024.73        54.02211
