SpectraSmart Spectrum 2.9.0.0
--------- Device Information -----------
Spectrum Name :  反射率_0
Saving Time :  2024/04/26 22:08:45
Spectro-Module Model Name : SE2030-DUVN
Spectro-Module Serial Number : OS361AC55029948
Wavelength Start : 200
Wavelength End : 1025
Wavelength Unit : Wavelength(nm)
Spectrum Unit : Reflectance(%)
-----------Spectrum Setting ------------
Integration Time : 20ms
Average : 10
Boxcar : 0
Background removal :  enabled
linearity correction :  enabled
SC :  disabled
Intensity correction :  disabled
DWT denoise :  enabled
savitzky-golay :  disabled
FFT :  disabled
Running average :  disabled
Kalman :  disabled
High pass :  disabled
---------------BEGIN--------------------
Wavelength(nm)             Reflectance(%)
200.29               0
200.75           32.82
201.21        31.65847
201.67        30.96455
202.13        30.60154
202.58        30.44481
203.04        31.18525
203.50        32.65011
203.96        33.81101
204.42        34.10336
204.88        33.13583
205.34        32.88507
205.80        36.98576
206.26        44.86005
206.72        53.67083
207.18        60.03557
207.64        61.46337
208.10        57.98898
208.55         49.9758
209.01        37.06896
209.47        27.17002
209.93        27.06482
210.39        32.72881
210.85        38.98499
211.31        43.80851
211.77        48.40191
212.23        55.67521
212.69        73.19774
213.14        110.4408
213.60        122.2125
214.06        106.1449
214.52        89.86362
214.98        77.75896
215.44        66.72858
215.90        54.33158
216.36        43.11619
216.81        37.86716
217.27        40.58447
217.73        52.23711
218.19        71.00385
218.65        80.51256
219.11        73.17442
219.57        59.42717
220.02        49.75092
220.48        49.51765
220.94        58.08203
221.40        75.89519
221.86        102.4756
222.32        120.9163
222.77        115.8149
223.23        98.25723
223.69        80.65312
224.15        70.09867
224.61        65.46324
225.06        63.30809
225.52         62.7593
225.98        62.77984
226.44         63.0522
226.90        64.07237
227.36        65.27901
227.81        65.53475
228.27         64.8539
228.73        63.36709
229.19        62.25645
229.65        63.01504
230.10        65.60151
230.56        69.55064
231.02        73.27203
231.48        74.23643
231.93        72.11895
232.39        68.35999
232.85         64.6819
233.31        63.35205
233.77        64.55022
234.22        67.38829
234.68        70.69789
235.14        72.73473
235.60        72.90672
236.05         71.7867
236.51        69.55596
236.97        66.85903
237.43        64.21086
237.88         61.5477
238.34        59.26418
238.80        58.18787
239.26        58.55401
239.71        60.87333
240.17        64.65349
240.63        68.38721
241.08        71.06089
241.54        72.15015
242.00         72.5882
242.46        74.90915
242.91        81.13248
243.37        91.52325
243.83        106.9398
244.28        122.1452
244.74        126.8058
245.20        119.5723
245.66        106.7179
246.11        94.21288
246.57        83.31228
247.03        72.30083
247.48        61.69366
247.94        54.31109
248.40        51.30237
248.85        51.06167
249.31        51.65505
249.77        50.98483
250.22        48.45627
250.68        43.97927
251.14        38.08487
251.59        34.02171
252.05        34.42827
252.51        38.34925
252.96        42.45221
253.42        43.78768
253.88        42.63579
254.33        40.07205
254.79        38.91631
255.25        41.52116
255.70         47.5024
256.16         55.7005
256.62        62.67172
257.07        63.25951
257.53        58.88211
257.99         52.9459
258.44        48.12254
258.90        46.70803
259.35        47.68705
259.81        50.02378
260.27        52.35139
260.72         53.0448
261.18        52.20844
261.63        50.42072
262.09        48.68402
262.55        47.58485
263.00        47.07838
263.46        47.00082
263.91        46.85122
264.37        46.27761
264.83        45.25829
265.28        43.98453
265.74        42.95733
266.19        42.52814
266.65        42.76838
267.11        43.41034
267.56        44.12956
268.02        44.41013
268.47        44.11332
268.93        43.44571
269.38        42.54747
269.84         41.6979
270.30         40.9782
270.75        40.27596
271.21         39.6895
271.66        39.31644
272.12        39.14977
272.57        39.16103
273.03         39.1157
273.48        38.61095
273.94          37.652
274.39        36.35959
274.85        35.11958
275.31        34.33251
275.76        34.03702
276.22        34.11453
276.67        34.29068
277.13        34.26627
277.58        33.91678
278.04        33.36746
278.49        32.71135
278.95        32.20189
279.40        31.83116
279.86        31.58032
280.31        31.26361
280.77        30.73463
281.22        29.95511
281.68        29.07782
282.13        28.24612
282.59        27.72949
283.04        27.52564
283.50        27.55555
283.95        27.65568
284.41        27.58547
284.86        27.27832
285.32        26.83607
285.77        26.34892
286.22        25.99955
286.68         25.8201
287.13        25.71537
287.59        25.62617
288.04        25.42406
288.50         25.1112
288.95        24.72312
289.41        24.32912
289.86         23.9629
290.32        23.67168
290.77        23.42175
291.22        23.23811
291.68        23.14686
292.13        23.13396
292.59        23.20584
293.04        23.31554
293.50        23.40763
293.95        23.46003
294.40        23.48836
294.86        23.53574
295.31        23.66478
295.77        23.89628
296.22        24.20774
296.68        24.55724
297.13        24.86592
297.58        25.12329
298.04        25.35224
298.49        25.60571
298.95        25.98202
299.40        26.48285
299.85         27.0647
300.31        27.64413
300.76        28.08945
301.21        28.37545
301.67        28.56126
302.12        28.68912
302.58        28.87557
303.03        29.12765
303.48        29.42323
303.94        29.75252
304.39        30.07417
304.84        30.38175
305.30        30.69787
305.75        30.97935
306.20        31.20699
306.66        31.38452
307.11        31.50013
307.57        31.59486
308.02         31.6937
308.47        31.81199
308.93        31.94757
309.38         32.0655
309.83        32.15498
310.29        32.21293
310.74        32.24221
311.19        32.24839
311.65        32.23389
312.10        32.19687
312.55        32.13378
313.00        32.06025
313.46        31.99979
313.91        31.94401
314.36        31.89567
314.82        31.82764
315.27        31.70498
315.72         31.5221
316.18        31.30359
316.63        31.07622
317.08        30.89566
317.53        30.77283
317.99        30.68353
318.44        30.61207
318.89        30.52122
319.35        30.39684
319.80        30.24932
320.25        30.07553
320.70        29.87087
321.16        29.63931
321.61        29.39593
322.06        29.15644
322.51        28.95084
322.97        28.78516
323.42        28.65436
323.87        28.56223
324.32        28.51849
324.78        28.50401
325.23        28.52506
325.68        28.51483
326.13        28.37291
326.59        28.08146
327.04        27.68275
327.49        27.25805
327.94        26.93936
328.39        26.75748
328.85        26.66729
329.30        26.63751
329.75        26.55602
330.20        26.39038
330.66        26.17133
331.11        25.94668
331.56        25.76861
332.01         25.6532
332.46        25.57505
332.92        25.49965
333.37        25.41624
333.82        25.30292
334.27        25.17529
334.72        25.04776
335.17        24.93793
335.63        24.85378
336.08        24.80824
336.53        24.79373
336.98        24.80841
337.43        24.84566
337.88        24.88861
338.34        24.94689
338.79        25.06326
339.24        25.22174
339.69        25.40915
340.14        25.53294
340.59        25.45062
341.05        25.15613
341.50        24.70138
341.95         24.2368
342.40        23.99029
342.85        24.01268
343.30        24.23771
343.75        24.54086
344.20        24.71321
344.66         24.6967
345.11        24.55266
345.56        24.36094
346.01        24.24899
346.46         24.2558
346.91        24.33582
347.36        24.44388
347.81        24.51918
348.26        24.54104
348.72        24.52986
349.17        24.50942
349.62        24.52456
350.07        24.58233
350.52        24.66799
350.97        24.72951
351.42        24.68796
351.87        24.53531
352.32         24.3044
352.77         24.0752
353.22        23.96293
353.67        23.98796
354.13        24.11443
354.58        24.26609
355.03        24.31837
355.48        24.23633
355.93        24.05939
356.38        23.84959
356.83        23.69986
357.28        23.63177
357.73        23.61196
358.18        23.59994
358.63        23.53344
359.08        23.39795
359.53         23.2214
359.98        23.03168
360.43        22.86531
360.88        22.72992
361.33        22.60754
361.78        22.49013
362.23        22.36787
362.68        22.23883
363.13        22.11573
363.58        21.98732
364.03        21.83195
364.48        21.65051
364.93        21.44785
365.38        21.26602
365.83        21.17513
366.28        21.18443
366.73        21.26744
367.18        21.36046
367.63        21.36389
368.08        21.25364
368.53        21.05877
368.98        20.82836
369.43        20.64236
369.88        20.52465
370.33        20.45198
370.78        20.39722
371.23        20.31642
371.68        20.19672
372.13        20.05605
372.58        19.91328
373.03        19.79418
373.48        19.70407
373.93        19.63005
374.38         19.5567
374.83         19.4627
375.28        19.34338
375.72        19.20425
376.17        19.06768
376.62        18.94091
377.07        18.83078
377.52        18.73698
377.97        18.66171
378.42        18.61127
378.87        18.58211
379.32        18.56248
379.77        18.55147
380.22        18.54769
380.67        18.54464
381.11        18.54897
381.56         18.5167
382.01        18.39693
382.46        18.19517
382.91        17.94352
383.36        17.71354
383.81         17.6026
384.26        17.62128
384.71        17.73272
385.15        17.88028
385.60        17.96941
386.05        17.96641
386.50        17.90155
386.95        17.78797
387.40        17.64986
387.85         17.5061
388.29         17.3406
388.74        17.20435
389.19        17.12854
389.64         17.1131
390.09        17.14641
390.54        17.18686
390.98        17.15862
391.43        17.05781
391.88        16.90764
392.33        16.74853
392.78         16.6391
393.23        16.58903
393.67        16.56668
394.12        16.56511
394.57        16.54145
395.02        16.48499
395.47        16.40679
395.91        16.31696
396.36        16.22215
396.81        16.14183
397.26         16.0773
397.71        16.03134
398.15        16.01848
398.60        16.05349
399.05        16.05805
399.50          16.042
399.95        16.13926
400.39        16.29453
400.84        16.22062
401.29        15.93965
401.74         15.7436
402.18        15.66072
402.63        15.52725
403.08        15.37927
403.53        15.33999
403.97        15.41506
404.42        15.57021
404.87        15.73883
405.32        15.80946
405.76        15.75386
406.21        15.61261
406.66        15.44713
407.11        15.35735
407.55        15.37272
408.00        15.45493
408.45        15.56138
408.90        15.60877
409.34         15.5699
409.79         15.4774
410.24        15.36769
410.68        15.28395
411.13        15.24291
411.58        15.22845
412.03        15.22292
412.47        15.20148
412.92        15.15308
413.37        15.09353
413.81        15.03988
414.26        15.02693
414.71        15.05406
415.15        15.11425
415.60        15.17759
416.05        15.20551
416.49        15.18787
416.94        15.13491
417.39        15.07297
417.83        15.04176
418.28        15.05019
418.73        15.08376
419.17        15.12699
419.62        15.15508
420.07        15.16004
420.51        15.14706
420.96        15.12236
421.41        15.09208
421.85        15.05338
422.30        14.99776
422.74        14.92525
423.19        14.90432
423.64         14.9136
424.08         14.8641
424.53        14.75621
424.98        14.70627
425.42        14.73128
425.87        14.73061
426.31        14.71337
426.76        14.80174
427.21        14.95007
427.65        14.94264
428.10        14.81193
428.54        14.76621
428.99        14.82216
429.44        14.91628
429.88        14.99679
430.33        14.92682
430.77        14.75105
431.22        14.75082
431.66        14.91711
432.11        14.97731
432.56        14.92814
433.00        14.97719
433.45        15.05467
433.89        14.93134
434.34         14.7145
434.78        14.33903
435.23        14.63156
435.67        14.67079
436.12        14.66275
436.57        14.63941
437.01        14.60911
437.46        14.59217
437.90        14.58152
438.35        14.53316
438.79        14.45587
439.24        14.41178
439.68        14.40769
440.13         14.4242
440.57        14.45367
441.02        14.49825
441.46        14.54958
441.91        14.56759
442.35        14.54979
442.80        14.63855
443.24          14.771
443.69        14.69721
444.13        14.46543
444.58        14.38385
445.02        14.46902
445.47        14.56502
445.91           14.63
446.36        14.66912
446.80        14.66702
447.24        14.62764
447.69        14.57729
448.13        14.55065
448.58        14.55974
449.02        14.58813
449.47        14.62533
449.91        14.64761
450.36        14.65238
450.80        14.64836
451.25        14.63856
451.69        14.61691
452.13        14.58802
452.58        14.54944
453.02        14.51842
453.47        14.52634
453.91        14.57541
454.36        14.65627
454.80        14.73249
455.24        14.74385
455.69        14.68445
456.13        14.56653
456.58        14.44288
457.02        14.36915
457.46        14.36573
457.91        14.41263
458.35        14.47168
458.79        14.48504
459.24        14.45239
459.68        14.38625
460.13        14.32924
460.57        14.30746
461.01         14.3395
461.46         14.3972
461.90        14.47717
462.34        14.56257
462.79        14.63722
463.23        14.71085
463.68        14.75104
464.12        14.71499
464.56        14.60203
465.01        14.45224
465.45        14.29731
465.89        14.21913
466.34        14.22873
466.78        14.29942
467.22        14.40755
467.67        14.49452
468.11        14.54742
468.55        14.57686
468.99        14.58856
469.44         14.5913
469.88         14.5911
470.32        14.57843
470.77        14.56726
471.21         14.5861
471.65        14.63637
472.10        14.71484
472.54        14.78849
472.98        14.80937
473.42        14.76995
473.87         14.6912
474.31        14.60208
474.75         14.5617
475.20        14.58568
475.64        14.64991
476.08        14.72881
476.52        14.77452
476.97        14.77603
477.41         14.7568
477.85        14.74103
478.29         14.7453
478.74        14.78984
479.18        14.89905
479.62        15.04221
480.06        15.14643
480.50        15.20289
480.95        15.22523
481.39        15.21528
481.83        15.32696
482.27        15.33501
482.72        15.40395
483.16        15.47898
483.60        15.53318
484.04        15.54628
484.48        15.69535
484.93         15.9677
485.37        15.80075
485.81        15.69264
486.25        16.04457
486.69        15.38873
487.14         15.7903
487.58         16.8531
488.02        16.71226
488.46        16.37341
488.90        16.45298
489.34        16.42145
489.79        16.62813
490.23        16.72209
490.67        16.94829
491.11        17.21464
491.55        17.28601
491.99        17.20026
492.43        17.20633
492.88        17.32341
493.32        17.38883
493.76        17.40837
494.20        17.48874
494.64        17.64137
495.08        17.80018
495.52        17.94498
495.96        18.16151
496.41        18.40006
496.85        18.39262
497.29        18.20307
497.73        18.35549
498.17        18.59102
498.61        18.77831
499.05        18.80939
499.49         18.8637
499.93        18.90591
500.37          19.039
500.82        19.23184
501.26        19.37988
501.70        19.47173
502.14        19.57569
502.58        19.70742
503.02         19.8531
503.46         20.0107
503.90        20.18061
504.34        20.33116
504.78        20.41008
505.22        20.40928
505.66        20.34872
506.10        20.26814
506.54        20.23087
506.98        20.25672
507.42        20.33015
507.86        20.43542
508.30        20.54407
508.74        20.64251
509.18        20.73672
509.62        20.82313
510.06        20.89585
510.50        20.95371
510.94        20.99514
511.38        21.02246
511.82         21.0424
512.26        21.05987
512.70        21.07717
513.14        21.10056
513.58        21.13871
514.02        21.19209
514.46        21.25547
514.90        21.32298
515.34        21.38493
515.78        21.43506
516.22        21.47342
516.66        21.49179
517.10        21.47851
517.54        21.43476
517.98         21.3671
518.42        21.29186
518.86        21.23548
519.30        21.20547
519.74        21.19499
520.18        21.19765
520.62        21.20046
521.06         21.1995
521.50        21.20255
521.93         21.2051
522.37        21.19157
522.81        21.16463
523.25        21.12388
523.69        21.09074
524.13        21.10091
524.57        21.15506
525.01        21.23622
525.45        21.30802
525.89        21.31194
526.32        21.23361
526.76         21.1015
527.20         20.9422
527.64        20.79896
528.08         20.6896
528.52        20.60382
528.96        20.54711
529.40        20.52695
529.83        20.53785
530.27         20.5772
530.71        20.61969
531.15        20.62486
531.59        20.58316
532.03        20.50426
532.46        20.40338
532.90        20.32179
533.34        20.26845
533.78        20.22332
534.22        20.18334
534.66         20.1682
535.09        20.16009
535.53        20.11379
535.97        20.03871
536.41        20.00054
536.85        20.00436
537.28        20.01471
537.72        20.02756
538.16         20.0521
538.60        20.08578
539.04        20.12547
539.47        20.16746
539.91        20.21912
540.35        20.27677
540.79        20.34079
541.22        20.40664
541.66        20.47415
542.10        20.54131
542.54        20.61004
542.97        20.68393
543.41        20.77724
543.85        20.88935
544.29        21.01763
544.72        21.15087
545.16        21.28729
545.60         21.4205
546.04         21.5533
546.47        21.69196
546.91        21.84226
547.35         22.0011
547.79        22.16561
548.22        22.32338
548.66        22.45109
549.10        22.57411
549.53        22.69191
549.97        22.81695
550.41        22.91658
550.84         23.0184
551.28        23.17892
551.72        23.37589
552.15        23.59249
552.59        23.84771
553.03         23.7924
553.46        24.13054
553.90        24.22363
554.34        24.28075
554.77        24.30878
555.21        24.34018
555.65        24.40602
556.08          24.506
556.52        24.62123
556.96        24.72915
557.39        24.86008
557.83        24.98919
558.27        24.98286
558.70        24.88372
559.14        24.91004
559.57        25.05427
560.01        25.17404
560.45        25.25126
560.88        25.32282
561.32        25.39272
561.75        25.47636
562.19         25.5621
562.63        25.51424
563.06        25.38748
563.50        25.44383
563.93        25.64638
564.37        25.78777
564.80        25.86647
565.24        25.94973
565.68        25.98069
566.11        26.37251
566.55        26.17603
566.98        26.20104
567.42         26.2205
567.85        26.29146
568.29        26.43264
568.72        26.63976
569.16         26.9073
569.60        27.10147
570.03        27.31188
570.47        27.47969
570.90        27.62303
571.34        27.76009
571.77        27.85532
572.21        28.05026
572.64        28.25475
573.08        28.37106
573.51        28.44543
573.95        28.41388
574.38        28.34399
574.82        28.86822
575.25        28.60648
575.69        28.74477
576.12        28.84633
576.56        28.91736
576.99        29.00507
577.42        28.78608
577.86        28.94154
578.29        29.14895
578.73        28.83854
579.16        29.08335
579.60        28.74217
580.03        28.79249
580.47        28.51632
580.90        28.92612
581.33        28.73119
581.77        28.64043
582.20         28.0932
582.64        28.21596
583.07        28.33501
583.51        28.35218
583.94        28.14836
584.37        27.94465
584.81        27.80243
585.24        27.61485
585.68         27.4995
586.11        27.27192
586.54        27.53063
586.98        27.44847
587.41        27.25631
587.85        27.08027
588.28        26.94515
588.71        27.07892
589.15        27.01094
589.58        26.66483
590.01        26.89152
590.45        26.88551
590.88        27.22817
591.31        27.08488
591.75        26.74039
592.18        26.56871
592.61         26.5074
593.05          27.417
593.48        27.35391
593.91        26.94344
594.35        27.21684
594.78        27.11287
595.21        27.13163
595.65        27.33643
596.08        27.76423
596.51        27.96692
596.94        27.84234
597.38        27.95198
597.81        28.28065
598.24        28.53132
598.68        28.67435
599.11        28.97394
599.54        29.35163
599.97         29.4107
600.41        29.95148
600.84        30.05997
601.27        30.42432
601.70        30.71571
602.14        31.02272
602.57        31.30028
603.00        31.62392
603.43        31.60844
603.87        32.35472
604.30        32.78575
604.73        33.23046
605.16         33.3666
605.60        33.73117
606.03        33.86929
606.46        33.96528
606.89        34.47663
607.32        35.23816
607.76        35.51887
608.19        35.88659
608.62        36.07799
609.05        36.37764
609.48        36.64398
609.92        37.33353
610.35        37.71981
610.78        37.18935
611.21        37.91803
611.64        38.01746
612.07        38.55944
612.50        38.77998
612.94        39.07138
613.37        39.35763
613.80        39.39773
614.23        39.31321
614.66        39.53255
615.09        40.05077
615.52        40.41426
615.96         40.5596
616.39        40.82158
616.82        41.22684
617.25        41.08688
617.68        41.34244
618.11        41.49856
618.54        41.82281
618.97        42.07748
619.40        42.23745
619.84        42.55702
620.27        42.61987
620.70        42.79008
621.13         42.9089
621.56         42.7902
621.99        42.52542
622.42        42.46915
622.85        42.63661
623.28        42.79979
623.71        42.94447
624.14        42.85262
624.57         43.2631
625.00        43.05297
625.43        43.17712
625.86        43.06875
626.29        43.01226
626.72        42.65225
627.15        42.74451
627.58         42.6596
628.01        42.56693
628.44        42.41746
628.87        42.21007
629.30        41.91402
629.73        41.55334
630.16        41.42957
630.59        41.15992
631.02        41.02809
631.45        40.88732
631.88        40.70439
632.31        40.45697
632.74          40.159
633.17        39.80965
633.60        39.39882
634.03        38.93744
634.46        38.43193
634.89        37.91541
635.32        37.44985
635.75        37.05443
636.18        36.67864
636.61        36.32288
637.04        36.00294
637.47        35.70886
637.89        35.43047
638.32        35.13799
638.75        34.82129
639.18        34.48076
639.61         34.1213
640.04        33.77235
640.47        33.47803
640.90        33.24759
641.33        33.07378
641.76         32.9277
642.18        32.76527
642.61        32.56766
643.04        32.35196
643.47        32.15904
643.90        32.05281
644.33        32.04509
644.76        32.11823
645.18        32.21844
645.61         32.2501
646.04        32.19998
646.47        32.10271
646.90        32.02909
647.33        32.08648
647.75         32.2866
648.18         32.6236
648.61        33.05423
649.04        33.38115
649.47         33.5501
649.89        34.12988
650.32        34.22338
650.75        34.52182
651.18        34.78441
651.61         35.0923
652.03        35.47449
652.46        35.95679
652.89        36.52175
653.32        37.04243
653.74        37.42958
654.17        37.86752
654.60        38.07984
655.03        38.33529
655.46        38.03162
655.88         38.6088
656.31        39.69675
656.74        37.69606
657.16        41.50008
657.59        46.19481
658.02        42.54402
658.45        42.12131
658.87        41.73844
659.30        41.81256
659.73        42.16569
660.15        42.85797
660.58        42.53568
661.01        42.82943
661.44        43.34834
661.86        43.52561
662.29         43.3741
662.72        43.80769
663.14        43.99813
663.57        44.23325
664.00        44.30728
664.42        44.53809
664.85        44.94186
665.27        45.38547
665.70        45.76818
666.13        46.01312
666.55         46.0992
666.98         46.0092
667.41         45.8145
667.83        45.92687
668.26        45.90611
668.69        46.10482
669.11        46.35288
669.54        46.59698
669.96        46.81435
670.39        47.03765
670.82          47.258
671.24        47.39469
671.67        47.46153
672.09        47.54618
672.52        47.67134
672.94        47.76923
673.37        47.85111
673.80        47.96089
674.22        48.10267
674.65        48.22573
675.07        48.33441
675.50        48.43915
675.92        48.54408
676.35         48.6283
676.77        48.69076
677.20        48.80191
677.62        48.84966
678.05        48.95889
678.47        49.09558
678.90          49.265
679.32        49.43725
679.75        49.57575
680.17        49.66743
680.60        49.71909
681.02        49.77528
681.45        49.88648
681.87        50.06696
682.30        50.34537
682.72        50.65929
683.15        50.73901
683.57        50.62312
684.00        50.67447
684.42        50.81352
684.85        50.94435
685.27        51.03296
685.70        51.21219
686.12        51.43307
686.54        51.56537
686.97        51.59011
687.39        51.55368
687.82        51.48528
688.24        51.44558
688.66        51.45498
689.09        51.49504
689.51        51.57063
689.94        51.66864
690.36        51.78867
690.78        51.91223
691.21        52.04478
691.63        52.20966
692.06        52.39342
692.48        52.54755
692.90        52.64672
693.33        52.70219
693.75        52.71381
694.17        52.64416
694.60        52.56609
695.02        52.62743
695.44        52.83111
695.87        53.11785
696.29        53.40914
696.71        53.46961
697.14        53.34102
697.56        53.32951
697.98        53.47765
698.41        53.60492
698.83        53.70881
699.25         53.9488
699.68        54.23023
700.10        54.36418
700.52         54.3048
700.94        54.12392
701.37        53.93126
701.79        53.90941
702.21        54.09421
702.64        54.41341
703.06        54.78067
703.48        55.04015
703.90        55.14245
704.33        55.13683
704.75        55.06345
705.17        54.97974
705.59        54.92197
706.01        54.87514
706.44        54.86233
706.86        54.95155
707.28        55.13929
707.70        55.37044
708.12        55.61701
708.55        55.90676
708.97        56.18104
709.39        56.24739
709.81         56.1393
710.23        56.12182
710.66        56.22233
711.08        56.30559
711.50        56.34688
711.92        56.38763
712.34        56.42807
712.76        56.47252
713.19         56.5061
713.61        56.53209
714.03        56.54229
714.45        56.54544
714.87        56.58202
715.29        56.71506
715.71        56.94851
716.13        57.25148
716.56        57.54761
716.98        57.78383
717.40         57.8979
717.82        57.90893
718.24        57.83553
718.66        57.71078
719.08        57.56841
719.50         57.4255
719.92        57.30944
720.34        57.25741
720.76        57.27961
721.19        57.34774
721.61        57.50385
722.03        57.76874
722.45        58.11964
722.87         58.5293
723.29        58.87842
723.71        58.97785
724.13        58.79731
724.55        58.40644
724.97         57.9542
725.39        57.67095
725.81        57.62436
726.23        57.76743
726.65         58.0379
727.07        58.25334
727.49        58.48374
727.91        58.67138
728.33        58.84114
728.75        58.96944
729.17        59.05345
729.59        59.07654
730.01        59.06553
730.43        59.08398
730.85        59.14189
731.27        59.22074
731.69        59.28928
732.10        59.29393
732.52        59.22528
732.94        59.12248
733.36        59.02864
733.78        58.89595
734.20        58.73362
734.62        58.76919
735.04        59.07884
735.46        58.68153
735.88         59.3103
736.30        59.53524
736.72        59.84784
737.13         60.1273
737.55        60.29748
737.97        60.54959
738.39        60.76798
738.81        60.41884
739.23        59.68935
739.65        59.59096
740.06         60.0681
740.48         60.2616
740.90        60.12538
741.32         60.1858
741.74        60.45184
742.16        60.65064
742.57        60.75707
742.99        60.82499
743.41        60.84324
743.83        60.78201
744.25         60.6501
744.67        60.44694
745.08        60.25007
745.50        60.17185
745.92        60.24157
746.34        60.41676
746.75        60.62369
747.17        60.72692
747.59        60.70365
748.01        60.60414
748.42        60.46304
748.84        60.37323
749.26        60.36633
749.68        60.29723
750.09        60.21231
750.51        60.44526
750.93        60.86851
751.35        60.90897
751.76        60.57536
752.18        60.37613
752.60        60.33046
753.01        60.14886
753.43        59.87978
753.85        59.78183
754.27        59.88843
754.68        60.15125
755.10        60.48907
755.52        60.72055
755.93        60.81556
756.35        60.91225
756.77        61.06904
757.18        61.14561
757.60        61.15367
758.02         61.3941
758.43        61.80586
758.85        61.19736
759.26        61.58088
759.68         60.9154
760.10         60.5482
760.51        60.97065
760.93        61.92187
761.34         61.9657
761.76        61.53912
762.18        61.40666
762.59        61.84893
763.01        61.75546
763.42        62.01037
763.84        62.06351
764.26        62.12953
764.67        61.81228
765.09        61.33847
765.50        61.28585
765.92         61.6124
766.33        61.82069
766.75        61.77231
767.16        61.53224
767.58        61.16484
768.00        61.11514
768.41        61.42962
768.83         61.5698
769.24        61.49897
769.66         61.8255
770.07        62.36943
770.49        62.07028
770.90        61.20775
771.32        61.43563
771.73        62.59668
772.15        63.00461
772.56        62.58845
772.97        62.18974
773.39        61.94969
773.80        62.12033
774.22        62.07616
774.63        62.32523
775.05        62.56067
775.46        62.75152
775.88        62.82745
776.29        62.79604
776.70        62.71551
777.12        62.71768
777.53        62.83586
777.95        62.97839
778.36        63.11123
778.77        63.14808
779.19        63.09042
779.60        63.00489
780.02        62.87481
780.43         62.7545
780.84        62.68793
781.26        62.36337
781.67        61.98626
782.09        62.54649
782.50        63.75179
782.91        63.98118
783.33        63.25864
783.74        63.01779
784.15        63.29567
784.57        63.25005
784.98        62.94987
785.39        62.80862
785.81        62.89214
786.22        63.33802
786.63        63.95568
787.04        64.06298
787.46        63.70515
787.87         63.5287
788.28        63.60193
788.70        63.56984
789.11        63.43977
789.52        63.46511
789.93        63.60455
790.35        63.66363
790.76        63.62132
791.17        63.51978
791.58        63.42928
792.00        63.37223
792.41        63.37268
792.82        63.61972
793.23        63.97853
793.65        63.73328
794.06        63.09231
794.47        63.22741
794.88        64.02666
795.29        64.35453
795.71        64.13093
796.12        64.15037
796.53        64.40609
796.94        64.24691
797.35        63.79321
797.76        63.87182
798.18        64.40886
798.59         64.6488
799.00          64.521
799.41        64.45393
799.82        64.50348
800.23        64.56247
800.64        64.63397
801.06        64.70804
801.47        64.77206
801.88        64.72188
802.29        64.53907
802.70        64.25556
803.11        63.92945
803.52        63.65741
803.93        63.49393
804.34        63.43281
804.75        63.47371
805.17         63.6548
805.58        64.00214
805.99        64.28912
806.40        64.51706
806.81        65.13645
807.22        65.90501
807.63        65.78985
808.04        64.94065
808.45        64.51489
808.86         64.6236
809.27         64.6606
809.68         64.5583
810.09        64.49514
810.50        64.46389
810.91        64.42608
811.32        64.45103
811.73        64.64171
812.14        65.00066
812.55        65.48611
812.96        65.95617
813.37        66.14587
813.78        65.98376
814.19        65.57034
814.60        65.04887
815.01        64.61076
815.42        64.31239
815.83        64.10442
816.24        63.99458
816.65        63.99803
817.05        64.10912
817.46        64.29869
817.87        64.52259
818.28         64.6605
818.69        64.69115
819.10        64.63254
819.51        64.53699
819.92        64.55859
820.33         64.7399
820.74        64.89508
821.14        65.00565
821.55        65.36702
821.96        65.80976
822.37        65.60693
822.78        64.89893
823.19        64.61484
823.60        64.85605
824.00        65.14182
824.41        65.32411
824.82        65.48195
825.23        65.56336
825.64        65.55031
826.04        65.48286
826.45        65.38611
826.86        65.29377
827.27        65.21958
827.68        65.14706
828.08         65.0694
828.49        64.94685
828.90        64.80667
829.31         64.7435
829.72         64.9065
830.12        65.33092
830.53        65.90775
830.94        66.45181
831.35        66.60475
831.75        66.29616
832.16        65.61923
832.57        64.82132
832.97        64.27872
833.38         64.1063
833.79        64.18617
834.20        64.42747
834.60        64.67609
835.01        64.87359
835.42        65.11353
835.82        65.35572
836.23        65.44724
836.64        65.39391
837.04        65.18234
837.45         65.0099
837.86        65.27395
838.26        66.05452
838.67         67.1954
839.08        68.30296
839.48        68.63232
839.89        68.00297
840.29        66.69156
840.70         65.2936
841.11        64.49086
841.51         64.4588
841.92        64.97604
842.33        65.79411
842.73        66.46571
843.14        66.71496
843.54        66.72244
843.95        66.59874
844.35        66.56898
844.76        66.68045
845.17        66.84675
845.57        66.97716
845.98        66.91683
846.38        66.66173
846.79        66.27301
847.19        65.89496
847.60        65.72478
848.00        65.81483
848.41         66.0715
848.81        66.38994
849.22        66.51646
849.62        66.42092
850.03        66.16914
850.43        65.85378
850.84        65.56033
851.24        65.37662
851.65        65.21194
852.05        65.18566
852.46        65.40964
852.86        65.86829
853.27        66.46757
853.67        66.95631
854.07        67.16611
854.48        67.00343
854.88         66.4093
855.29        65.53314
855.69        64.94405
856.10        64.73965
856.50        64.79379
856.90        64.99757
857.31        65.22661
857.71        65.45754
858.12        65.65808
858.52        65.85516
858.92        65.98067
859.33        65.99916
859.73        65.94894
860.13        65.78355
860.54        65.46965
860.94        65.06924
861.34        64.60303
861.75          64.187
862.15        64.03956
862.55        64.18369
862.96        64.52545
863.36        64.97588
863.76        65.29255
864.17        65.37575
864.57        65.31229
864.97        65.08276
865.38        64.67685
865.78        64.15279
866.18         63.5089
866.58        62.90434
866.99        62.62493
867.39        62.76457
867.79        63.24923
868.19        63.88531
868.60        64.33897
869.00        64.54732
869.40        64.55949
869.80        64.48719
870.21        64.55108
870.61        64.85222
871.01         65.2347
871.41        65.52177
871.81        65.48086
872.22        65.07301
872.62        64.39059
873.02        63.61361
873.42        63.04014
873.82        62.77979
874.22        62.76069
874.63        62.86501
875.03        62.91437
875.43        62.83774
875.83         62.6978
876.23         62.5629
876.63        62.53265
877.03        62.63639
877.44        62.80703
877.84        63.00027
878.24        63.17528
878.64        63.26223
879.04        63.12048
879.44        62.90262
879.84        62.96243
880.24        63.31543
880.64         63.8096
881.04        64.18501
881.44        64.04832
881.84        63.33612
882.24        62.21714
882.65        61.03217
883.05        60.29609
883.45        60.15716
883.85        60.48536
884.25        61.08734
884.65         61.6143
885.05        61.93205
885.45        62.12794
885.85        62.27198
886.25        62.47792
886.65        62.77219
887.05        63.08073
887.45        63.33883
887.85        63.46764
888.25        63.44014
888.65        63.28891
889.04        63.06422
889.44        62.86435
889.84        62.70512
890.24        62.56964
890.64        62.42473
891.04        62.21599
891.44        61.94601
891.84        61.66166
892.24        61.41153
892.64        61.24976
893.04        61.20407
893.44        61.27746
893.83        61.47492
894.23        61.75279
894.63        62.09988
895.03        62.47219
895.43        62.88233
895.83        63.36428
896.23        63.87656
896.63        64.36784
897.02        64.65518
897.42        64.48998
897.82         63.8592
898.22        62.90842
898.62         61.8857
899.01        61.14441
899.41        60.80529
899.81        60.77279
900.21        60.97574
900.61        61.28093
901.00        61.61337
901.40        61.99249
901.80        62.35371
902.20        62.59011
902.59        62.68627
902.99        62.64195
903.39         62.5096
903.79        62.39587
904.18         62.3282
904.58        62.28407
904.98        62.29132
905.38        62.39365
905.77        62.59058
906.17        62.89773
906.57        63.18436
906.96        63.23035
907.36        62.98572
907.76        62.52415
908.15        62.09393
908.55        62.07008
908.95        62.53046
909.34         63.3617
909.74         64.2354
910.14        64.69339
910.53         64.5854
910.93        64.07853
911.33        63.37286
911.72        62.76942
912.12        62.43174
912.52        62.27131
912.91        62.23534
913.31        62.26247
913.70        62.32337
914.10        62.41656
914.49        62.60694
914.89        62.90848
915.29        63.31722
915.68        63.80275
916.08        64.16291
916.47        64.14446
916.87        63.72939
917.26         62.9993
917.66        62.25935
918.05        61.83695
918.45        61.81349
918.84        62.13429
919.24        62.58723
919.64        62.91688
920.03        63.04422
920.42        63.01642
920.82        62.97795
921.21        63.10601
921.61        63.41853
922.00        63.85695
922.40        64.27029
922.79        64.54232
923.19         64.5942
923.58        64.50725
923.98        64.31966
924.37        64.02457
924.77        63.66998
925.16        63.22033
925.55        62.82304
925.95        62.71331
926.34        62.94542
926.74        63.43384
927.13        63.91154
927.52         63.8823
927.92         63.3082
928.31        62.34635
928.70        61.35299
929.10        60.84475
929.49        60.93007
929.89        61.40072
930.28        62.12278
930.67         62.7537
931.07         63.1211
931.46        63.38998
931.85        63.44472
932.24        63.14739
932.64         62.5645
933.03        61.70832
933.42        60.93513
933.82        60.76301
934.21        61.28122
934.60        62.39533
934.99        63.70483
935.39        64.46777
935.78        64.49764
936.17        63.89634
936.56        63.06778
936.96        62.65483
937.35        62.81721
937.74        63.37802
938.13         63.9273
938.53        63.84321
938.92        63.03267
939.31        61.76526
939.70        60.53024
940.09        60.01376
940.49        60.32351
940.88         61.2556
941.27        62.44451
941.66        63.21857
942.05        63.34456
942.44        63.04275
942.84        62.52264
943.23        62.10555
943.62        61.92106
944.01         61.8274
944.40        61.86121
944.79        62.11432
945.18        62.54706
945.57        63.13123
945.97        63.60511
946.36        63.59884
946.75        63.01265
947.14        62.04286
947.53        60.94505
947.92        60.08253
948.31        59.57248
948.70        59.30647
949.09         59.3348
949.48        59.73395
949.87        60.45169
950.26        61.44463
950.65         62.4162
951.04        62.86885
951.43        62.67798
951.82        61.96557
952.21         61.0168
952.60        60.32522
952.99        60.06952
953.38        60.15417
953.77        60.45611
954.16        60.77368
954.55        61.01864
954.94        61.20701
955.33        61.42112
955.72        61.78613
956.11        62.28845
956.50        62.86457
956.89         63.1849
957.28        62.73913
957.66           61.49
958.05         59.7243
958.44         58.0069
958.83        57.11847
959.22        57.21231
959.61        58.07547
960.00        59.32281
960.39        60.20795
960.78        60.43571
961.16         60.1809
961.55         59.7248
961.94        59.43075
962.33         59.4202
962.72        59.59796
963.11        59.80795
963.49        59.82771
963.88        59.53032
964.27        59.00303
964.66        58.57261
965.04        58.72243
965.43        59.47035
965.82        60.74168
966.21        61.94688
966.60        61.96723
966.98        60.55486
967.37        58.21914
967.76        55.88948
968.15          54.725
968.53        54.93284
968.92         56.2137
969.31        57.99517
969.69        59.10637
970.08        59.04701
970.47        58.18318
970.86        57.16741
971.24        56.93438
971.63        57.68645
972.02        59.13188
972.40        60.74004
972.79        61.26794
973.17        60.43163
973.56        58.72568
973.95         56.8917
974.33        55.84192
974.72        55.78467
975.11        56.43417
975.49        57.50589
975.88        58.39455
976.26        58.87046
976.65        59.04074
977.04        59.02949
977.42        59.00504
977.81          58.986
978.19        58.86424
978.58        58.69299
978.96        58.54458
979.35        58.41927
979.74        58.36969
980.12        58.39573
980.51        58.25999
980.89         58.0607
981.28        57.84612
981.66        57.79337
982.05        58.12451
982.43        58.88483
982.82        59.96193
983.20        61.30591
983.59        62.70265
983.97        64.06499
984.35        65.36645
984.74        66.28261
985.12        66.56343
985.51        66.11958
985.89        65.06317
986.28        63.88694
986.66        63.25549
987.04        63.38419
987.43        64.09966
987.81        65.04097
988.20        65.37006
988.58        64.85913
988.96        63.70791
989.35         62.3558
989.73        61.41597
990.12        61.01017
990.50        60.99432
990.88        61.01579
991.27        60.50444
991.65        59.38457
992.03        57.93695
992.42        56.67943
992.80        56.26761
993.18        56.83586
993.56         58.1843
993.95        59.83161
994.33        61.01484
994.71        61.31831
995.10        61.03608
995.48        60.49363
995.86        60.29704
996.24        60.60899
996.63        61.07816
997.01        61.74459
997.39        62.37475
997.77        62.79384
998.15        63.17169
998.54        63.20263
998.92        62.29023
999.30        60.53929
999.68        58.19352
1000.06        56.09886
1000.45        55.42808
1000.83        56.47843
1001.21        59.01146
1001.59        62.24778
1001.97        64.24184
1002.35        64.23147
1002.73        62.85344
1003.12        61.09912
1003.50        60.16027
1003.88        60.44135
1004.26        61.40841
1004.64        62.98953
1005.02        64.96915
1005.40        66.97427
1005.78        69.13002
1006.16        70.51484
1006.54        69.68071
1006.92        66.66772
1007.30        62.10659
1007.69        57.65377
1008.07        55.49622
1008.45        56.27435
1008.83        59.51502
1009.21        64.23473
1009.59        67.80026
1009.97         68.7642
1010.35        67.75611
1010.73        65.47883
1011.11        63.03689
1011.49        60.98184
1011.86         59.0976
1012.24        57.57917
1012.62        56.68746
1013.00        56.40823
1013.38        56.70834
1013.76        57.61792
1014.14        58.94424
1014.52        60.39308
1014.90         61.8482
1015.28         62.7664
1015.66        62.52314
1016.04        61.11708
1016.41        58.72267
1016.79        56.06042
1017.17        54.58989
1017.55        54.74636
1017.93         56.0885
1018.31        57.92187
1018.69        59.24248
1019.06        59.79404
1019.44        59.87468
1019.82        59.58382
1020.20        59.17573
1020.58        58.81321
1020.95        58.27999
1021.33        57.86574
1021.71        57.84447
1022.09        58.26227
1022.46        59.28199
1022.84         60.4499
1023.22        60.65571
1023.60        59.54881
1023.97        57.32235
1024.35        55.40465
1024.73        55.31071
