SpectraSmart Spectrum 2.9.0.0
--------- Device Information -----------
Spectrum Name :  反射率_0
Saving Time :  2024/04/26 22:12:11
Spectro-Module Model Name : SE2030-DUVN
Spectro-Module Serial Number : OS361AC55029948
Wavelength Start : 200
Wavelength End : 1025
Wavelength Unit : Wavelength(nm)
Spectrum Unit : Reflectance(%)
-----------Spectrum Setting ------------
Integration Time : 20ms
Average : 10
Boxcar : 0
Background removal :  enabled
linearity correction :  enabled
SC :  disabled
Intensity correction :  disabled
DWT denoise :  enabled
savitzky-golay :  disabled
FFT :  disabled
Running average :  disabled
Kalman :  disabled
High pass :  disabled
---------------BEGIN--------------------
Wavelength(nm)             Reflectance(%)
200.29               0
200.75        27.00444
201.21        24.70439
201.67        22.84987
202.13        22.25314
202.58        22.91622
203.04        25.25685
203.50        28.98134
203.96        32.29948
204.42        33.82816
204.88        33.22361
205.34        32.24072
205.80        34.50933
206.26        40.01495
206.72        46.40004
207.18        50.87253
207.64        51.23691
208.10        47.35083
208.55        39.25478
209.01        26.90526
209.47        18.43593
209.93        19.78758
210.39        26.38971
210.85        32.69221
211.31        36.25552
211.77        37.80269
212.23        38.42308
212.69        39.55111
213.14        49.87681
213.60        63.04296
214.06        65.83244
214.52        63.59799
214.98        60.74456
215.44        57.43123
215.90        53.02787
216.36        48.36852
216.81        44.68113
217.27        42.63638
217.73        42.44114
218.19        43.29254
218.65        42.26327
219.11        39.45826
219.57        36.89988
220.02        36.74886
220.48         41.0161
220.94        50.25541
221.40        66.21764
221.86        88.77968
222.32        104.0999
222.77         99.6832
223.23        84.71532
223.69        69.70403
224.15        60.79959
224.61        57.02166
225.06        55.35025
225.52        55.36843
225.98        56.55873
226.44         58.5509
226.90        61.65039
227.36        64.51675
227.81        64.72158
228.27        62.20762
228.73        57.79809
229.19        53.79849
229.65        52.87358
230.10        55.05418
230.56        59.49689
231.02        63.93225
231.48        64.76904
231.93        61.55438
232.39        56.14431
232.85        50.99314
233.31        49.24559
233.77        51.12114
234.22         55.3915
234.68        60.18399
235.14        62.64196
235.60        61.87761
236.05        58.70062
236.51        54.01832
236.97        49.99361
237.43        47.75647
237.88        46.86851
238.34        46.93744
238.80        47.39211
239.26        47.99456
239.71        49.51495
240.17        51.80015
240.63        54.38364
241.08        57.00775
241.54        58.92223
242.00        60.98877
242.46        65.75865
242.91        75.39008
243.37        91.18626
243.83        113.7255
244.28        133.2761
244.74         134.653
245.20        117.6449
245.66        94.82716
246.11        77.12556
246.57        65.56599
247.03        57.09463
247.48        51.41225
247.94        48.97264
248.40        49.35805
248.85        51.41797
249.31        53.82735
249.77        55.36991
250.22        55.89044
250.68        55.27419
251.14         53.6995
251.59        52.33401
252.05        52.09074
252.51          52.891
252.96        52.48103
253.42        48.98716
253.88        43.12184
254.33        36.19657
254.79        31.33674
255.25        30.87345
255.70        34.36217
256.16         40.6536
256.62        46.58738
257.07        47.45485
257.53         44.2246
257.99        39.66806
258.44        36.25089
258.90        36.15604
259.35        38.41367
259.81        41.92518
260.27        45.08527
260.72        45.91107
261.18        44.57551
261.63        41.98696
262.09        39.44063
262.55        37.87318
263.00        37.25782
263.46        37.24498
263.91        37.25257
264.37        36.76474
264.83        35.73348
265.28        34.41506
265.74        33.29041
266.19        32.71732
266.65        32.77466
267.11        33.22957
267.56        33.78808
268.02        33.98651
268.47        33.71043
268.93        33.12774
269.38        32.43176
269.84         31.9676
270.30        31.78915
270.75        31.73637
271.21        31.71629
271.66        31.55594
272.12        31.20836
272.57         30.7436
273.03         30.1351
273.48        29.32782
273.94        28.40596
274.39        27.38532
274.85        26.49287
275.31        25.93048
275.76        25.68837
276.22        25.70476
276.67        25.77497
277.13        25.66173
277.58        25.28155
278.04        24.74313
278.49        24.11281
278.95        23.58918
279.40        23.17747
279.86         22.8618
280.31        22.56439
280.77        22.25867
281.22        21.90334
281.68        21.56323
282.13        21.22887
282.59        20.93991
283.04        20.67762
283.50        20.43634
283.95        20.20479
284.41        19.98134
284.86        19.76446
285.32        19.57265
285.77        19.38892
286.22        19.22874
286.68        19.09272
287.13        18.95491
287.59        18.82372
288.04        18.67899
288.50        18.53589
288.95        18.38136
289.41        18.22979
289.86        18.05614
290.32         17.8834
290.77        17.70899
291.22        17.56283
291.68        17.47915
292.13         17.4578
292.59        17.50038
293.04        17.58801
293.50        17.70641
293.95        17.84275
294.40        18.00532
294.86        18.20106
295.31        18.43456
295.77        18.71354
296.22        19.03437
296.68        19.39364
297.13        19.77726
297.58         20.1869
298.04        20.62433
298.49        21.10387
298.95        21.65961
299.40        22.28078
299.85        22.94649
300.31        23.60509
300.76         24.1785
301.21        24.64835
301.67        25.04366
302.12        25.38784
302.58        25.76586
303.03         26.1747
303.48        26.60551
303.94        27.03394
304.39        27.39908
304.84        27.70183
305.30        27.97671
305.75        28.23077
306.20        28.51882
306.66        28.85223
307.11        29.19094
307.57        29.52216
308.02        29.79078
308.47        29.99081
308.93        30.14573
309.38        30.24528
309.83        30.31628
310.29        30.36878
310.74        30.38971
311.19        30.38953
311.65        30.38137
312.10        30.36083
312.55        30.32474
313.00        30.26527
313.46        30.16495
313.91        30.01428
314.36        29.83569
314.82        29.63334
315.27        29.42493
315.72        29.22037
316.18        29.02175
316.63        28.84806
317.08        28.74232
317.53        28.69983
317.99        28.69542
318.44        28.67685
318.89        28.54771
319.35        28.28913
319.80        27.93652
320.25        27.53795
320.70        27.17236
321.16        26.86902
321.61        26.61804
322.06         26.4198
322.51        26.27515
322.97        26.16887
323.42        26.09836
323.87        26.03788
324.32        25.94826
324.78        25.80457
325.23        25.62591
325.68         25.3842
326.13        25.05352
326.59        24.64794
327.04        24.19628
327.49        23.77305
327.94        23.49236
328.39        23.37054
328.85        23.36544
329.30        23.42074
329.75        23.38366
330.20        23.20893
330.66        22.93733
331.11        22.62609
331.56        22.35201
332.01        22.14285
332.46        21.96417
332.92        21.81054
333.37        21.71468
333.82        21.65889
334.27        21.64423
334.72        21.62017
335.17        21.49498
335.63        21.25235
336.08        20.93633
336.53        20.60701
336.98        20.37507
337.43         20.2748
337.88        20.26893
338.34        20.33665
338.79        20.45879
339.24        20.59951
339.69        20.76024
340.14        20.87528
340.59        20.84176
341.05        20.65312
341.50        20.33721
341.95        19.98706
342.40        19.75081
342.85        19.66549
343.30        19.68906
343.75        19.76372
344.20        19.79166
344.66        19.74322
345.11        19.64791
345.56        19.52324
346.01        19.39527
346.46         19.2797
346.91        19.16851
347.36        19.06657
347.81        18.98765
348.26         18.9323
348.72        18.89672
349.17        18.87792
349.62        18.87766
350.07        18.89178
350.52        18.92265
350.97        18.93539
351.42        18.87735
351.87         18.7433
352.32         18.5463
352.77        18.35377
353.22        18.26596
353.67        18.29691
354.13        18.42018
354.58        18.54545
355.03         18.5274
355.48        18.33685
355.93        18.02494
356.38        17.69509
356.83        17.50231
357.28        17.47483
357.73        17.55463
358.18        17.65757
358.63        17.64794
359.08        17.48885
359.53        17.23324
359.98        16.92878
360.43        16.64047
360.88        16.39475
361.33         16.1736
361.78        15.98518
362.23        15.84684
362.68        15.75781
363.13        15.71437
363.58        15.69384
364.03        15.65544
364.48        15.58386
364.93        15.48306
365.38        15.35592
365.83        15.21345
366.28         15.0627
366.73        14.90131
367.18        14.73589
367.63        14.57782
368.08        14.42919
368.53        14.28864
368.98        14.15374
369.43        14.01652
369.88        13.87525
370.33        13.73628
370.78        13.59533
371.23        13.44568
371.68        13.29175
372.13        13.13781
372.58        13.00658
373.03        12.93372
373.48        12.92034
373.93        12.94738
374.38        12.98177
374.83        12.97173
375.28        12.90102
375.72        12.78135
376.17        12.63287
376.62        12.46937
377.07        12.30341
377.52        12.13541
377.97        11.98282
378.42        11.87649
378.87          11.821
379.32        11.80367
379.77        11.80811
380.22        11.80648
380.67        11.78673
381.11        11.75915
381.56        11.70237
382.01        11.59677
382.46        11.45058
382.91        11.27827
383.36        11.12316
383.81        11.04456
384.26        11.04811
384.71        11.11327
385.15        11.20095
385.60        11.24871
386.05         11.2344
386.50        11.17794
386.95        11.09575
387.40        11.01574
387.85        10.95001
388.29        10.88282
388.74        10.83301
389.19        10.80394
389.64         10.7935
390.09        10.80068
390.54        10.80983
390.98         10.7898
391.43        10.74351
391.88        10.68052
392.33        10.61931
392.78         10.5871
393.23        10.58784
393.67         10.6046
394.12         10.6384
394.57        10.66949
395.02        10.69275
395.47        10.71231
395.91        10.72733
396.36        10.72719
396.81        10.71899
397.26        10.70499
397.71        10.69293
398.15         10.7027
398.60        10.74652
399.05        10.76834
399.50        10.77036
399.95        10.83605
400.39        10.92872
400.84         10.8608
401.29        10.65266
401.74        10.50742
402.18        10.44646
402.63        10.35812
403.08        10.26909
403.53        10.26576
403.97        10.35062
404.42        10.49885
404.87        10.65198
405.32        10.71284
405.76        10.65927
406.21        10.52609
406.66         10.3747
407.11        10.30416
407.55        10.34148
408.00        10.45179
408.45        10.58839
408.90        10.66092
409.34        10.64032
409.79        10.55996
410.24        10.45969
410.68        10.39029
411.13        10.37002
411.58        10.38102
412.03        10.40763
412.47        10.42575
412.92        10.42381
413.37        10.41573
413.81        10.41168
414.26        10.43313
414.71        10.48017
415.15        10.54546
415.60        10.61376
416.05          10.666
416.49        10.69487
416.94        10.70538
417.39        10.70246
417.83        10.69416
418.28        10.68383
418.73        10.66732
419.17        10.65441
419.62        10.66073
420.07        10.68804
420.51        10.73088
420.96        10.77049
421.41        10.77501
421.85        10.73589
422.30        10.66129
422.74        10.57368
423.19        10.55518
423.64        10.59772
424.08        10.62774
424.53        10.62652
424.98        10.64769
425.42        10.69253
425.87         10.6944
426.31        10.67203
426.76        10.73476
427.21        10.85551
427.65        10.87277
428.10        10.79633
428.54        10.75823
428.99        10.76888
429.44        10.78934
429.88        10.80344
430.33        10.74499
430.77        10.64953
431.22        10.70786
431.66        10.88953
432.11        10.95301
432.56        10.88677
433.00        10.85521
433.45        10.83407
433.89        10.70858
434.34        10.57329
434.78        10.36001
435.23        10.64609
435.67         10.7381
436.12        10.77574
436.57        10.79196
437.01        10.79209
437.46         10.7886
437.90        10.77809
438.35         10.7265
438.79        10.65269
439.24        10.62196
439.68        10.64293
440.13         10.6969
440.57        10.76338
441.02        10.81706
441.46         10.8457
441.91         10.8287
442.35        10.78051
442.80        10.82726
443.24        10.92639
443.69        10.88671
444.13        10.73284
444.58        10.67781
445.02        10.72915
445.47        10.77631
445.91        10.79764
446.36        10.81054
446.80        10.80691
447.24        10.78592
447.69        10.75776
448.13        10.73287
448.58        10.71875
449.02        10.71045
449.47        10.71227
449.91        10.72595
450.36        10.75198
450.80        10.78717
451.25        10.82383
451.69        10.84391
452.13        10.84453
452.58         10.8279
453.02        10.80223
453.47        10.78384
453.91        10.77658
454.36        10.77711
454.80        10.77425
455.24        10.74835
455.69        10.70051
456.13        10.63216
456.58        10.56888
457.02        10.53011
457.46        10.52487
457.91        10.54394
458.35        10.56423
458.79        10.55002
459.24         10.5055
459.68        10.43834
460.13        10.38086
460.57        10.35279
461.01        10.36844
461.46        10.40669
461.90        10.46791
462.34        10.54218
462.79        10.61698
463.23        10.69819
463.68        10.75316
464.12        10.73701
464.56        10.64626
465.01        10.51361
465.45        10.37368
465.89         10.3022
466.34        10.30944
466.78        10.37214
467.22          10.461
467.67        10.51288
468.11        10.51402
468.55        10.47888
468.99        10.42993
469.44        10.40173
469.88        10.40508
470.32        10.42644
470.77        10.45593
471.21        10.48217
471.65        10.49863
472.10        10.51255
472.54        10.52156
472.98        10.52552
473.42        10.52512
473.87        10.52246
474.31        10.51468
474.75        10.50909
475.20        10.51011
475.64        10.51347
476.08        10.52059
476.52        10.52692
476.97        10.53236
477.41        10.54352
477.85        10.56607
478.29          10.593
478.74        10.63233
479.18        10.70764
479.62        10.80104
480.06        10.86739
480.50        10.90158
480.95        10.90732
481.39        10.88724
481.83        10.95514
482.27        10.95227
482.72        10.99994
483.16         11.0524
483.60        11.08871
484.04        11.09981
484.48        11.19009
484.93        11.37773
485.37         11.3635
485.81        11.45952
486.25        11.79242
486.69         11.2149
487.14        11.49676
487.58        12.61343
488.02        12.44809
488.46        11.80792
488.90        11.67145
489.34        11.71896
489.79        12.04565
490.23        12.29096
490.67        12.47021
491.11        12.52875
491.55        12.50723
491.99        12.47792
492.43        12.53026
492.88         12.6866
493.32        12.89812
493.76        13.11324
494.20        13.27745
494.64        13.37726
495.08        13.40399
495.52        13.39392
495.96        13.49407
496.41        13.69189
496.85         13.7601
497.29        13.71226
497.73        13.89577
498.17        14.10238
498.61        14.24871
499.05          14.265
499.49        14.30555
499.93        14.34971
500.37        14.46629
500.82         14.6277
501.26        14.75077
501.70        14.82538
502.14        14.90719
502.58        15.00916
503.02        15.12033
503.46        15.24045
503.90        15.37093
504.34        15.48935
504.78        15.55897
505.22        15.57374
505.66        15.54625
506.10        15.50678
506.54        15.50384
506.98        15.55095
507.42        15.63579
507.86        15.73909
508.30        15.82732
508.74        15.88954
509.18        15.93573
509.62        15.97553
510.06        16.02448
510.50        16.08661
510.94         16.1539
511.38        16.21992
511.82        16.27635
512.26        16.32044
512.70          16.356
513.14        16.38594
513.58        16.41406
514.02        16.44216
514.46        16.46881
514.90        16.49386
515.34        16.51763
515.78        16.53917
516.22        16.55735
516.66        16.57109
517.10         16.5784
517.54         16.5787
517.98        16.57351
518.42        16.56094
518.86        16.53792
519.30        16.50606
519.74        16.46792
520.18        16.43213
520.62        16.41135
521.06        16.40802
521.50        16.41849
521.93        16.43489
522.37        16.43759
522.81        16.42332
523.25        16.39474
523.69        16.35837
524.13         16.3249
524.57        16.29612
525.01        16.26783
525.45        16.23288
525.89        16.18048
526.32        16.10854
526.76        16.02731
527.20        15.94522
527.64        15.87582
528.08        15.82265
528.52        15.78063
528.96        15.74658
529.40         15.7153
529.83        15.68302
530.27         15.6513
530.71        15.61323
531.15        15.55973
531.59        15.49052
532.03        15.40794
532.46        15.32068
532.90         15.2538
533.34        15.20989
533.78        15.17572
534.22        15.14192
534.66        15.11145
535.09        15.07077
535.53        14.99101
535.97        14.88972
536.41        14.83328
536.85        14.82918
537.28        14.84388
537.72        14.87175
538.16        14.91405
538.60        14.96516
539.04        15.02616
539.47        15.08284
539.91        15.12302
540.35        15.14383
540.79        15.15046
541.22        15.16437
541.66        15.22589
542.10        15.33948
542.54        15.49251
542.97        15.65666
543.41        15.79311
543.85        15.89038
544.29        15.96309
544.72        16.02721
545.16        16.11967
545.60        16.24639
546.04        16.39725
546.47        16.56516
546.91        16.73513
547.35        16.89697
547.79        17.05418
548.22        17.20064
548.66         17.3231
549.10        17.44259
549.53        17.55546
549.97        17.66909
550.41        17.75532
550.84        17.83606
551.28        17.95921
551.72        18.11193
552.15         18.2868
552.59        18.50144
553.03        18.48447
553.46        18.78293
553.90        18.90067
554.34        18.99912
554.77        19.08204
555.21        19.17107
555.65        19.28486
556.08        19.41851
556.52        19.55372
556.96        19.67261
557.39        19.80209
557.83        19.92277
558.27         19.9283
558.70        19.84896
559.14        19.85306
559.57         19.9402
560.01        20.00478
560.45        20.04435
560.88        20.11768
561.32        20.23262
561.75        20.35172
562.19        20.46364
562.63        20.54594
563.06        20.59111
563.50        20.60972
563.93        20.60745
564.37        20.64709
564.80        20.74524
565.24        20.83548
565.68        20.86077
566.11        21.18617
566.55        21.04698
566.98        21.08713
567.42        21.13224
567.85         21.2396
568.29         21.4208
568.72        21.66563
569.16        21.96526
569.60        22.16966
570.03        22.34573
570.47        22.51721
570.90        22.71247
571.34        22.66417
571.77        22.88975
572.21        22.96059
572.64        23.02114
573.08        23.18397
573.51        23.46346
573.95        23.56859
574.38        23.52073
574.82          23.901
575.25        23.70908
575.69        23.78493
576.12        23.82982
576.56        23.82173
576.99          23.798
577.42        23.75634
577.86        23.83189
578.29        23.99036
578.73        23.87106
579.16        24.02037
579.60        23.65022
580.03        23.66012
580.47        23.53549
580.90        23.65489
581.33        23.46392
581.77        23.56839
582.20        23.02551
582.64        23.23456
583.07        23.10778
583.51        23.11268
583.94        23.03198
584.37        22.84152
584.81        22.58548
585.24        22.37004
585.68        22.29935
586.11        22.09387
586.54        22.24397
586.98        22.19464
587.41         22.1238
587.85        21.96511
588.28         21.7374
588.71        21.91586
589.15        21.79307
589.58        21.53548
590.01        21.69562
590.45         21.6858
590.88        21.69932
591.31        21.63094
591.75        21.57101
592.18        21.51858
592.61        21.41318
593.05        22.08713
593.48        21.98095
593.91        21.85486
594.35        22.02021
594.78        22.00584
595.21         22.0568
595.65        22.16005
596.08        22.40347
596.51        22.64658
596.94         22.7795
597.38        22.98053
597.81         23.2123
598.24        23.37552
598.68        23.52122
599.11        23.79459
599.54        24.14525
599.97        24.26534
600.41        24.86991
600.84        25.04333
601.27        25.37168
601.70        25.64703
602.14        25.97791
602.57        26.18087
603.00        26.65141
603.43        26.72726
603.87        27.51355
604.30        27.95568
604.73        28.39139
605.16        28.51577
605.60         29.0267
606.03        29.24209
606.46        29.35987
606.89        29.85855
607.32        30.77667
607.76        30.75249
608.19        31.38214
608.62        31.59507
609.05        31.95897
609.48        32.20363
609.92        32.73813
610.35        33.14946
610.78        32.98644
611.21        33.29118
611.64        33.67446
612.07        34.13094
612.50        34.36157
612.94        34.65308
613.37        34.94585
613.80        35.01901
614.23        34.96688
614.66        35.20432
615.09        35.74613
615.52         36.1063
615.96        36.21029
616.39        36.56443
616.82        37.23663
617.25        36.69382
617.68        37.31641
618.11        37.44043
618.54        37.74855
618.97        38.00546
619.40        38.17077
619.84        38.31407
620.27         38.1183
620.70        38.23199
621.13        38.49913
621.56        38.49895
621.99        38.26554
622.42        38.20969
622.85        38.38026
623.28        38.53059
623.71        38.62007
624.14        38.83614
624.57        39.03764
625.00         38.7913
625.43        38.86139
625.86         38.6171
626.29        38.38664
626.72        38.00948
627.15        38.05544
627.58        38.04528
628.01        38.04068
628.44        37.90576
628.87        37.61393
629.30        37.17511
629.73        36.68572
630.16        36.38674
630.59        36.27454
631.02        36.11634
631.45        35.86512
631.88         35.6102
632.31        35.33126
632.74        34.94998
633.17         34.4901
633.60        34.04081
634.03        33.62082
634.46        33.20295
634.89        32.77823
635.32        32.34109
635.75        31.89371
636.18        31.41775
636.61        30.94429
637.04        30.52138
637.47        30.15314
637.89        29.84001
638.32        29.56024
638.75        29.19789
639.18        28.92605
639.61        28.60923
640.04        28.31089
640.47        28.03902
640.90        27.79716
641.33        27.58125
641.76        27.38242
642.18        27.19692
642.61        27.01854
643.04        26.85501
643.47        26.72557
643.90        26.65819
644.33        26.65732
644.76        26.71655
645.18        26.80694
645.61        26.87544
646.04        26.91385
646.47        26.93639
646.90         26.9854
647.33        27.12498
647.75        27.36012
648.18        27.69918
648.61        28.10751
649.04         28.4367
649.47        28.65257
649.89        29.18874
650.32        29.30691
650.75        29.76903
651.18        30.31126
651.61        30.70645
652.03         31.0086
652.46        31.53812
652.89        32.28738
653.32        32.96194
653.74        33.46606
654.17        33.94409
654.60        34.16639
655.03        34.50044
655.46        34.31631
655.88        34.94537
656.31        36.16883
656.74        35.06078
657.16        39.15848
657.59        43.34499
658.02        39.35015
658.45        38.96002
658.87         38.9146
659.30        38.85468
659.73        39.40287
660.15         40.3363
660.58        39.76213
661.01        40.02018
661.44        40.50739
661.86        40.79405
662.29        40.82438
662.72        41.21453
663.14        41.23444
663.57        41.50428
664.00        41.81338
664.42        42.14678
664.85        42.50822
665.27        42.94233
665.70        43.35972
666.13        43.62127
666.55        43.70827
666.98        43.61923
667.41        43.43662
667.83        43.57558
668.26        43.62317
668.69        43.90588
669.11        44.23569
669.54         44.5266
669.96        44.75017
670.39        44.92922
670.82        45.08922
671.24        45.26021
671.67        45.44944
672.09        45.59919
672.52        45.71672
672.94        45.86957
673.37        46.02641
673.80        46.01469
674.22        45.89935
674.65        45.91697
675.07          46.104
675.50        46.32862
675.92        46.53331
676.35        46.66634
676.77        46.70815
677.20        46.67379
677.62        46.62181
678.05        46.64404
678.47        46.76224
678.90        46.95417
679.32        47.16463
679.75         47.3149
680.17        47.38088
680.60        47.38874
681.02        47.39072
681.45        47.46072
681.87        47.62441
682.30        47.86109
682.72        48.12013
683.15        48.26429
683.57        48.28633
684.00        48.27486
684.42        48.30116
684.85        48.38649
685.27        48.53234
685.70        48.93878
686.12        49.16395
686.54         49.3597
686.97        49.38936
687.39        49.30668
687.82        49.17839
688.24        49.13665
688.66        49.22086
689.09        49.38372
689.51        49.57889
689.94        49.73686
690.36        49.83622
690.78        49.81512
691.21        49.74694
691.63        49.88527
692.06          50.195
692.48        50.36623
692.90        50.38195
693.33        50.42984
693.75        50.50121
694.17        50.52748
694.60        50.52727
695.02        50.43099
695.44        50.32248
695.87        50.56467
696.29        51.05427
696.71          51.171
697.14        50.92207
697.56         50.7764
697.98        50.81813
698.41        50.92756
698.83        51.05236
699.25        51.35399
699.68         51.7058
700.10        51.94094
700.52        51.98946
700.94        51.86092
701.37        51.66734
701.79        51.64574
702.21        51.83483
702.64        52.13051
703.06        52.44314
703.48        52.62814
703.90         52.6431
704.33        52.54503
704.75        52.38868
705.17          52.251
705.59        52.17121
706.01        52.12627
706.44          52.137
706.86        52.25503
707.28        52.46659
707.70        52.74568
708.12        53.03633
708.55        53.26031
708.97        53.38484
709.39        53.37671
709.81        53.27839
710.23        53.23032
710.66        53.26072
711.08        53.32211
711.50        53.37752
711.92         53.4011
712.34        53.38827
712.76        53.36401
713.19        53.33683
713.61        53.34826
714.03        53.39647
714.45        53.46718
714.87        53.57789
715.29        53.76242
715.71        54.01706
716.13        54.31948
716.56        54.58961
716.98        54.79349
717.40          54.847
717.82        54.75464
718.24        54.57518
718.66        54.44482
719.08        54.54879
719.50        54.35098
719.92        53.98296
720.34        53.84703
720.76        53.96793
721.19        54.10061
721.61         54.2524
722.03        54.49541
722.45        54.79767
722.87        55.12469
723.29        55.37742
723.71        55.36825
724.13        55.07222
724.55        54.62434
724.97        54.20873
725.39        53.75916
725.81           53.83
726.23        54.04895
726.65        54.49222
727.07        54.59121
727.49        54.97942
727.91        55.13826
728.33         55.2835
728.75        55.43088
729.17        55.58871
729.59        55.70966
730.01        55.76515
730.43        55.79961
730.85        55.82289
731.27        55.74533
731.69        55.54722
732.10        55.69635
732.52        55.39324
732.94        55.30406
733.36        55.23417
733.78        55.17928
734.20         55.1502
734.62        55.29599
735.04        55.68721
735.46        55.38771
735.88         56.0587
736.30        55.79132
736.72        56.07996
737.13        56.17587
737.55        56.30451
737.97        56.62197
738.39        56.93549
738.81        56.40846
739.23        55.29663
739.65        55.14277
740.06        55.87358
740.48        56.15972
740.90        55.94442
741.32        56.03399
741.74        56.41605
742.16        56.63199
742.57        56.64291
742.99        56.55866
743.41         56.4335
743.83         56.3398
744.25        56.30471
744.67        56.28717
745.08        56.29298
745.50        56.32625
745.92        56.38811
746.34        56.46429
746.75         56.5205
747.17        56.56265
747.59        56.46823
748.01        56.35201
748.42        56.22626
748.84        56.18666
749.26        56.25128
749.68        56.35017
750.09        56.44871
750.51        56.57901
750.93        56.67666
751.35        56.57542
751.76        56.31641
752.18        56.12568
752.60        55.99973
753.01        55.91708
753.43        55.90276
753.85        55.78267
754.27        55.50455
754.68        56.24586
755.10        55.93673
755.52        56.16092
755.93        56.28336
756.35        56.34322
756.77         56.3874
757.18         56.4566
757.60        56.59315
758.02        56.90677
758.43        57.25039
758.85         56.8946
759.26         56.9366
759.68        56.10683
760.10        55.95601
760.51        56.41075
760.93        56.81252
761.34         57.1304
761.76        57.06141
762.18        57.00219
762.59        57.03906
763.01        57.11574
763.42        57.26853
763.84        57.36878
764.26        57.39213
764.67        57.27299
765.09        57.12033
765.50         57.0753
765.92        57.13322
766.33        57.19413
766.75         57.1467
767.16        56.78204
767.58        56.22336
768.00        56.16954
768.41        56.63756
768.83        56.95961
769.24          57.015
769.66        57.19752
770.07        57.42504
770.49        57.11879
770.90        56.52085
771.32        56.76674
771.73        57.70008
772.15        58.05004
772.56        57.76699
772.97        57.42248
773.39         57.1063
773.80        57.36492
774.22        57.23379
774.63        57.23533
775.05        57.57022
775.46        57.65341
775.88        57.60151
776.29        57.45821
776.70        57.31322
777.12        57.29435
777.53        57.43359
777.95        57.65634
778.36        57.88582
778.77          57.968
779.19        57.88734
779.60        57.71962
780.02        57.51263
780.43        57.41912
780.84        57.49653
781.26        57.42616
781.67        57.31103
782.09        57.91828
782.50        58.94265
782.91        58.94335
783.33        58.04951
783.74        57.69146
784.15        57.93803
784.57        58.11049
784.98        58.20461
785.39        57.88904
785.81        58.10541
786.22        58.40868
786.63        58.93819
787.04        59.16811
787.46         59.0658
787.87        58.85619
788.28        58.65363
788.70        58.54626
789.11        58.55627
789.52        58.69032
789.93        58.86131
790.35        58.90656
790.76        58.77979
791.17        58.54948
791.58        58.34727
792.00        58.16398
792.41         58.0069
792.82         58.5723
793.23        58.82942
793.65        58.53462
794.06        57.68734
794.47        57.75581
794.88        58.60191
795.29        58.92198
795.71        58.65729
796.12        58.53984
796.53        58.69877
796.94        58.81191
797.35        58.89301
797.76         59.0138
798.18        59.12559
798.59        59.19101
799.00        59.18291
799.41        59.10885
799.82        59.00529
800.23        58.94533
800.64        58.94494
801.06        58.95598
801.47        59.00212
801.88        59.02582
802.29        59.00547
802.70         58.9854
803.11        58.97699
803.52        58.80572
803.93        58.80186
804.34        58.73594
804.75        58.70688
805.17         58.8023
805.58        59.07745
805.99        59.19017
806.40        59.18528
806.81         59.8622
807.22        60.87278
807.63        60.56945
808.04        59.20201
808.45        58.62046
808.86        58.97976
809.27        59.28912
809.68        59.37731
810.09        59.42252
810.50        59.37132
810.91        59.18006
811.32        58.98309
811.73        58.99065
812.14        59.24084
812.55         59.6754
812.96        60.12626
813.37        60.27505
813.78        60.04194
814.19        59.55822
814.60        59.00258
815.01        58.61006
815.42        58.44053
815.83         58.4224
816.24         58.5225
816.65        58.67458
817.05        58.84053
817.46        59.01891
817.87        59.18359
818.28        59.25012
818.69        59.20856
819.10        59.05724
819.51        58.88298
819.92        58.87275
820.33        59.07051
820.74        59.37505
821.14        59.67144
821.55        59.88961
821.96        59.92958
822.37        59.57516
822.78        58.99503
823.19        58.73502
823.60        58.88801
824.00        59.22163
824.41        59.56018
824.82        59.77719
825.23        59.79448
825.64        59.66049
826.04        59.44154
826.45        59.20853
826.86        59.01482
827.27        58.84917
827.68        58.72041
828.08        58.66843
828.49        58.65522
828.90        58.69347
829.31        58.80125
829.72        58.99856
830.12        59.29339
830.53        59.62116
830.94        59.88668
831.35        59.89609
831.75        59.63042
832.16        59.13569
832.57        58.59826
832.97        58.29785
833.38        58.30435
833.79        58.51683
834.20        58.84006
834.60        59.11322
835.01         59.2827
835.42        59.44209
835.82        59.55416
836.23        59.48891
836.64        59.26766
837.04        58.88137
837.45        58.56844
837.86        58.77706
838.26         59.5914
838.67        60.85144
839.08         62.1005
839.48        62.47833
839.89        61.78181
840.29        60.33089
840.70        58.78279
841.11        57.92068
841.51         57.9401
841.92        58.58616
842.33        59.58577
842.73         60.4405
843.14        60.84995
843.54        61.00152
843.95        60.98018
844.35        60.96946
844.76         61.0157
845.17        61.03548
845.57        60.99184
845.98        60.82919
846.38        60.56477
846.79        60.23806
847.19        59.93542
847.60         59.7547
848.00        59.72865
848.41        59.80951
848.81        59.93911
849.22         59.9479
849.62        59.82872
850.03         59.6134
850.43        59.39012
850.84        59.24398
851.24        59.24475
851.65        59.31975
852.05        59.50638
852.46        59.77043
852.86        60.07775
853.27        60.41549
853.67          60.681
854.07        60.83383
854.48        60.84876
854.88        60.76517
855.29        60.56878
855.69        60.35713
856.10        60.11253
856.50        59.87792
856.90        59.67558
857.31        59.55645
857.71        59.57147
858.12        59.65482
858.52        59.76427
858.92        59.72185
859.33        59.47498
859.73        59.12025
860.13        58.70488
860.54        58.33086
860.94        58.08703
861.34        57.94019
861.75        57.91466
862.15        58.08392
862.55        58.41835
862.96         58.8503
863.36        59.32166
863.76        59.65994
864.17        59.78816
864.57        59.76876
864.97        59.56464
865.38        59.13935
865.78        58.55452
866.18        57.83881
866.58        57.18097
866.99        56.91162
867.39        57.12519
867.79         57.7076
868.19        58.46023
868.60        59.05192
869.00        59.40333
869.40        59.57235
869.80        59.56796
870.21        59.42754
870.61        59.24907
871.01        58.98426
871.41        58.67929
871.81        58.40443
872.22        58.16876
872.62        57.96014
873.02        57.81314
873.42        57.75837
873.82        57.79101
874.22        57.90701
874.63        57.99131
875.03        57.88181
875.43        57.54789
875.83        57.04705
876.23        56.55509
876.63        56.35142
877.03        56.49493
877.44        56.86751
877.84        57.32161
878.24        57.63612
878.64        57.67762
879.04        57.35377
879.44        56.85898
879.84        56.62408
880.24        56.70629
880.64        56.93426
881.04        57.10971
881.44        56.95422
881.84        56.41969
882.24        55.63063
882.65         54.8513
883.05        54.47453
883.45        54.59497
883.85        55.09426
884.25        55.76152
884.65        56.23103
885.05        56.38487
885.45        56.33216
885.85        56.19466
886.25        56.16522
886.65        56.29691
887.05        56.50037
887.45        56.72879
887.85        56.92044
888.25        57.03415
888.65        57.09269
889.04        57.05928
889.44          56.896
889.84        56.59608
890.24        56.17854
890.64        55.71838
891.04        55.34475
891.44        55.11327
891.84        55.02486
892.24        55.03173
892.64        55.04296
893.04        55.04482
893.44        55.06618
893.83        55.19471
894.23        55.52476
894.63        56.06755
895.03        56.73663
895.43        57.39786
895.83        57.85205
896.23        58.02188
896.63        57.94348
897.02        57.65144
897.42        57.24035
897.82        56.77349
898.22        56.28186
898.62        55.80901
899.01        55.40174
899.41        55.09374
899.81         54.8711
900.21        54.78464
900.61        54.90173
901.00        55.20223
901.40        55.64179
901.80        56.05127
902.20        56.16186
902.59        55.93617
902.99           55.46
903.39        54.91754
903.79        54.61859
904.18        54.63874
904.58        54.86771
904.98        55.24227
905.38        55.66967
905.77        56.09826
906.17        56.58617
906.57        56.97227
906.96        56.98969
907.36        56.59381
907.76        55.85223
908.15        55.12656
908.55        54.98487
908.95        55.54081
909.34        56.64012
909.74        57.79716
910.14        58.26866
910.53        57.84589
910.93        56.79687
911.33        55.51824
911.72         54.6159
912.12        54.31935
912.52        54.44112
912.91        54.78218
913.31        55.05445
913.70        55.17095
914.10        55.20309
914.49        55.29505
914.89        55.60295
915.29        56.15915
915.68        56.86794
916.08        57.47085
916.47        57.62441
916.87        57.27308
917.26        56.53084
917.66        55.71852
918.05        55.18828
918.45        55.03983
918.84        55.22477
919.24          55.542
919.64        55.75421
920.03        55.78981
920.42        55.68443
920.82        55.62383
921.21        55.84157
921.61        56.36255
922.00        57.12853
922.40          57.849
922.79        58.15152
923.19          57.913
923.58        57.28025
923.98        56.56242
924.37         56.1623
924.77        56.18585
925.16         56.4868
925.55        56.87848
925.95         57.0187
926.34        56.81899
926.74        56.38246
927.13        55.83426
927.52        55.29921
927.92        54.88697
928.31        54.55944
928.70        54.34623
929.10        54.27208
929.49        54.31536
929.89         54.4179
930.28        54.66872
930.67        55.11113
931.07        55.69239
931.46        56.44344
931.85        57.03479
932.24         56.9926
932.64          56.293
933.03        55.06146
933.42        53.85647
933.82        53.49121
934.21        54.12065
934.60         55.5624
934.99        57.22798
935.39        58.04712
935.78        57.74242
936.17        56.53731
936.56         55.0591
936.96        54.30068
937.35        54.50071
937.74        55.35331
938.13        56.28361
938.53         56.3989
938.92        55.53308
939.31        54.07235
939.70        52.55571
940.09        51.73213
940.49        51.75388
940.88        52.37663
941.27        53.35112
941.66        54.21799
942.05        54.77485
942.44        55.18538
942.84         55.4228
943.23        55.42915
943.62        55.24604
944.01        54.82002
944.40        54.41791
944.79        54.52352
945.18        55.20554
945.57        56.32921
945.97        57.41497
946.36        57.71119
946.75        57.00808
947.14        55.61454
947.53         54.0126
947.92        52.88508
948.31        52.41826
948.70        52.42488
949.09        52.73562
949.48        53.05621
949.87        53.26368
950.26        53.45033
950.65        53.64589
951.04        53.88433
951.43        54.15906
951.82        54.39678
952.21         54.5403
952.60        54.53753
952.99        54.39701
953.38        54.17818
953.77        53.93745
954.16         53.7555
954.55        53.65461
954.94        53.58581
955.33        53.60173
955.72        53.78223
956.11        54.11724
956.50        54.60305
956.89        54.98484
957.28        54.83985
957.66        54.10478
958.05        52.95398
958.44        51.81778
958.83        51.31976
959.22        51.56769
959.61        52.39235
960.00        53.39853
960.39         53.8427
960.78        53.50759
961.16        52.64289
961.55        51.67072
961.94        51.13937
962.33        51.20064
962.72        51.70987
963.11        52.46335
963.49        53.09702
963.88         53.3745
964.27          53.362
964.66        53.27644
965.04        53.47116
965.43        53.96559
965.82         54.7129
966.21        55.27298
966.60        54.86067
966.98        53.37081
967.37        51.23106
967.76        49.26223
968.15         48.4729
968.53        49.01825
968.92        50.63825
969.31        52.72381
969.69        54.00812
970.08        53.95974
970.47        52.95864
970.86        51.70001
971.24        51.18753
971.63        51.65059
972.02        52.78947
972.40        54.13776
972.79        54.59963
973.17         53.9169
973.56        52.52803
973.95        51.04117
974.33        50.19563
974.72        50.14806
975.11        50.62606
975.49        51.40282
975.88        52.01067
976.26        52.29474
976.65        52.40466
977.04        52.36132
977.42        52.16124
977.81        51.81936
978.19        51.26645
978.58         50.8871
978.96        51.27607
979.35        52.50465
979.74        54.45225
980.12        56.50082
980.51        57.30841
980.89        56.67028
981.28        54.97047
981.66        53.09089
982.05        52.27458
982.43        52.80505
982.82        54.30359
983.20        56.29978
983.59        57.80898
983.97        58.48335
984.35        58.58203
984.74        58.17231
985.12        57.62722
985.51        57.06042
985.89        56.36406
986.28        55.74822
986.66        55.48037
987.04        55.64395
987.43        56.18482
987.81        56.86061
988.20        57.07294
988.58        56.67493
988.96         55.7976
989.35        54.74171
989.73        53.95372
990.12        53.53217
990.50        53.38805
990.88        53.34359
991.27        53.12055
991.65        52.65512
992.03        52.06361
992.42        51.60514
992.80        51.60289
993.18        52.13327
993.56        53.13072
993.95        54.20728
994.33        54.79932
994.71        54.63719
995.10        53.94581
995.48        53.20348
995.86        53.22709
996.24        54.18127
996.63        55.72404
997.01        57.49318
997.39        58.43063
997.77        58.12854
998.15        57.03183
998.54        55.45795
998.92        53.74981
999.30        52.19735
999.68        50.73192
1000.06        49.79762
1000.45        49.99925
1000.83        51.47129
1001.21        54.14584
1001.59        57.34958
1001.97        59.34337
1002.35        59.43587
1002.73        58.11949
1003.12        56.33884
1003.50        55.26889
1003.88        55.29891
1004.26        55.95298
1004.64        57.14455
1005.02        58.61884
1005.40        60.07132
1005.78        61.69656
1006.16         62.7354
1006.54        61.97426
1006.92        59.44753
1007.30        55.63611
1007.69        52.02789
1008.07        50.59792
1008.45        51.91406
1008.83        55.56973
1009.21        60.45491
1009.59        63.69427
1009.97         63.8583
1010.35        61.73919
1010.73         58.4647
1011.11        55.70382
1011.49        54.04987
1011.86        53.04726
1012.24        52.60147
1012.62        52.64342
1013.00        53.07244
1013.38        53.96854
1013.76        55.27217
1014.14        56.56744
1014.52        57.51479
1014.90        58.07458
1015.28        58.00995
1015.66        57.11174
1016.04        55.47173
1016.41        53.19113
1016.79        50.91455
1017.17        49.90072
1017.55        50.46066
1017.93        52.15628
1018.31        54.24909
1018.69        55.69629
1019.06        56.21344
1019.44        56.05558
1019.82        55.26425
1020.20        54.09816
1020.58        52.84864
1020.95        51.46852
1021.33        50.32246
1021.71        49.67076
1022.09         49.5161
1022.46        49.96569
1022.84        50.74976
1023.22        51.10141
1023.60        50.74103
1023.97         49.6992
1024.35        48.93377
1024.73        49.46822
