SpectraSmart Spectrum 2.9.0.0
--------- Device Information -----------
Spectrum Name :  反射率_0
Saving Time :  2024/04/26 22:11:30
Spectro-Module Model Name : SE2030-DUVN
Spectro-Module Serial Number : OS361AC55029948
Wavelength Start : 200
Wavelength End : 1025
Wavelength Unit : Wavelength(nm)
Spectrum Unit : Reflectance(%)
-----------Spectrum Setting ------------
Integration Time : 20ms
Average : 10
Boxcar : 0
Background removal :  enabled
linearity correction :  enabled
SC :  disabled
Intensity correction :  disabled
DWT denoise :  enabled
savitzky-golay :  disabled
FFT :  disabled
Running average :  disabled
Kalman :  disabled
High pass :  disabled
---------------BEGIN--------------------
Wavelength(nm)             Reflectance(%)
200.29               0
200.75        29.58994
201.21         29.9731
201.67        30.00324
202.13        29.31439
202.58        27.83314
203.04        25.84554
203.50        23.91508
203.96         23.8262
204.42        26.72546
204.88        32.14032
205.34        38.73559
205.80        43.86251
206.26        46.15778
206.72        45.95349
207.18        44.05026
207.64        41.03616
208.10        36.76855
208.55        30.50482
209.01        21.56533
209.47        14.45777
209.93         13.5668
210.39        16.96218
210.85        20.98637
211.31        23.86653
211.77        26.31371
212.23        30.03375
212.69           39.88
213.14          66.312
213.60        82.21571
214.06        76.26812
214.52        67.33046
214.98        61.37358
215.44        56.79031
215.90         51.5804
216.36        46.62739
216.81        43.55221
217.27        43.16304
217.73        46.21495
218.19        51.36993
218.65        51.69304
219.11        45.82063
219.57        38.52637
220.02        34.48898
220.48        36.28159
220.94        43.60257
221.40        57.35303
221.86        76.34228
222.32        86.07054
222.77        76.34185
223.23        58.20293
223.69        42.30981
224.15        34.13451
224.61        32.00072
225.06        32.57728
225.52        34.86691
225.98        38.09694
226.44        41.87453
226.90        46.58572
227.36        50.93847
227.81        52.41932
228.27        50.89612
228.73        47.28186
229.19        43.76108
229.65        42.94362
230.10        44.91265
230.56        48.71669
231.02        52.66469
231.48        54.02657
231.93        52.32409
232.39        49.08855
232.85        45.65287
233.31        43.67932
233.77        43.43445
234.22        44.30929
234.68        45.82691
235.14        47.44655
235.60        48.90374
236.05        50.43264
236.51        51.83266
236.97        52.61814
237.43        52.60262
237.88        51.82062
238.34        50.54446
238.80        49.57231
239.26        49.23043
239.71        49.74384
240.17        50.95848
240.63        52.75541
241.08        55.06107
241.54        57.52976
242.00        60.77141
242.46        66.20982
242.91        75.51584
243.37         90.0485
243.83        109.4743
244.28        123.3401
244.74        117.8082
245.20        94.17944
245.66        68.70059
246.11        54.33089
246.57        50.86901
247.03        54.56292
247.48        60.13458
247.94        58.79348
248.40        51.36403
248.85        42.89066
249.31        36.97263
249.77        35.60041
250.22        38.32729
250.68        44.56961
251.14        53.41669
251.59        60.03752
252.05        61.22096
252.51        59.14482
252.96        55.42393
253.42        52.17216
253.88        49.86375
254.33        47.52549
254.79        47.01742
255.25        49.79005
255.70        55.37469
256.16        63.27326
256.62        69.98664
257.07        70.20725
257.53        65.53383
257.99        59.30773
258.44        54.54448
258.90        53.93769
259.35        56.24805
259.81        60.23203
260.27        63.94308
260.72        64.98135
261.18        63.56903
261.63        60.68848
262.09        57.94149
262.55         56.4484
263.00        56.12078
263.46        56.54358
263.91        56.87384
264.37        56.39331
264.83        55.03205
265.28        53.15621
265.74        51.47674
266.19        50.54016
266.65        50.46502
267.11        50.90036
267.56        51.42964
268.02        51.41404
268.47        50.69363
268.93        49.53551
269.38        48.18291
269.84        47.06339
270.30        46.27689
270.75        45.65464
271.21        45.16814
271.66        44.72112
272.12        44.26565
272.57        43.82099
273.03        43.28276
273.48        42.45786
273.94        41.39874
274.39        40.14912
274.85        38.96547
275.31        38.05537
275.76        37.43606
276.22        37.08179
276.67        36.83089
277.13        36.54944
277.58        36.13912
278.04        35.65801
278.49        35.12711
278.95        34.70558
279.40        34.34991
279.86         34.0745
280.31        33.70166
280.77        33.10192
281.22        32.24595
281.68        31.28938
282.13        30.38181
282.59        29.81236
283.04        29.58071
283.50        29.60718
283.95        29.73719
284.41        29.73974
284.86        29.54566
285.32        29.25819
285.77        28.93325
286.22        28.71267
286.68        28.62504
287.13        28.57646
287.59        28.55544
288.04        28.50627
288.50        28.43008
288.95        28.31963
289.41        28.17194
289.86        27.90662
290.32        27.56745
290.77        27.18017
291.22        26.83625
291.68         26.6549
292.13        26.65675
292.59        26.82579
293.04        27.13305
293.50         27.5491
293.95        28.03602
294.40        28.59344
294.86        29.18396
295.31        29.74205
295.77        30.25832
296.22        30.73179
296.68         31.1935
297.13        31.68438
297.58         32.2259
298.04        32.80875
298.49        33.42504
298.95        34.07864
299.40        34.74942
299.85        35.43129
300.31        36.10113
300.76        36.71068
301.21        37.24859
301.67        37.73329
302.12        38.14814
302.58        38.53656
303.03         38.8808
303.48        39.19552
303.94        39.49426
304.39        39.75713
304.84        39.99728
305.30        40.22939
305.75        40.43664
306.20           40.65
306.66        40.88214
307.11         41.1125
307.57        41.32404
308.02          41.435
308.47        41.45009
308.93        41.39575
309.38        41.32546
309.83        41.37804
310.29        41.56868
310.74        41.84328
311.19        42.08767
311.65        42.11007
312.10        41.86863
312.55        41.43633
313.00        40.94305
313.46        40.57988
313.91        40.38093
314.36        40.29757
314.82         40.2552
315.27         40.1454
315.72        39.92921
316.18        39.65575
316.63        39.34873
317.08        39.05729
317.53        38.79548
317.99        38.53783
318.44        38.27836
318.89        38.00192
319.35        37.70602
319.80         37.3991
320.25        37.09332
320.70        36.80494
321.16        36.53307
321.61        36.28307
322.06        36.03123
322.51        35.74352
322.97        35.41027
323.42        35.04774
323.87         34.6921
324.32        34.40734
324.78        34.19365
325.23        34.05161
325.68        33.91264
326.13        33.67387
326.59        33.31539
327.04        32.88329
327.49        32.44967
327.94        32.13058
328.39        31.94597
328.85        31.84152
329.30        31.78094
329.75        31.63944
330.20        31.38273
330.66        31.04445
331.11        30.68207
331.56        30.35901
332.01         30.0965
332.46        29.86755
332.92        29.64482
333.37        29.43468
333.82        29.21724
334.27        29.00803
334.72        28.80293
335.17        28.58685
335.63        28.35909
336.08        28.14132
336.53        27.95078
336.98        27.82773
337.43        27.77822
337.88        27.77877
338.34        27.80951
338.79        27.86643
339.24        27.92088
339.69        27.97054
340.14        27.96812
340.59        27.84368
341.05        27.60163
341.50        27.26696
341.95        26.92134
342.40        26.68815
342.85        26.59898
343.30        26.62134
343.75        26.70066
344.20        26.74537
344.66        26.72674
345.11        26.66404
345.56         26.5801
346.01        26.51301
346.46         26.4743
346.91        26.44968
347.36        26.41629
347.81        26.34463
348.26        26.23211
348.72        26.09464
349.17        25.96409
349.62        25.90089
350.07        25.91482
350.52        25.98668
350.97        26.06555
351.42        26.06956
351.87        25.98093
352.32        25.82705
352.77        25.65654
353.22        25.54076
353.67        25.49459
354.13        25.49347
354.58         25.5037
355.03        25.47425
355.48        25.39039
355.93         25.2728
356.38        25.14266
356.83        25.02823
357.28        24.93664
357.73        24.85475
358.18         24.7741
358.63        24.68569
359.08        24.58462
359.53         24.4729
359.98        24.35012
360.43        24.21137
360.88        24.05659
361.33        23.89134
361.78        23.71339
362.23        23.52182
362.68        23.32361
363.13        23.12195
363.58        22.94047
364.03        22.81338
364.48        22.74126
364.93         22.7101
365.38        22.68274
365.83        22.59879
366.28        22.44549
366.73        22.24398
367.18        22.02463
367.63        21.83605
368.08        21.69318
368.53        21.58064
368.98        21.49166
369.43        21.41467
369.88        21.34224
370.33        21.28015
370.78        21.21681
371.23        21.13102
371.68        21.02173
372.13        20.89593
372.58        20.77372
373.03        20.68937
373.48        20.64833
373.93        20.63385
374.38        20.63074
374.83        20.61605
375.28        20.57585
375.72        20.50707
376.17         20.4115
376.62        20.26623
377.07        20.07584
377.52        19.85477
377.97        19.62735
378.42        19.43716
378.87        19.29982
379.32        19.20189
379.77        19.14446
380.22        19.12446
380.67        19.13107
381.11        19.17018
381.56        19.19016
382.01        19.12413
382.46        18.96749
382.91        18.75001
383.36        18.53658
383.81        18.42007
384.26        18.41117
384.71        18.47122
385.15        18.55717
385.60        18.59891
386.05        18.56925
386.50         18.4957
386.95        18.37355
387.40        18.19623
387.85         17.9837
388.29        17.73902
388.74        17.53692
389.19        17.43948
389.64        17.44964
390.09        17.53694
390.54        17.65155
390.98        17.70357
391.43        17.67563
391.88        17.59267
392.33        17.47034
392.78        17.33203
393.23        17.19306
393.67        17.04119
394.12        16.91441
394.57        16.83591
395.02        16.80667
395.47        16.81349
395.91        16.83718
396.36        16.83118
396.81        16.79224
397.26        16.73687
397.71        16.66481
398.15        16.58707
398.60         16.5301
399.05        16.42138
399.50        16.29991
399.95        16.34273
400.39        16.50027
400.84        16.47009
401.29         16.2568
401.74         16.1244
402.18        16.08722
402.63        15.98318
403.08        15.84163
403.53        15.78032
403.97        15.80691
404.42         15.8876
404.87        15.97304
405.32        15.98227
405.76        15.89475
406.21        15.74486
406.66        15.58077
407.11         15.4783
407.55        15.46175
408.00        15.50328
408.45        15.56738
408.90        15.58418
409.34        15.53223
409.79        15.43589
410.24        15.33639
410.68        15.28573
411.13        15.29803
411.58        15.35471
412.03        15.41249
412.47        15.40092
412.92        15.30026
413.37        15.14231
413.81        14.98149
414.26        14.90593
414.71        14.92546
415.15        15.01839
415.60        15.12939
416.05        15.17321
416.49        15.12609
416.94        15.01534
417.39        14.88723
417.83        14.81153
418.28        14.80491
418.73        14.83982
419.17        14.89344
419.62        14.93062
420.07        14.93808
420.51        14.92664
420.96        14.89607
421.41        14.84123
421.85        14.76144
422.30        14.65358
422.74        14.53406
423.19        14.49438
423.64        14.51642
424.08         14.5033
424.53        14.44031
424.98        14.41529
425.42        14.43468
425.87        14.40672
426.31        14.34208
426.76        14.36246
427.21        14.42857
427.65        14.33583
428.10        14.13171
428.54        14.03793
428.99        14.07376
429.44         14.1704
429.88        14.27144
430.33        14.23353
430.77        14.09212
431.22        14.11958
431.66        14.29632
432.11        14.34296
432.56        14.25399
433.00        14.22818
433.45         14.2247
433.89        14.07926
434.34        13.90499
434.78        13.62086
435.23        13.97287
435.67         14.0271
436.12        13.96921
436.57        13.85175
437.01        13.71483
437.46        13.63246
437.90        13.61529
438.35        13.60251
438.79         13.5858
439.24        13.59954
439.68        13.63996
440.13        13.69606
440.57        13.75173
441.02        13.79357
441.46        13.81281
441.91        13.77506
442.35        13.69718
442.80        13.73946
443.24        13.84639
443.69        13.77821
444.13        13.56552
444.58        13.47237
445.02        13.50984
445.47        13.54212
445.91        13.54688
446.36        13.55361
446.80         13.5527
447.24        13.53722
447.69        13.51966
448.13        13.51363
448.58        13.52439
449.02        13.54407
449.47        13.56339
449.91        13.56089
450.36        13.53773
450.80        13.50191
451.25        13.46736
451.69        13.44717
452.13        13.44613
452.58        13.45333
453.02        13.46854
453.47        13.49427
453.91         13.5252
454.36        13.56164
454.80        13.57613
455.24        13.52404
455.69        13.40752
456.13        13.23697
456.58        13.07199
457.02        12.97866
457.46        12.97752
457.91        13.04781
458.35        13.13825
458.79        13.16851
459.24        13.13146
459.68        13.04296
460.13        12.96081
460.57        12.93735
461.01        12.99379
461.46        13.09635
461.90        13.21595
462.34        13.29365
462.79        13.30632
463.23        13.27792
463.68        13.21697
464.12        13.14688
464.56        13.07892
465.01        13.02427
465.45        12.97394
465.89        12.95263
466.34        12.96107
466.78        12.99144
467.22        13.03913
467.67        13.08082
468.11        13.11477
468.55        13.13822
468.99        13.15103
469.44        13.15308
469.88        13.14721
470.32        13.13397
470.77        13.11876
471.21        13.11398
471.65          13.121
472.10        13.13796
472.54        13.16156
472.98        13.19088
473.42        13.22323
473.87        13.26354
474.31         13.2934
474.75        13.29788
475.20         13.2802
475.64        13.24135
476.08        13.20753
476.52        13.21208
476.97        13.26182
477.41        13.35324
477.85        13.46584
478.29        13.54439
478.74          13.588
479.18        13.64237
479.62        13.70976
480.06        13.77156
480.50        13.83132
480.95        13.88172
481.39        13.90893
481.83           14.03
482.27        14.03606
482.72        14.09667
483.16        14.15646
483.60        14.19109
484.04        14.20204
484.48        14.28538
484.93        14.44043
485.37        14.40443
485.81         14.6754
486.25        14.80958
486.69        14.43725
487.14        14.98115
487.58        15.75066
488.02        15.52784
488.46        15.15737
488.90        15.24193
489.34          15.272
489.79        15.56086
490.23        15.72712
490.67        15.92639
491.11        16.07923
491.55        16.01943
491.99        15.83952
492.43         15.8321
492.88        16.03617
493.32        16.29559
493.76        16.54829
494.20        16.77053
494.64        16.94356
495.08        17.04023
495.52        17.09009
495.96        17.25509
496.41        17.51071
496.85        17.57262
497.29        17.46828
497.73        17.65425
498.17        17.87153
498.61        18.01547
499.05        17.99896
499.49         18.0169
499.93         18.0457
500.37        18.17443
500.82        18.37672
501.26        18.56029
501.70        18.70945
502.14         18.8839
502.58        19.08114
503.02        19.25861
503.46        19.40839
503.90        19.54174
504.34        19.63844
504.78        19.66711
505.22        19.63042
505.66        19.54342
506.10         19.4571
506.54        19.45136
506.98        19.54438
507.42        19.71471
507.86         19.9182
508.30        20.07855
508.74        20.17089
509.18        20.21411
509.62        20.23069
510.06        20.25962
510.50        20.31234
510.94         20.3728
511.38        20.43036
511.82        20.47034
512.26        20.49017
512.70        20.50208
513.14        20.51157
513.58        20.52418
514.02        20.54327
514.46        20.56418
514.90        20.59466
515.34        20.64796
515.78        20.72198
516.22        20.81044
516.66        20.88841
517.10        20.91631
517.54        20.88743
517.98        20.81521
518.42        20.72748
518.86         20.6701
519.30        20.65516
519.74        20.66789
520.18        20.69275
520.62        20.70383
521.06        20.69291
521.50        20.67136
521.93        20.63998
522.37         20.5916
522.81        20.53236
523.25         20.4614
523.69        20.39531
524.13        20.36185
524.57        20.36157
525.01        20.38169
525.45        20.39819
525.89        20.37113
526.32        20.29059
526.76        20.18014
527.20        20.05106
527.64        19.92277
528.08        19.80714
528.52        19.69867
528.96        19.61887
529.40        19.60068
529.83        19.64279
530.27        19.73394
530.71        19.82674
531.15        19.84611
531.59        19.77556
532.03        19.63598
532.46        19.46909
532.90        19.35713
533.34         19.3176
533.78        19.31735
534.22        19.32824
534.66        19.32996
535.09        19.29806
535.53        19.20542
535.97        19.08099
536.41        19.01759
536.85        19.02788
537.28        19.06548
537.72         19.1197
538.16        19.18851
538.60        19.26309
539.04        19.34497
539.47        19.42016
539.91        19.47949
540.35         19.5191
540.79        19.54274
541.22          19.568
541.66        19.63134
542.10        19.73626
542.54        19.87187
542.97        20.01526
543.41        20.13775
543.85        20.23039
544.29        20.30805
544.72        20.38017
545.16        20.47512
545.60        20.59775
546.04         20.7425
546.47        20.91368
546.91        21.11381
547.35         21.3336
547.79        21.56732
548.22        21.79385
548.66         21.9772
549.10        22.13772
549.53          22.276
549.97        22.40332
550.41        22.48847
550.84        22.56207
551.28        22.68232
551.72        22.83771
552.15        23.02692
552.59        23.27357
553.03        23.23562
553.46        23.59282
553.90        23.70836
554.34        23.78186
554.77         23.8205
555.21        23.86195
555.65        23.94678
556.08        24.07438
556.52        24.22067
556.96        24.34876
557.39        24.46843
557.83        24.55248
558.27        24.47686
558.70        24.30679
559.14        24.29123
559.57        24.43493
560.01         24.5926
560.45        24.72237
560.88        24.83889
561.32        24.94048
561.75        24.99903
562.19        25.03639
562.63        25.08146
563.06        25.13833
563.50        25.20162
563.93        25.24972
564.37        25.31507
564.80        25.40811
565.24        25.46479
565.68        25.43694
566.11        25.80213
566.55        25.63596
566.98        25.70451
567.42         25.7837
567.85        25.93856
568.29         26.1749
568.72        26.46294
569.16        26.79436
569.60        27.03654
570.03        27.22313
570.47        27.41053
570.90        27.64061
571.34        27.59734
571.77        27.82428
572.21        28.12896
572.64        28.20958
573.08        28.37316
573.51        28.51826
573.95        28.57773
574.38        28.61994
574.82        28.84777
575.25         28.6708
575.69        28.82616
576.12        29.08222
576.56        29.03019
576.99        28.88499
577.42        28.76949
577.86        29.06627
578.29        29.29163
578.73        29.24027
579.16        29.23126
579.60        28.96246
580.03        28.80429
580.47        28.64112
580.90        28.97522
581.33        28.97596
581.77        28.63507
582.20        28.18707
582.64         28.5506
583.07        28.43287
583.51        28.45516
583.94        28.25566
584.37        28.01591
584.81        27.80604
585.24        27.59198
585.68         27.4688
586.11        27.33339
586.54         27.5107
586.98        27.31377
587.41        27.07316
587.85        26.89801
588.28        26.90226
588.71        26.85349
589.15        26.57275
589.58        26.74301
590.01         26.6723
590.45        26.60603
590.88        26.66456
591.31        26.54002
591.75        26.40632
592.18        26.48606
592.61        26.71935
593.05        26.98989
593.48        27.00548
593.91        26.75975
594.35        27.00579
594.78        26.93749
595.21        26.86044
595.65        27.09625
596.08         27.6293
596.51        27.85433
596.94        27.71015
597.38        27.77655
597.81        28.00694
598.24        28.60702
598.68        28.76279
599.11        28.86246
599.54          29.205
599.97        29.39988
600.41        29.79578
600.84        29.92855
601.27        30.46796
601.70        30.57176
602.14        31.12958
602.57        31.41216
603.00        31.76693
603.43        31.69942
603.87        32.42889
604.30        32.92331
604.73        33.60563
605.16        33.17881
605.60        33.99289
606.03         34.1334
606.46        34.27131
606.89        34.92434
607.32        35.60224
607.76        35.80731
608.19        36.26175
608.62         36.3938
609.05        36.60386
609.48         36.9019
609.92        37.72326
610.35         38.0792
610.78        37.77343
611.21        38.02488
611.64         38.4738
612.07        38.95942
612.50        39.14953
612.94        39.41238
613.37        39.66948
613.80        39.87331
614.23        39.73314
614.66        39.99863
615.09        40.53518
615.52        40.89752
615.96        41.03996
616.39        41.29621
616.82        41.68834
617.25        41.72343
617.68        41.96821
618.11        42.16264
618.54        42.46059
618.97        42.74522
619.40        42.99157
619.84        43.15613
620.27        43.18464
620.70        43.30087
621.13         43.4507
621.56        43.29256
621.99         42.9221
622.42        42.91353
622.85        43.26217
623.28        43.41551
623.71        43.34392
624.14         43.6066
624.57        43.86696
625.00        43.82084
625.43        43.81973
625.86        43.68671
626.29        43.64727
626.72        43.13501
627.15        43.29853
627.58        43.20148
628.01        43.11861
628.44        42.97544
628.87        42.76829
629.30         42.4521
629.73        42.04562
630.16        41.92326
630.59        41.59504
631.02         41.4237
631.45        41.24107
631.88         41.0117
632.31        40.71024
632.74        40.40509
633.17        40.11457
633.60        39.55465
634.03        39.21429
634.46        38.71138
634.89        38.21061
635.32         37.7451
635.75        37.33196
636.18        36.91793
636.61        36.50879
637.04        36.14282
637.47        35.81476
637.89         35.5125
638.32        35.19695
638.75         34.8421
639.18        34.44703
639.61        34.02293
640.04        33.61904
640.47        33.30901
640.90          33.106
641.33        32.99263
641.76        32.91303
642.18        32.77795
642.61        32.55853
643.04        32.28765
643.47        32.03187
643.90        31.89732
644.33          31.907
644.76          32.027
645.18        32.19237
645.61        32.28875
646.04        32.29362
646.47        32.25039
646.90        32.21749
647.33        32.27846
647.75        32.44503
648.18        32.72355
648.61        33.10096
649.04         33.4122
649.47        33.60644
649.89        34.28424
650.32         34.5217
650.75        34.83783
651.18        35.01366
651.61        35.46675
652.03        36.18203
652.46        36.60821
652.89        36.77613
653.32        37.36563
653.74        38.29971
654.17        38.38397
654.60        38.53586
655.03        38.81993
655.46        38.62338
655.88        39.45577
656.31        40.63171
656.74        40.11951
657.16        44.45765
657.59        48.69095
658.02        43.83845
658.45        42.96204
658.87         42.7539
659.30        43.02886
659.73        43.14206
660.15        44.04752
660.58        43.69937
661.01        44.01886
661.44        44.45267
661.86        44.59964
662.29        44.47484
662.72        44.96224
663.14         45.2013
663.57        45.45086
664.00        45.51389
664.42        45.78775
664.85        46.28845
665.27        46.82631
665.70        47.27053
666.13        47.53069
666.55        47.58107
666.98        47.40583
667.41        47.11946
667.83        47.21421
668.26         47.2518
668.69        47.57383
669.11         47.9672
669.54        48.31953
669.96        48.59248
670.39        48.81703
670.82        48.99479
671.24        49.16155
671.67        49.33397
672.09        49.37881
672.52        49.31542
672.94        49.69891
673.37        49.68457
673.80        49.90147
674.22        50.08338
674.65        50.22449
675.07        50.32036
675.50        50.37271
675.92        50.39824
676.35        50.40112
676.77        50.39553
677.20        50.37424
677.62        50.37995
678.05        50.48016
678.47        50.67917
678.90        50.96136
679.32        51.24752
679.75        51.41938
680.17        51.45034
680.60        51.37861
681.02        51.28723
681.45        51.31535
681.87        51.50794
682.30        51.78983
682.72        52.10137
683.15        52.37685
683.57        52.55926
684.00        52.52233
684.42        52.36464
684.85        52.38645
685.27        52.62096
685.70        52.91592
686.12        53.16797
686.54        53.33295
686.97        53.39013
687.39        53.14737
687.82        53.07755
688.24        52.97377
688.66        52.99159
689.09        53.08677
689.51        53.23737
689.94        53.37182
690.36        53.47137
690.78        53.55106
691.21        53.63566
691.63        53.75328
692.06        53.91357
692.48        54.11274
692.90        54.30115
693.33        54.40776
693.75        54.41459
694.17        54.31369
694.60        54.20662
695.02        54.24963
695.44        54.45238
695.87        54.81373
696.29        55.17706
696.71        55.07196
697.14         54.6581
697.56        54.38618
697.98        54.84047
698.41        55.13008
698.83        55.01215
699.25        55.23381
699.68        55.59417
700.10        55.78846
700.52        55.75489
700.94        55.59916
701.37        55.44479
701.79        55.48782
702.21         55.7638
702.64         56.1893
703.06        56.63515
703.48         56.8816
703.90        56.87143
704.33        56.67635
704.75        56.40474
705.17        56.22342
705.59        56.19286
706.01        56.26513
706.44        56.40194
706.86        56.56501
707.28        56.72276
707.70        56.86436
708.12         56.9986
708.55        57.19472
708.97        57.41624
709.39        57.47506
709.81        57.40101
710.23        57.42646
710.66        57.56885
711.08        57.71932
711.50        57.81543
711.92        57.82838
712.34        57.75276
712.76        57.61134
713.19        57.46042
713.61        57.42557
714.03        57.52424
714.45        57.72563
714.87        57.98694
715.29        58.24176
715.71         58.4586
716.13        58.64424
716.56        58.79378
716.98        58.92236
717.40        58.98875
717.82        59.09457
718.24         59.2369
718.66         58.8293
719.08        58.81669
719.50        58.50347
719.92        58.23924
720.34        58.10428
720.76        58.13111
721.19        58.26016
721.61        58.48911
722.03        58.79199
722.45         59.1275
722.87        59.48516
723.29         59.7752
723.71        59.85564
724.13        59.70914
724.55        59.38677
724.97        59.00872
725.39        58.77801
725.81        58.75455
726.23        58.87337
726.65         59.0839
727.07        59.36981
727.49        59.57266
727.91        59.81623
728.33         60.0352
728.75        60.18069
729.17        60.23978
729.59        60.20598
730.01        60.13446
730.43        60.12614
730.85        60.20076
731.27        60.33102
731.69        60.45036
732.10        60.45115
732.52        60.31591
732.94        60.09285
733.36        59.85811
733.78        59.68854
734.20        59.65163
734.62        59.74903
735.04        59.94361
735.46        59.88211
735.88        60.63327
736.30        59.91771
736.72        60.59977
737.13        60.61362
737.55        60.66346
737.97        60.93746
738.39        61.30783
738.81         60.9519
739.23        60.09464
739.65        60.22936
740.06        61.16844
740.48        61.49033
740.90        61.11552
741.32         60.8508
741.74        60.80564
742.16        60.76463
742.57         60.7653
742.99        60.85645
743.41        60.99088
743.83        61.07659
744.25        61.09134
744.67        61.03603
745.08        60.97563
745.50        61.01846
745.92        61.18645
746.34        61.39986
746.75          61.552
747.17         61.6325
747.59        61.36498
748.01        61.02863
748.42        60.65746
748.84        60.47867
749.26        60.54856
749.68        60.66737
750.09        60.79885
750.51        61.19071
750.93        61.65044
751.35        61.51374
751.76        60.89396
752.18        60.58352
752.60        60.64128
753.01        60.64476
753.43        60.56368
753.85        60.57384
754.27        60.67362
754.68        60.82889
755.10        61.00188
755.52        61.12507
755.93        61.17254
756.35        61.15331
756.77        61.15116
757.18        61.18942
757.60        61.31182
758.02        61.63436
758.43        62.04882
758.85        61.57829
759.26         62.3842
759.68        61.01413
760.10        61.00457
760.51        61.10143
760.93        62.07312
761.34         61.6143
761.76        61.92742
762.18        61.79243
762.59        61.93832
763.01         62.0697
763.42         62.2811
763.84        62.39685
764.26        62.38873
764.67        62.16215
765.09        61.86266
765.50        61.78092
765.92        61.93488
766.33        62.00485
766.75        61.90267
767.16        61.88057
767.58         61.8891
768.00        61.71682
768.41        61.49443
768.83        61.62408
769.24        62.01954
769.66        62.30961
770.07        62.38688
770.49        62.09994
770.90        61.65585
771.32        61.88093
771.73        62.62093
772.15        62.89442
772.56        62.68446
772.97         62.2698
773.39        61.71879
773.80        62.45589
774.22        62.10234
774.63        62.36577
775.05        62.44554
775.46        62.52739
775.88        62.54842
776.29        62.44333
776.70         62.2936
777.12        62.26149
777.53        62.38212
777.95        62.54798
778.36        62.71494
778.77        62.77965
779.19        62.74392
779.60         62.6866
780.02        62.57455
780.43        62.47946
780.84        62.46189
781.26        62.07277
781.67        61.57568
782.09        62.40585
782.50        64.12843
782.91        64.25557
783.33        63.10245
783.74        62.71856
784.15        63.24781
784.57        63.47918
784.98        63.35477
785.39        63.13828
785.81        62.95325
786.22        63.23261
786.63        63.84735
787.04         64.1136
787.46        63.99292
787.87         63.7929
788.28        63.59683
788.70        63.66009
789.11        63.50574
789.52        63.55356
789.93        63.61625
790.35        63.62675
790.76        63.57318
791.17        63.47337
791.58        63.38274
792.00        63.32168
792.41        63.31666
792.82        63.46298
793.23        63.67191
793.65        63.57045
794.06         63.3115
794.47        63.41941
794.88        63.77113
795.29        64.24248
795.71         64.2574
796.12        63.64489
796.53        64.14794
796.94         64.0579
797.35        63.98929
797.76        64.18017
798.18        64.54726
798.59        64.71181
799.00        64.59422
799.41         64.3914
799.82         64.2086
800.23        64.15952
800.64        64.27718
801.06        64.49146
801.47        64.73215
801.88        64.79259
802.29          64.622
802.70        64.28998
803.11        63.88966
803.52        63.57261
803.93         63.4107
804.34        63.37106
804.75        63.44761
805.17        63.66977
805.58        64.05457
805.99        64.39358
806.40        64.65624
806.81         65.2151
807.22        65.83402
807.63        65.54729
808.04        64.55907
808.45         64.0715
808.86        64.21515
809.27        64.38804
809.68         64.4704
810.09        64.53046
810.50        64.52105
810.91         64.4264
811.32        64.35558
811.73        64.45625
812.14        64.74364
812.55        65.22894
812.96        65.73261
813.37        65.74751
813.78        65.28146
814.19        64.86626
814.60         64.5908
815.01        64.23502
815.42         63.8358
815.83         63.5568
816.24        63.44951
816.65        63.49523
817.05        63.69583
817.46        64.03397
817.87        64.38935
818.28        64.52503
818.69        64.40104
819.10        64.06383
819.51          63.679
819.92        63.58787
820.33        63.87879
820.74        64.36049
821.14        64.87786
821.55        65.35992
821.96        65.64713
822.37        65.41524
822.78        64.80884
823.19        64.45295
823.60        64.45611
824.00        64.52771
824.41        64.58409
824.82        64.71353
825.23        64.88216
825.64        65.07536
826.04        65.26048
826.45         65.3367
826.86        65.29717
827.27        65.17293
827.68        64.98832
828.08        64.81808
828.49        64.64667
828.90        64.47572
829.31        64.36581
829.72        64.41168
830.12        64.64188
830.53         64.9828
830.94        65.29964
831.35        65.31223
831.75        64.97879
832.16        64.37103
832.57        63.71146
832.97        63.33463
833.38        63.33084
833.79        63.58347
834.20        63.98148
834.60        64.34531
835.01        64.60788
835.42        64.85574
835.82        65.06644
836.23        65.12481
836.64        65.04961
837.04        64.82872
837.45        64.63419
837.86        64.81634
838.26         65.4524
838.67        66.40785
839.08        67.35471
839.48        67.65864
839.89        67.16185
840.29        66.09695
840.70        64.97465
841.11        64.36458
841.51        64.41808
841.92         64.9425
842.33        65.73248
842.73        66.41932
843.14        66.75136
843.54        66.87985
843.95        66.87681
844.35        66.91308
844.76        67.01809
845.17        67.11852
845.57        67.15543
845.98        67.02232
846.38        66.73033
846.79        66.33633
847.19        65.94157
847.60        65.67205
848.00        65.57561
848.41        65.58797
848.81        65.68851
849.22         65.7625
849.62        65.80421
850.03        65.82506
850.43        65.82014
850.84         65.7168
851.24         65.5546
851.65        65.29514
852.05        65.09414
852.46        65.12427
852.86        65.41882
853.27        65.90504
853.67        66.37215
854.07        66.63866
854.48        66.63905
854.88        66.44989
855.29        66.10851
855.69        65.81533
856.10        65.57767
856.50        65.41561
856.90        65.27554
857.31         65.0887
857.71        64.89119
858.12        64.66344
858.52        64.48611
858.92        64.36827
859.33        64.30801
859.73        64.35184
860.13        64.42739
860.54        64.43816
860.94         64.4018
861.34        64.31002
861.75        64.26551
862.15        64.48559
862.55        64.97054
862.96        65.60473
863.36        66.21671
863.76        66.44066
864.17        66.17678
864.57        65.58183
864.97        64.79829
865.38        64.05521
865.78        63.47739
866.18        63.01106
866.58        62.72415
866.99        62.72381
867.39        63.02353
867.79        63.57812
868.19        64.22105
868.60        64.66689
869.00        64.86701
869.40        64.84965
869.80        64.68922
870.21        64.55924
870.61        64.58075
871.01        64.65241
871.41        64.69581
871.81        64.60096
872.22        64.33998
872.62        63.95329
873.02        63.54258
873.42        63.26264
873.82        63.16016
874.22        63.19615
874.63        63.24366
875.03         63.1229
875.43        62.78415
875.83        62.28988
876.23        61.80132
876.63        61.56044
877.03        61.62772
877.44        61.91904
877.84        62.28062
878.24        62.47648
878.64        62.39203
879.04        61.93912
879.44        61.41389
879.84        61.38959
880.24        61.91879
880.64        62.78068
881.04        63.55283
881.44        63.57228
881.84         62.7156
882.24        61.24324
882.65        59.68619
883.05         58.8552
883.45        58.96902
883.85        59.80318
884.25        60.99512
884.65        61.91317
885.05        62.32879
885.45        62.40112
885.85         62.3229
886.25        62.39833
886.65        62.69824
887.05        63.08389
887.45        63.38734
887.85        63.36647
888.25        62.97315
888.65          62.332
889.04        61.62022
889.44        61.11253
889.84        60.87666
890.24        60.84324
890.64         60.9242
891.04        60.97025
891.44        60.93184
891.84         60.8633
892.24         60.7937
892.64        60.75753
893.04        60.77263
893.44        60.82544
893.83        60.93288
894.23        61.07952
894.63        61.27822
895.03        61.51579
895.43        61.79176
895.83        62.11131
896.23        62.44074
896.63        62.73077
897.02        62.91668
897.42        62.92756
897.82        62.75476
898.22        62.47593
898.62        62.09113
899.01        61.58564
899.41        61.01987
899.81        60.40089
900.21        59.93986
900.61        59.97439
901.00        60.53334
901.40        61.48454
901.80        62.48033
902.20        62.95217
902.59        62.77842
902.99        62.13708
903.39        61.29836
903.79        60.72041
904.18        60.54604
904.58        60.61946
904.98        60.90408
905.38        61.35754
905.77        61.91345
906.17        62.60972
906.57        63.20629
906.96         63.2884
907.36        62.77773
907.76        61.80754
908.15        60.77824
908.55        60.32143
908.95        60.59816
909.34        61.44015
909.74        62.46866
910.14        63.12095
910.53        63.18842
910.93        62.85435
911.33        62.29539
911.72        61.77117
912.12        61.44342
912.52        61.24216
912.91        61.11705
913.31        61.01942
913.70         60.9427
914.10        60.88682
914.49        61.00874
914.89        61.47494
915.29        62.29556
915.68        63.38158
916.08        64.35262
916.47        64.65485
916.87        64.18864
917.26        63.12189
917.66         61.9115
918.05        61.10814
918.45        60.85369
918.84        61.03351
919.24        61.38356
919.64        61.56182
920.03        61.46942
920.42        61.20703
920.82        60.96239
921.21        60.95523
921.61        61.22271
922.00        61.70074
922.40        62.21264
922.79        62.59569
923.19        62.75034
923.58        62.74519
923.98        62.66987
924.37        62.60902
924.77        62.60748
925.16        62.58772
925.55        62.55715
925.95        62.51697
926.34        62.47135
926.74        62.41973
927.13        62.27125
927.52        61.80592
927.92         61.0734
928.31        60.17421
928.70        59.36006
929.10        58.97907
929.49        59.08971
929.89        59.52642
930.28        60.23689
930.67        61.01204
931.07        61.70362
931.46        62.42123
931.85        62.89905
932.24        62.77061
932.64        62.05751
933.03        60.84166
933.42        59.67307
933.82        59.36421
934.21        60.06269
934.60        61.59048
934.99        63.35975
935.39        64.28504
935.78        64.08643
936.17        62.99359
936.56          61.596
936.96        60.82732
937.35        60.93435
937.74        61.63749
938.13        62.46057
938.53        62.67552
938.92        62.12361
939.31        61.10058
939.70        60.03806
940.09        59.52914
940.49        59.68188
940.88          60.321
941.27        61.17435
941.66        61.75252
942.05        61.89026
942.44        61.76651
942.84        61.54852
943.23        61.48009
943.62        61.64573
944.01        61.90751
944.40        62.25914
944.79         62.7271
945.18        63.25044
945.57        63.80037
945.97        64.13209
946.36        63.92865
946.75        63.12165
947.14        61.91084
947.53        60.58066
947.92        59.51955
948.31        58.85236
948.70        58.48779
949.09        58.45023
949.48        58.76136
949.87        59.36723
950.26         60.2425
950.65        61.15916
951.04        61.73488
951.43        61.85435
951.82        61.57506
952.21        61.07563
952.60         60.6897
952.99        60.53638
953.38        60.55149
953.77        60.65396
954.16        60.70938
954.55        60.67136
954.94        60.57133
955.33        60.49964
955.72        60.59134
956.11        60.86476
956.50        61.27842
956.89        61.60244
957.28        61.46947
957.66         60.8184
958.05        59.82072
958.44        58.83839
958.83        58.38798
959.22        58.56078
959.61        59.20968
960.00        60.01361
960.39        60.37862
960.78        60.11234
961.16        59.38683
961.55        58.53994
961.94        57.98563
962.33        57.84973
962.72        58.06084
963.11        58.42042
963.49        58.59339
963.88        58.41208
964.27        57.96631
964.66        57.64222
965.04        58.03693
965.43        59.19136
965.82        60.99606
966.21        62.74387
966.60        63.07982
966.98        61.67369
967.37        59.10755
967.76        56.48027
968.15         55.1754
968.53        55.44386
968.92        56.93288
969.31        58.95583
969.69        60.11454
970.08         59.8438
970.47        58.60432
970.86        57.19406
971.24        56.73434
971.63        57.46546
972.02        59.04104
972.40        60.85004
972.79        61.48591
973.17         60.6074
973.56        58.77288
973.95         56.7864
974.33        55.64382
974.72          55.563
975.11        56.19905
975.49         57.2631
975.88        58.15228
976.26        58.62346
976.65        58.81037
977.04        58.74593
977.42        58.43855
977.81        57.91926
978.19        57.16531
978.58        56.44324
978.96        56.17049
979.35        56.41989
979.74        57.10455
980.12        58.05626
980.51        58.71303
980.89         58.9989
981.28        59.02893
981.66        58.92227
982.05          58.826
982.43        58.82324
982.82         58.8228
983.20        59.01432
983.59        59.67719
983.97         60.8885
984.35         62.5111
984.74        64.01537
985.12        64.73921
985.51        64.43185
985.89        63.33084
986.28        61.91136
986.66        60.80659
987.04        60.27444
987.43        60.13573
987.81        60.27058
988.20        60.35048
988.58        60.28051
988.96        60.10879
989.35        59.94995
989.73        59.94867
990.12        60.11035
990.50        60.41781
990.88        60.58169
991.27        60.15963
991.65        59.11972
992.03        57.64645
992.42        56.34114
992.80        56.00425
993.18         56.7876
993.56        58.51413
993.95        60.48988
994.33        61.51947
994.71        61.11763
995.10        59.75055
995.48        58.16314
995.86        57.55005
996.24        58.19057
996.63        59.59546
997.01        61.47182
997.39        62.86818
997.77        63.31231
998.15        63.19035
998.54         62.4841
998.92        61.03013
999.30        59.08038
999.68        56.75245
1000.06        54.83316
1000.45        54.43457
1000.83        55.82627
1001.21        58.80802
1001.59        62.61399
1001.97        65.23641
1002.35        65.80109
1002.73         64.8632
1003.12        63.30619
1003.50        62.22413
1003.88        62.02181
1004.26         62.1892
1004.64        62.77713
1005.02        63.87241
1005.40        65.29558
1005.78        67.16998
1006.16        68.53748
1006.54        67.84661
1006.92        65.04877
1007.30        60.73821
1007.69        56.54307
1008.07        54.61455
1008.45        55.57214
1008.83        58.97027
1009.21        63.63085
1009.59        66.57764
1009.97          66.379
1010.35        63.86998
1010.73        60.36979
1011.11        57.79111
1011.49        56.67035
1011.86        56.38654
1012.24        56.53208
1012.62        56.60379
1013.00        56.42692
1013.38         56.1911
1013.76        56.04204
1014.14        56.17709
1014.52        56.64291
1014.90        57.29242
1015.28        57.77353
1015.66        57.67498
1016.04        56.95918
1016.41        55.75129
1016.79        54.48413
1017.17        54.00134
1017.55        54.49449
1017.93        55.65278
1018.31        56.95957
1018.69        57.67373
1019.06        57.65681
1019.44        57.18375
1019.82        56.41644
1020.20        55.80788
1020.58        55.57961
1020.95        55.37379
1021.33        55.52535
1021.71        56.42214
1022.09        58.11034
1022.46        60.85621
1022.84        63.57595
1023.22        63.64266
1023.60        60.33124
1023.97        54.50309
1024.35        49.08831
1024.73         47.3089
