SpectraSmart Spectrum 2.9.0.0
--------- Device Information -----------
Spectrum Name :  反射率_0
Saving Time :  2024/04/26 21:30:07
Spectro-Module Model Name : SE2030-DUVN
Spectro-Module Serial Number : OS361AC55029948
Wavelength Start : 200
Wavelength End : 1025
Wavelength Unit : Wavelength(nm)
Spectrum Unit : Reflectance(%)
-----------Spectrum Setting ------------
Integration Time : 20ms
Average : 10
Boxcar : 0
Background removal :  enabled
linearity correction :  enabled
SC :  disabled
Intensity correction :  disabled
DWT denoise :  enabled
savitzky-golay :  disabled
FFT :  disabled
Running average :  disabled
Kalman :  disabled
High pass :  disabled
---------------BEGIN--------------------
Wavelength(nm)             Reflectance(%)
200.29               0
200.75        17.87679
201.21        21.23104
201.67        23.41453
202.13        23.33178
202.58        20.88512
203.04         16.3683
203.50         10.2698
203.96        5.280194
204.42        3.763115
204.88         5.66057
205.34        10.38198
205.80        15.64842
206.26        19.71848
206.72        22.48521
207.18        23.73244
207.64        23.46956
208.10        21.81804
208.55        18.55093
209.01        12.68794
209.47        6.185495
209.93         2.60533
210.39        1.909665
210.85        2.647647
211.31         3.64173
211.77        5.012349
212.23        8.328512
212.69        16.95794
213.14        33.20914
213.60        34.39088
214.06        23.69353
214.52         16.6765
214.98        15.20905
215.44        16.69902
215.90        19.40453
216.36        21.87811
216.81        21.60378
217.27        17.93146
217.73         11.0825
218.19           1.036
218.65       -6.578102
219.11       -6.725152
219.57       -2.705906
220.02        2.451742
220.48        8.188161
220.94        15.69089
221.40        27.15655
221.86        43.01875
222.32        54.69209
222.77        53.59299
223.23        44.90721
223.69        35.48152
224.15        29.69037
224.61        27.09312
225.06        25.79806
225.52         25.6738
225.98        26.66205
226.44        28.48305
226.90        31.26714
227.36         33.8345
227.81        34.05124
228.27        31.86731
228.73         28.1417
229.19         24.7558
229.65        23.87091
230.10        25.53756
230.56        28.95521
231.02        32.55211
231.48        33.79886
231.93        32.25959
232.39        29.21139
232.85        26.09605
233.31        24.74405
233.77        25.35848
234.22        27.27709
234.68        29.57598
235.14         30.9698
235.60        31.04266
236.05        30.17583
236.51        28.80296
236.97        27.77239
237.43        27.50259
237.88         27.7789
238.34        28.34328
238.80        28.94236
239.26        29.51468
239.71        30.44164
240.17        31.71166
240.63        33.37159
241.08        35.39063
241.54        37.20804
242.00        39.19037
242.46        42.52933
242.91        48.31681
243.37        57.38992
243.83        69.05031
244.28        74.98569
244.74        66.63144
245.20        47.59118
245.66        29.64262
246.11        20.97959
246.57        21.22699
247.03        27.05823
247.48         36.4729
247.94        44.38599
248.40        48.28303
248.85         49.6876
249.31        49.74465
249.77        48.83555
250.22        46.84129
250.68        42.99148
251.14         37.3008
251.59        31.99088
252.05        29.58606
252.51        30.34785
252.96        31.80205
253.42        31.23529
253.88        28.87044
254.33        25.71937
254.79        24.19922
255.25        26.33635
255.70        31.75153
256.16        39.33007
256.62        46.02178
257.07        47.19863
257.53        43.90663
257.99        39.11625
258.44        35.24527
258.90        34.35009
259.35        35.60825
259.81         38.0883
260.27        40.54461
260.72        41.46235
261.18        40.90778
261.63        39.44868
262.09        38.03202
262.55         37.2926
263.00        37.17002
263.46        37.42113
263.91        37.52977
264.37        37.05146
264.83        35.97728
265.28        34.56635
265.74        33.29024
266.19        32.50083
266.65        32.27668
267.11        32.37091
267.56        32.58046
268.02        32.58218
268.47        32.27783
268.93        31.81178
269.38        31.17621
269.84        30.39729
270.30        29.51657
270.75        28.52007
271.21        27.62758
271.66         27.1361
272.12        27.08148
272.57        27.36009
273.03        27.67813
273.48        27.55208
273.94        26.92082
274.39        25.92182
274.85        24.88609
275.31        24.17128
275.76        23.82636
276.22        23.73843
276.67        23.70763
277.13        23.50972
277.58        23.06817
278.04        22.50383
278.49        21.89105
278.95        21.41838
279.40        21.08647
279.86        20.87393
280.31        20.67995
280.77        20.44069
281.22         20.1158
281.68        19.77774
282.13        19.45193
282.59          19.225
283.04        19.08443
283.50        19.00191
283.95         18.9372
284.41        18.83618
284.86         18.6848
285.32         18.5264
285.77        18.35768
286.22        18.20995
286.68        18.09905
287.13        17.99839
287.59        17.94087
288.04        17.94742
288.50        18.02364
288.95        18.12409
289.41        18.22242
289.86        18.23431
290.32        18.16899
290.77        18.05223
291.22        17.90996
291.68        17.77003
292.13          17.652
292.59        17.56977
293.04         17.5776
293.50         17.7753
293.95        18.16257
294.40        18.70212
294.86        19.30394
295.31        19.82003
295.77        20.21027
296.22        20.50222
296.68         20.7432
297.13        21.00296
297.58        21.31342
298.04        21.65891
298.49        22.02538
298.95        22.40665
299.40        22.78846
299.85        23.16865
300.31        23.55515
300.76        23.95261
301.21        24.34947
301.67        24.74482
302.12        25.06837
302.58        25.26325
303.03        25.30961
303.48        25.25403
303.94        25.17882
304.39        25.18436
304.84        25.29996
305.30        25.50029
305.75        25.71649
306.20        25.88334
306.66        25.98548
307.11        26.03787
307.57        26.06044
308.02        26.04939
308.47        26.01829
308.93        25.96583
309.38        25.90627
309.83        25.90142
310.29        25.95642
310.74        26.05082
311.19        26.12711
311.65        26.08653
312.10        25.90747
312.55        25.62248
313.00         25.3097
313.46        25.08381
313.91        24.96271
314.36        24.92431
314.82        24.90156
315.27        24.79221
315.72        24.57287
316.18        24.28523
316.63        23.99897
317.08        23.83012
317.53        23.79913
317.99        23.86133
318.44        23.94119
318.89        23.90865
319.35        23.73114
319.80        23.44771
320.25        23.12821
320.70        22.88539
321.16        22.74685
321.61        22.68267
322.06        22.63836
322.51        22.52716
322.97        22.32302
323.42        22.06306
323.87        21.79117
324.32        21.57824
324.78         21.4373
325.23        21.35517
325.68        21.28772
326.13        21.17068
326.59        20.98629
327.04        20.76487
327.49          20.541
327.94         20.3692
328.39        20.25934
328.85        20.18281
329.30        20.12606
329.75        20.03086
330.20        19.88389
330.66        19.70209
331.11        19.52006
331.56        19.37453
332.01        19.27742
332.46        19.21499
332.92         19.1633
333.37        19.11487
333.82        19.05157
334.27         18.9808
334.72        18.90907
335.17        18.84474
335.63        18.78991
336.08        18.75263
336.53        18.72332
336.98        18.69536
337.43        18.66494
337.88        18.62443
338.34        18.58856
338.79        18.60155
339.24        18.65816
339.69        18.74673
340.14        18.80438
340.59        18.73135
341.05        18.52305
341.50        18.21794
341.95        17.90674
342.40        17.72731
342.85         17.7108
343.30        17.80984
343.75        17.96385
344.20        18.07295
344.66        18.10336
345.11        18.08362
345.56        18.02053
346.01        17.92497
346.46        17.81559
346.91        17.69385
347.36        17.58906
347.81        17.55375
348.26        17.59285
348.72        17.68279
349.17        17.80047
349.62         17.9152
350.07        18.00896
350.52        18.09503
350.97        18.12553
351.42        18.02753
351.87        17.80497
352.32        17.48688
352.77        17.18778
353.22        17.07771
353.67        17.18436
354.13        17.46075
354.58        17.78053
355.03        17.93286
355.48        17.86074
355.93        17.62718
356.38         17.3436
356.83        17.18133
357.28        17.17759
357.73        17.27018
358.18        17.37861
358.63        17.37511
359.08        17.22891
359.53        16.99758
359.98        16.73528
360.43        16.51483
360.88        16.35905
361.33        16.23911
361.78        16.15267
362.23        16.09968
362.68        16.07229
363.13         16.0751
363.58        16.07265
364.03        16.00625
364.48        15.86511
364.93        15.65968
365.38        15.44274
365.83        15.30486
366.28        15.26757
366.73        15.30751
367.18        15.36175
367.63        15.33021
368.08        15.19166
368.53        14.97661
368.98         14.7521
369.43        14.62394
369.88        14.61522
370.33        14.69149
370.78        14.78307
371.23        14.77577
371.68        14.64101
372.13        14.41786
372.58        14.17362
373.03        14.01324
373.48        13.96546
373.93        13.99669
374.38        14.05928
374.83         14.0788
375.28        14.03117
375.72        13.93382
376.17         13.8249
376.62        13.74166
377.07        13.69408
377.52         13.6684
377.97        13.63751
378.42        13.56327
378.87        13.44013
379.32        13.28207
379.77        13.12833
380.22        13.03316
380.67        13.00237
381.11        13.02171
381.56        13.03622
382.01        12.96617
382.46        12.80175
382.91        12.58434
383.36        12.37083
383.81        12.23621
384.26        12.19496
384.71        12.21928
385.15        12.28786
385.60        12.36957
386.05        12.44319
386.50        12.51554
386.95        12.56668
387.40        12.56759
387.85        12.51782
388.29        12.41719
388.74        12.31332
389.19        12.24818
389.64        12.22723
390.09        12.23392
390.54        12.24105
390.98        12.19929
391.43        12.10845
391.88        11.99081
392.33        11.86537
392.78        11.75667
393.23        11.67281
393.67         11.5982
394.12        11.55024
394.57        11.53172
395.02        11.53831
395.47        11.56453
395.91        11.58949
396.36        11.56881
396.81        11.50263
397.26        11.40735
397.71        11.30736
398.15        11.24574
398.60        11.24444
399.05        11.24148
399.50        11.23584
399.95        11.31033
400.39        11.42314
400.84        11.37454
401.29        11.18925
401.74        11.08579
402.18        11.08244
402.63        11.05552
403.08        11.00366
403.53        10.97598
403.97        10.97138
404.42         10.9794
404.87        10.98286
405.32        10.95097
405.76        10.87785
406.21         10.7795
406.66        10.68279
407.11        10.63159
407.55        10.63755
408.00        10.68167
408.45        10.73773
408.90        10.75286
409.34        10.71207
409.79        10.63598
410.24        10.54934
410.68        10.48265
411.13        10.44719
411.58        10.42931
412.03        10.42256
412.47        10.41885
412.92        10.40962
413.37        10.40228
413.81        10.38989
414.26        10.36873
414.71        10.33534
415.15        10.29186
415.60        10.24555
416.05        10.21798
416.49        10.21724
416.94        10.23923
417.39        10.27086
417.83        10.29072
418.28        10.29133
418.73        10.27341
419.17        10.25517
419.62        10.26624
420.07        10.30974
420.51        10.37306
420.96        10.42171
421.41        10.40199
421.85        10.30519
422.30        10.15142
422.74        9.985188
423.19        9.916661
423.64        9.943022
424.08        9.983036
424.53        10.00254
424.98        10.02351
425.42        10.03794
425.87         9.99462
426.31        9.915401
426.76        9.907318
427.21        9.950978
427.65        9.898458
428.10        9.776656
428.54        9.731202
428.99        9.772141
429.44        9.852658
429.88        9.936521
430.33        9.928657
430.77        9.852552
431.22        9.895208
431.66        10.03499
432.11        10.05976
432.56        9.964779
433.00        9.894943
433.45        9.837883
433.89         9.70953
434.34        9.599539
434.78        9.440235
435.23        9.736083
435.67        9.821525
436.12        9.818295
436.57        9.766738
437.01        9.693626
437.46        9.648458
437.90         9.63882
438.35         9.62149
438.79        9.594637
439.24        9.588803
439.68        9.604061
440.13        9.631665
440.57        9.662041
441.02         9.68795
441.46        9.702502
441.91        9.679642
442.35        9.627356
442.80        9.651012
443.24        9.711351
443.69        9.645204
444.13        9.475946
444.58        9.392772
445.02        9.405508
445.47        9.417877
445.91        9.422867
446.36         9.45408
446.80        9.503769
447.24        9.560603
447.69        9.613476
448.13        9.640126
448.58        9.638631
449.02        9.614735
449.47        9.580115
449.91        9.550146
450.36        9.533633
450.80        9.525846
451.25        9.529879
451.69        9.545262
452.13        9.569919
452.58        9.600831
453.02        9.629691
453.47        9.644446
453.91        9.640884
454.36        9.622699
454.80        9.588592
455.24        9.536133
455.69        9.472827
456.13        9.396927
456.58        9.331721
457.02        9.294575
457.46        9.293693
457.91         9.32235
458.35        9.358435
458.79        9.366367
459.24        9.346318
459.68        9.300495
460.13        9.258951
460.57        9.241824
461.01        9.261457
461.46        9.299302
461.90        9.344929
462.34         9.37123
462.79        9.367482
463.23        9.348369
463.68         9.31274
464.12        9.265459
464.56        9.211608
465.01        9.162258
465.45        9.119288
465.89        9.112093
466.34        9.140896
466.78        9.194159
467.22        9.256003
467.67        9.288137
468.11        9.284777
468.55        9.253719
468.99        9.206854
469.44        9.163381
469.88        9.131519
470.32         9.10487
470.77        9.090541
471.21        9.101871
471.65        9.136796
472.10        9.194198
472.54        9.250056
472.98        9.269753
473.42        9.247867
473.87        9.198943
474.31        9.142235
474.75        9.118131
475.20        9.137445
475.64        9.182451
476.08        9.240405
476.52        9.286449
476.97        9.312894
477.41        9.332357
477.85        9.349208
478.29        9.355881
478.74        9.362492
479.18        9.390879
479.62        9.435434
480.06        9.473523
480.50        9.504012
480.95        9.525979
481.39        9.533131
481.83         9.60995
482.27        9.614134
482.72        9.659044
483.16        9.705566
483.60         9.73439
484.04        9.731494
484.48        9.798577
484.93         9.97016
485.37        9.934999
485.81        9.945071
486.25        10.36597
486.69        9.858891
487.14        9.980342
487.58         10.8364
488.02        10.76033
488.46        10.50515
488.90        10.42759
489.34        10.24499
489.79        10.41225
490.23        10.67031
490.67        10.88552
491.11        10.98576
491.55        10.98361
491.99        10.92824
492.43        10.94342
492.88        11.04755
493.32        11.14511
493.76        11.22099
494.20        11.31398
494.64        11.42478
495.08        11.51664
495.52        11.59438
495.96        11.74438
496.41        11.94097
496.85        11.99864
497.29        11.93787
497.73        12.07396
498.17        12.23123
498.61        12.33208
499.05         12.3215
499.49        12.34295
499.93        12.38078
500.37        12.49498
500.82        12.65353
501.26        12.76874
501.70        12.82803
502.14        12.88264
502.58        12.95364
503.02        13.04799
503.46        13.16862
503.90         13.3116
504.34        13.44435
504.78        13.51364
505.22        13.50992
505.66        13.45162
506.10        13.38056
506.54        13.36325
506.98        13.41659
507.42         13.5209
507.86        13.64639
508.30        13.74279
508.74        13.79389
509.18         13.8153
509.62        13.82081
510.06        13.83255
510.50         13.8584
510.94        13.88903
511.38        13.92165
511.82        13.95379
512.26        13.98377
512.70        14.01484
513.14        14.04521
513.58        14.06998
514.02        14.08852
514.46        14.10151
514.90        14.11274
515.34        14.12882
515.78        14.15143
516.22        14.17893
516.66        14.20666
517.10        14.22745
517.54        14.23859
517.98        14.23993
518.42         14.2364
518.86         14.2362
519.30        14.24014
519.74         14.2459
520.18        14.24336
520.62        14.21622
521.06         14.1638
521.50         14.0943
521.93        14.02542
522.37         13.9802
522.81        13.96717
523.25        13.97678
523.69        13.99771
524.13        14.01222
524.57        14.01245
525.01        14.00181
525.45        13.97754
525.89         13.9357
526.32        13.87699
526.76        13.80712
527.20        13.73352
527.64        13.67007
528.08        13.62053
528.52        13.58066
528.96        13.55006
529.40         13.5267
529.83        13.50743
530.27         13.4936
530.71        13.47351
531.15        13.42962
531.59         13.3611
532.03        13.27392
532.46        13.18527
532.90         13.1325
533.34        13.11988
533.78        13.12857
534.22        13.14203
534.66        13.14998
535.09        13.13682
535.53        13.08257
535.97        13.00154
536.41        12.95004
536.85         12.9373
537.28        12.93497
537.72        12.94942
538.16        13.00041
538.60        13.08435
539.04        13.19343
539.47         13.3001
539.91        13.37033
540.35        13.39536
540.79        13.38742
541.22        13.36983
541.66        13.38614
542.10        13.44585
542.54        13.53662
542.97        13.64297
543.41        13.74502
543.85        13.83486
544.29        13.92288
544.72         14.0096
545.16        14.10524
545.60        14.21042
546.04        14.32231
546.47        14.44776
546.91        14.59557
547.35        14.76131
547.79        14.93914
548.22        15.11066
548.66        15.24561
549.10        15.35693
549.53        15.44567
549.97        15.52545
550.41         15.5834
550.84        15.64153
551.28        15.73766
551.72        15.85399
552.15        15.97387
552.59        16.11296
553.03        16.04408
553.46        16.25073
553.90        16.31296
554.34         16.3746
554.77        16.43473
555.21        16.51417
555.65        16.63234
556.08        16.78135
556.52        16.94131
556.96        17.08244
557.39        17.20722
557.83        17.29504
558.27        17.25975
558.70        17.14134
559.14        17.10766
559.57         17.1654
560.01         17.2187
560.45        17.25988
560.88        17.32997
561.32        17.43307
561.75        17.54077
562.19         17.6453
562.63        17.72968
563.06        17.78727
563.50        17.82399
563.93        17.84251
564.37        17.89466
564.80        17.99384
565.24        18.08325
565.68        18.11266
566.11        18.39828
566.55         18.2764
566.98        18.30649
567.42        18.34153
567.85        18.43716
568.29        18.60664
568.72        18.84018
569.16        19.11467
569.60         19.3083
570.03         19.4815
570.47        19.59377
570.90        19.67296
571.34        19.78427
571.77         19.8932
572.21        20.02635
572.64        20.14276
573.08        20.26523
573.51        20.31976
573.95        20.43474
574.38        20.58341
574.82        20.76024
575.25        20.56046
575.69         20.6043
576.12        20.76777
576.56        20.81632
576.99         20.9364
577.42        20.82946
577.86         20.9317
578.29        20.98674
578.73        20.91191
579.16        20.85125
579.60        20.70654
580.03        20.74417
580.47        20.69633
580.90        20.68036
581.33         20.5956
581.77         20.7783
582.20        20.19185
582.64        20.24424
583.07        20.26293
583.51        20.22582
583.94        20.05375
584.37        19.90767
584.81        19.82031
585.24        19.62487
585.68        19.43825
586.11        19.25502
586.54         19.4966
586.98        19.44288
587.41        19.40582
587.85        19.23191
588.28        19.02784
588.71        19.12844
589.15        19.02588
589.58        18.96697
590.01        19.13794
590.45        19.04807
590.88        18.83941
591.31        18.74775
591.75        18.82933
592.18        18.84139
592.61        18.74357
593.05         19.1516
593.48        19.21713
593.91        19.15045
594.35        19.20834
594.78        19.23352
595.21        19.36968
595.65        19.50035
596.08        19.67403
596.51        19.78624
596.94        19.77724
597.38        19.90523
597.81        20.16355
598.24        20.40121
598.68        20.58459
599.11        20.90511
599.54        21.24958
599.97        21.17462
600.41        21.70256
600.84        21.81241
601.27        22.14627
601.70        22.41846
602.14        22.70672
602.57        23.08838
603.00        23.57262
603.43        23.59075
603.87         24.0861
604.30        24.41979
604.73        24.91549
605.16        25.05027
605.60        25.63339
606.03        25.80945
606.46        25.87611
606.89        26.22484
607.32         26.8979
607.76        27.34889
608.19        27.55663
608.62        27.75339
609.05        28.05182
609.48        28.46091
609.92         29.2654
610.35        29.61619
610.78        29.40491
611.21        29.50564
611.64        30.00054
612.07        30.39327
612.50        30.53338
612.94        30.80166
613.37        31.15366
613.80         31.3538
614.23        31.44588
614.66        31.73633
615.09         32.1986
615.52        32.49304
615.96        32.61048
616.39        32.83406
616.82        33.18525
617.25        33.34991
617.68        33.58919
618.11        33.85756
618.54        34.20369
618.97        34.45591
619.40        34.60386
619.84        34.82225
620.27        34.80356
620.70        35.00779
621.13        35.30286
621.56        35.13936
621.99        34.97098
622.42        35.00378
622.85        35.33849
623.28        35.47008
623.71        35.39827
624.14        35.47261
624.57         35.7252
625.00        35.51762
625.43        35.65003
625.86        35.55748
626.29         35.5068
626.72        35.28117
627.15        35.28342
627.58        35.17681
628.01        35.03985
628.44        34.84614
628.87        34.59742
629.30        34.23335
629.73        33.92505
630.16        33.63899
630.59         33.4264
631.02        33.25851
631.45        33.09974
631.88        32.89042
632.31        32.60782
632.74        32.26739
633.17         31.8795
633.60        31.46355
634.03        31.03236
634.46        30.58196
634.89        30.12087
635.32         29.6701
635.75        29.23777
636.18        28.79556
636.61         28.3653
637.04        27.97025
637.47        27.60628
637.89        27.30171
638.32        27.03549
638.75         26.5884
639.18        26.29763
639.61        25.90327
640.04        25.54108
640.47        25.25352
640.90         25.0514
641.33        24.91708
641.76        24.81183
642.18        24.68488
642.61        24.51525
643.04        24.32237
643.47        24.14252
643.90        24.03318
644.33        24.00785
644.76        24.04919
645.18        24.12218
645.61        24.16542
646.04        24.16742
646.47        24.14966
646.90        24.15347
647.33        24.23704
647.75        24.40956
648.18        24.68359
648.61        25.03052
649.04        25.31604
649.47        25.50406
649.89        25.98951
650.32        26.12295
650.75        26.53455
651.18        27.00134
651.61        27.47364
652.03        27.93716
652.46        28.32501
652.89        28.67006
653.32        29.15187
653.74        29.74435
654.17        30.04861
654.60        30.37287
655.03        30.72238
655.46        30.50534
655.88        31.30456
656.31        32.52436
656.74        32.47234
657.16        34.73725
657.59        37.38528
658.02        34.80439
658.45        34.72484
658.87         34.6761
659.30        34.95872
659.73        35.40157
660.15        36.06965
660.58        35.79124
661.01         36.1179
661.44        36.68385
661.86         36.8574
662.29        36.67268
662.72        37.08224
663.14        37.38882
663.57        37.70463
664.00        37.84496
664.42        38.14621
664.85        38.62062
665.27        39.12074
665.70        39.54982
666.13        39.84147
666.55        39.97561
666.98        39.93561
667.41        39.80122
667.83        39.95927
668.26        40.03316
668.69        40.32362
669.11         40.6594
669.54           40.96
669.96         41.2016
670.39        41.41049
670.82        41.60355
671.24        41.80473
671.67        42.01959
672.09        42.16813
672.52        42.27811
672.94        42.50122
673.37        42.78484
673.80        42.83669
674.22        42.70735
674.65        42.71157
675.07        42.88759
675.50        43.05281
675.92        43.18256
676.35        43.30877
676.77        43.42449
677.20        43.51875
677.62        43.61745
678.05        43.75981
678.47        43.94905
678.90        44.17538
679.32        44.39762
679.75        44.55891
680.17        44.64481
680.60        44.67606
681.02        44.69446
681.45        44.76981
681.87        44.92847
682.30          45.132
682.72        45.34552
683.15        45.56106
683.57        45.63389
684.00        45.71097
684.42        45.78084
684.85         45.8986
685.27        46.03453
685.70         46.2164
686.12        46.38945
686.54        46.49994
686.97        46.53943
687.39        46.49074
687.82        46.46756
688.24        46.50405
688.66        46.64277
689.09        46.79973
689.51         47.0498
689.94        47.23055
690.36        47.35289
690.78          47.447
691.21        47.55648
691.63        47.60685
692.06        47.82661
692.48        48.03774
692.90        48.23951
693.33        48.33564
693.75        48.31077
694.17        48.17509
694.60        48.04195
695.02        48.09517
695.44          48.352
695.87        48.78565
696.29        49.25449
696.71        49.34074
697.14        49.09482
697.56        49.01087
697.98        49.15733
698.41         49.2724
698.83        49.34472
699.25        49.61828
699.68        49.97466
700.10        50.15063
700.52        50.08902
700.94        49.88129
701.37        49.66108
701.79        49.64878
702.21         49.8907
702.64        50.29104
703.06        50.72659
703.48        51.01993
703.90        51.12052
704.33        50.95805
704.75        50.85366
705.17        50.73647
705.59        50.72798
706.01        50.78304
706.44        50.89547
706.86        51.07444
707.28        51.29506
707.70        51.53394
708.12        51.76581
708.55        51.99675
708.97        52.18711
709.39        52.20258
709.81        52.08425
710.23        52.05101
710.66        52.13223
711.08        52.23438
711.50        52.31413
711.92        52.35948
712.34        52.36589
712.76        52.35201
713.19        52.34133
713.61        52.39901
714.03        52.52645
714.45        52.70412
714.87        52.92057
715.29        53.16325
715.71        53.41563
716.13        53.66553
716.56        53.87108
716.98          54.035
717.40        54.12094
717.82        54.13973
718.24         54.0878
718.66        53.96233
719.08        53.78891
719.50        53.59352
719.92        53.44259
720.34         53.4309
720.76        53.57429
721.19         53.8265
721.61        54.15527
722.03        54.46151
722.45        54.69599
722.87        54.86856
723.29        54.96254
723.71         54.9367
724.13        54.79848
724.55        54.61319
724.97        54.44768
725.39        54.18841
725.81        54.21534
726.23        54.23946
726.65        54.36552
727.07         54.5592
727.49        54.83367
727.91        55.15761
728.33        55.48076
728.75        55.71349
729.17        55.82757
729.59        55.83477
730.01        55.78301
730.43        55.76306
730.85        55.80127
731.27        55.87062
731.69        55.94209
732.10         55.9819
732.52        55.99637
732.94        55.94891
733.36        55.85265
733.78        55.83324
734.20        55.93742
734.62        55.51283
735.04        56.13314
735.46        55.61108
735.88        55.99516
736.30         56.0597
736.72        56.29393
737.13        56.58147
737.55        56.82355
737.97        57.13672
738.39        57.38922
738.81        57.16002
739.23        56.59019
739.65        56.45641
740.06        56.75047
740.48        56.88015
740.90        56.82172
741.32        56.93124
741.74        57.26013
742.16        57.45867
742.57         57.5152
742.99        57.49672
743.41        57.43188
743.83        57.34754
744.25         57.2644
744.67        57.16307
745.08        57.09549
745.50        57.13016
745.92        57.28036
746.34        57.51977
746.75        57.76994
747.17        57.88952
747.59        57.85419
748.01        57.70544
748.42        57.51249
748.84        57.40887
749.26        57.43201
749.68        57.48368
750.09        57.53814
750.51         57.6894
750.93        57.85335
751.35        57.76348
751.76         57.4682
752.18        57.30208
752.60        57.28922
753.01        57.26471
753.43        57.21628
753.85        57.20507
754.27        57.23196
754.68        57.34002
755.10        57.52904
755.52        57.54162
755.93        57.74674
756.35        57.83737
756.77        57.97836
757.18        58.08355
757.60        58.14071
758.02        58.45272
758.43        58.93356
758.85        58.27763
759.26        58.31677
759.68        57.92182
760.10        57.71869
760.51        58.10561
760.93        58.66727
761.34        58.60313
761.76        58.74605
762.18        58.69081
762.59        58.80479
763.01        58.97443
763.42        59.20462
763.84        59.29108
764.26        59.22673
764.67        59.08306
765.09        58.95704
765.50        58.92257
765.92        58.98253
766.33        58.95068
766.75        58.76704
767.16        58.61596
767.58        58.49865
768.00        58.39235
768.41        58.39367
768.83        58.61257
769.24        58.91156
769.66        59.34692
770.07        59.28999
770.49         58.9943
770.90        58.52869
771.32        58.80797
771.73        59.69016
772.15        60.01671
772.56        59.73421
772.97         59.4583
773.39        59.33305
773.80        59.36948
774.22        59.55095
774.63        59.76367
775.05        59.89123
775.46        59.96852
775.88        59.94315
776.29        59.77394
776.70        59.54785
777.12        59.48133
777.53        59.61909
777.95        59.85247
778.36        60.10825
778.77        60.23262
779.19        60.20534
779.60        60.10775
780.02        59.94739
780.43        59.83012
780.84        59.82065
781.26        59.54659
781.67        59.18039
782.09        59.80197
782.50          61.111
782.91        61.00594
783.33        60.26591
783.74        59.90381
784.15        60.19401
784.57        60.24784
784.98          60.076
785.39        59.95461
785.81        59.96721
786.22        60.37055
786.63         61.0164
787.04        61.33208
787.46        61.26624
787.87        61.09075
788.28        60.92355
788.70        60.82598
789.11        60.82251
789.52        60.91352
789.93         61.0505
790.35        61.14608
790.76        61.17466
791.17        61.14884
791.58        61.10698
792.00        61.02148
792.41        60.90934
792.82        60.98308
793.23        61.16395
793.65        60.82196
794.06        60.19416
794.47        60.44096
794.88         61.3931
795.29        61.81904
795.71        61.61865
796.12        61.61467
796.53        61.83872
796.94        61.69371
797.35        61.32029
797.76        61.54583
798.18        62.23229
798.59        62.49287
799.00        62.23635
799.41        61.95322
799.82        61.76086
800.23        61.63779
800.64        61.62499
801.06         61.6945
801.47         61.8238
801.88        61.89634
802.29        61.86718
802.70        61.74985
803.11        61.58186
803.52        61.41764
803.93        61.30505
804.34        61.28886
804.75        61.32196
805.17        61.35374
805.58        61.47062
805.99         61.4589
806.40        61.44377
806.81        62.36745
807.22        63.79647
807.63        63.70462
808.04        62.30378
808.45        61.72805
808.86         62.1305
809.27        62.30744
809.68        62.14034
810.09        62.03486
810.50        61.98307
810.91        61.88176
811.32        61.81907
811.73        61.92999
812.14        62.22535
812.55        62.67029
812.96        63.11969
813.37        63.28919
813.78        63.10702
814.19        62.68675
814.60        62.17429
815.01        61.76394
815.42        61.50859
815.83        61.34666
816.24         61.2895
816.65        61.35382
817.05        61.53207
817.46        61.80978
817.87        62.09558
818.28        62.19769
818.69        62.08306
819.10        61.77701
819.51        61.45523
819.92        61.44488
820.33         61.8191
820.74        62.47142
821.14        63.16278
821.55        63.50768
821.96        63.41441
822.37        62.99927
822.78        62.46346
823.19        62.15057
823.60        62.17117
824.00        62.44491
824.41        62.79772
824.82        63.02745
825.23        63.04947
825.64         62.9349
826.04        62.76289
826.45         62.6153
826.86         62.5426
827.27        62.52536
827.68        62.51934
828.08        62.48323
828.49        62.36355
828.90        62.19566
829.31        62.08539
829.72        62.20103
830.12        62.58336
830.53          63.119
830.94        63.62212
831.35        63.73391
831.75        63.39016
832.16        62.70121
832.57        61.91298
832.97        61.39659
833.38        61.26589
833.79        61.39266
834.20        61.71276
834.60        62.11788
835.01        62.54521
835.42        63.06664
835.82        63.55802
836.23        63.72654
836.64        63.54455
837.04        63.04103
837.45        62.51611
837.86        62.53186
838.26        63.21793
838.67         64.3847
839.08        65.58385
839.48        65.96499
839.89        65.31529
840.29        63.95357
840.70        62.50412
841.11           61.69
841.51        61.69563
841.92        62.27704
842.33        63.17521
842.73        63.92848
843.14        64.25137
843.54        64.32478
843.95        64.24692
844.35        64.22296
844.76        64.29728
845.17        64.38348
845.57        64.41232
845.98        64.26826
846.38        63.95795
846.79         63.5396
847.19        63.13122
847.60        62.88479
848.00        62.84686
848.41        62.94395
848.81        63.11331
849.22        63.17228
849.62        63.10674
850.03        62.96225
850.43        62.78789
850.84        62.60028
851.24        62.46403
851.65        62.31319
852.05        62.28808
852.46        62.53148
852.86        63.03848
853.27        63.72818
853.67        64.34107
854.07        64.62848
854.48        64.52472
854.88        64.12572
855.29        63.53172
855.69        63.05886
856.10        62.76266
856.50        62.63882
856.90        62.59788
857.31        62.50061
857.71        62.35036
858.12        62.14083
858.52        61.95765
858.92        61.82463
859.33        61.73856
859.73        61.72919
860.13        61.70442
860.54        61.53904
860.94        61.26146
861.34        60.90758
861.75        60.62091
862.15        60.67378
862.55        61.09179
862.96        61.73744
863.36        62.47483
863.76        62.99695
864.17        63.17644
864.57        63.12103
864.97         62.8166
865.38        62.26036
865.78        61.53012
866.18        60.63472
866.58        59.79026
866.99        59.37976
867.39        59.52534
867.79        60.13432
868.19        60.95292
868.60        61.55458
869.00        61.84248
869.40        61.87308
869.80        61.78304
870.21        61.84247
870.61        62.16654
871.01         62.5957
871.41        62.90096
871.81        62.77542
872.22        62.18147
872.62        61.23719
873.02        60.23892
873.42        59.68437
873.82        59.71275
874.22        60.16865
874.63        60.76353
875.03        61.04678
875.43        60.88314
875.83        60.43275
876.23        59.87098
876.63        59.46654
877.03        59.31043
877.44        59.27683
877.84        59.35483
878.24        59.56834
878.64        59.83454
879.04        59.99414
879.44        60.06581
879.84        60.20204
880.24        60.38723
880.64        60.51534
881.04        60.49444
881.44        60.22691
881.84        59.71933
882.24        59.04938
882.65        58.37701
883.05         57.9314
883.45        57.79015
883.85        57.91073
884.25        58.23984
884.65        58.66543
885.05         59.1119
885.45        59.56752
885.85        59.99348
886.25         60.3476
886.65        60.61241
887.05        60.77732
887.45          60.807
887.85        60.66851
888.25        60.37046
888.65        59.93492
889.04        59.46817
889.44        59.14985
889.84        59.01379
890.24        59.04411
890.64        59.12272
891.04        59.04564
891.44        58.77734
891.84        58.38581
892.24        58.04092
892.64        57.98952
893.04        58.28251
893.44         58.8587
893.83        59.53841
894.23        59.97673
894.63        60.09987
895.03        59.96454
895.43        59.80626
895.83        60.02515
896.23        60.67693
896.63        61.59644
897.02        62.41907
897.42        62.59839
897.82        62.03154
898.22        60.96124
898.62        59.73156
899.01        58.83778
899.41        58.44498
899.81        58.40435
900.21        58.61694
900.61        58.91639
901.00        59.21384
901.40        59.54965
901.80        59.86694
902.20        60.06108
902.59        60.11663
902.99        60.02847
903.39        59.84097
903.79        59.65149
904.18        59.49246
904.58        59.35434
904.98        59.27944
905.38        59.32956
905.77        59.51007
906.17        59.82878
906.57        60.15968
906.96        60.29014
907.36        60.15977
907.76         59.8261
908.15         59.5034
908.55        59.51646
908.95        59.93125
909.34        60.65056
909.74        61.36443
910.14        61.64949
910.53        61.37756
910.93        60.71189
911.33        59.88663
911.72        59.24799
912.12        58.96394
912.52         58.9458
912.91        59.07521
913.31        59.18647
913.70        59.22989
914.10        59.21714
914.49        59.31012
914.89        59.69456
915.29        60.40039
915.68        61.35146
916.08        62.17414
916.47        62.33056
916.87        61.74081
917.26         60.5724
917.66        59.35788
918.05        58.75352
918.45        58.90498
918.84        59.67786
919.24        60.63401
919.64        61.11768
920.03        60.94774
920.42        60.29274
920.82        59.59669
921.21        59.49098
921.61        60.09958
922.00         61.2435
922.40         62.4534
922.79        63.04638
923.19        62.78946
923.58        61.93824
923.98        60.91344
924.37        60.26168
924.77        60.14087
925.16        60.35981
925.55        60.70815
925.95        60.81437
926.34        60.58325
926.74        60.13443
927.13        59.62247
927.52        59.20611
927.92        58.98685
928.31        58.89378
928.70        58.88774
929.10        58.89567
929.49        58.87603
929.89        58.79525
930.28        58.80548
930.67        59.06068
931.07        59.54784
931.46        60.27771
931.85        60.89328
932.24        60.86463
932.64        60.16285
933.03        58.95763
933.42        57.81308
933.82        57.54619
934.21        58.31599
934.60         59.9106
934.99        61.79643
935.39        62.99945
935.78        63.22919
936.17         62.6526
936.56        61.70559
936.96        61.08591
937.35        60.99405
937.74        61.23773
938.13        61.46266
938.53        61.14842
938.92        60.22389
939.31        58.93922
939.70        57.73561
940.09          57.206
940.49        57.44278
940.88         58.2908
941.27          59.383
941.66        60.05221
942.05         60.0798
942.44        59.65458
942.84        59.09651
943.23         58.9086
943.62        59.22351
944.01        59.83986
944.40        60.52936
944.79         60.9504
945.18        60.97268
945.57         60.6909
945.97        60.16522
946.36        59.59982
946.75        59.05663
947.14         58.5459
947.53        58.05581
947.92         57.5444
948.31        57.03432
948.70        56.58169
949.09        56.32975
949.48         56.5038
949.87        57.12789
950.26        58.07874
950.65        59.14963
951.04        60.00913
951.43        60.51737
951.82        60.73029
952.21        60.65373
952.60        60.32917
952.99          59.838
953.38        59.21412
953.77        58.61206
954.16         58.2764
954.55        58.25123
954.94        58.45426
955.33        58.80987
955.72        59.15004
956.11        59.38337
956.50        59.56867
956.89        59.53457
957.28        59.01755
957.66        58.02879
958.05        56.71601
958.44         55.5076
958.83        55.01718
959.22        55.34735
959.61        56.34766
960.00        57.61211
960.39        58.35753
960.78        58.31998
961.16        57.69862
961.55        56.91817
961.94        56.55403
962.33         56.7566
962.72         57.3804
963.11        58.13255
963.49        58.49225
963.88        58.23291
964.27        57.54743
964.66         56.8606
965.04        56.80525
965.43        57.45649
965.82        58.67144
966.21        59.94058
966.60        60.28659
966.98        59.42669
967.37         57.7821
967.76        56.03649
968.15        55.03721
968.53         54.9548
968.92        55.56426
969.31        56.48335
969.69        56.96349
970.08        56.69528
970.47        55.95827
970.86         55.2318
971.24        55.18485
971.63           55.95
972.02        57.30983
972.40        58.84483
972.79        59.51359
973.17        59.05659
973.56        57.84006
973.95        56.41961
974.33        55.49635
974.72        55.23346
975.11        55.38586
975.49        55.79886
975.88        56.13594
976.26        56.29332
976.65        56.36898
977.04        56.33747
977.42        56.10258
977.81        55.65378
978.19        54.98996
978.58        54.43098
978.96        54.46824
979.35        55.17038
979.74        56.40863
980.12         57.8385
980.51        58.60354
980.89        58.57687
981.28        57.98594
981.66        57.21165
982.05        56.77805
982.43        56.83879
982.82        57.18807
983.20        57.85288
983.59        58.79066
983.97        59.96593
984.35        61.38521
984.74        62.56105
985.12        62.90435
985.51        62.24038
985.89        60.75829
986.28        59.14075
986.66        58.35688
987.04        58.68627
987.43        59.86994
987.81         61.3667
988.20        62.01133
988.58        61.46063
988.96        60.02808
989.35        58.34389
989.73        57.29817
990.12        57.08424
990.50        57.48027
990.88        58.00565
991.27        57.86002
991.65        56.86922
992.03        55.35546
992.42        53.96186
992.80        53.53033
993.18        54.22398
993.56        55.79949
993.95        57.58561
994.33        58.46795
994.71        57.99031
995.10        56.61925
995.48        55.02534
995.86        54.26748
996.24        54.59741
996.63        55.56408
997.01        56.98968
997.39         58.1814
997.77        58.76538
998.15        59.05368
998.54        58.86215
998.92        57.79295
999.30        56.02955
999.68        53.73559
1000.06        51.80667
1000.45        51.52491
1000.83         53.2058
1001.21        56.62575
1001.59        60.86701
1001.97        63.60293
1002.35        63.84822
1002.73        62.24296
1003.12        59.99194
1003.50        58.61289
1003.88        58.58934
1004.26        59.36864
1004.64        60.64613
1005.02        61.78823
1005.40        62.41255
1005.78        62.85289
1006.16        62.83801
1006.54        61.86246
1006.92        60.05282
1007.30         57.6613
1007.69        55.52111
1008.07         54.6549
1008.45        55.39797
1008.83        57.46449
1009.21        60.36483
1009.59        62.71916
1009.97        63.66293
1010.35        63.49734
1010.73        62.27161
1011.11        60.14593
1011.49        57.54436
1011.86        54.66579
1012.24        52.19718
1012.62        51.03251
1013.00        51.27228
1013.38         52.6795
1013.76        54.95362
1014.14        57.08601
1014.52        58.39995
1014.90        59.07631
1015.28        58.92855
1015.66        57.81289
1016.04        55.88246
1016.41        53.12026
1016.79        50.38194
1017.17        49.37634
1017.55        50.44776
1017.93        52.98861
1018.31        55.83552
1018.69        57.29681
1019.06        56.96323
1019.44        55.27216
1019.82        52.53197
1020.20        49.81817
1020.58        47.89173
1020.95         46.4404
1021.33        45.74076
1021.71        45.96585
1022.09        47.03933
1022.46        49.25836
1022.84        51.79212
1023.22        52.39563
1023.60        50.36701
1023.97        46.28382
1024.35        42.50354
1024.73        41.73675
