SpectraSmart Spectrum 2.9.0.0
--------- Device Information -----------
Spectrum Name :  反射率_0
Saving Time :  2024/04/26 22:12:58
Spectro-Module Model Name : SE2030-DUVN
Spectro-Module Serial Number : OS361AC55029948
Wavelength Start : 200
Wavelength End : 1025
Wavelength Unit : Wavelength(nm)
Spectrum Unit : Reflectance(%)
-----------Spectrum Setting ------------
Integration Time : 20ms
Average : 10
Boxcar : 0
Background removal :  enabled
linearity correction :  enabled
SC :  disabled
Intensity correction :  disabled
DWT denoise :  enabled
savitzky-golay :  disabled
FFT :  disabled
Running average :  disabled
Kalman :  disabled
High pass :  disabled
---------------BEGIN--------------------
Wavelength(nm)             Reflectance(%)
200.29               0
200.75        53.22525
201.21        54.10574
201.67        55.36619
202.13         57.3126
202.58        60.05223
203.04        64.29295
203.50        70.08376
203.96        75.58951
204.42        79.16409
204.88        80.76315
205.34        80.00813
205.80        77.66489
206.26        74.54725
206.72        70.37732
207.18        67.25693
207.64        67.00591
208.10        69.70371
208.55        76.75544
209.01        85.23045
209.47         84.0263
209.93        71.65131
210.39        57.21595
210.85        47.98545
211.31        46.83529
211.77        54.18431
212.23        75.94324
212.69        134.5745
213.14        237.8427
213.60          241.98
214.06        175.9266
214.52        129.2121
214.98        108.1057
215.44        99.21425
215.90        93.52795
216.36        90.46838
216.81        90.78053
217.27        94.93562
217.73        106.2402
218.19        122.2493
218.65        125.9754
219.11        113.3007
219.57        95.82352
220.02        85.16428
220.48        87.86522
220.94        103.3262
221.40        133.4585
221.86        178.0886
222.32        210.0037
222.77        203.5014
223.23        175.9366
223.69        146.9735
224.15        128.0924
224.61        118.1469
225.06        112.0221
225.52        109.4418
225.98        109.7543
226.44        112.2569
226.90        117.1601
227.36        122.5263
227.81        124.6721
228.27        123.2115
228.73         119.127
229.19        115.2046
229.65        114.8357
230.10        118.0253
230.56        123.6205
231.02        128.8982
231.48        129.6355
231.93         125.325
232.39        118.5277
232.85        111.8267
233.31        108.4978
233.77        108.8872
234.22        111.6803
234.68        115.5896
235.14        118.7041
235.60        120.2883
236.05        121.0611
236.51        120.7559
236.97        119.2357
237.43        116.6632
237.88         113.039
238.34        109.1803
238.80        106.9015
239.26        106.8083
239.71         109.553
240.17        114.2784
240.63        118.9153
241.08        122.1473
241.54        123.1959
242.00        123.9518
242.46        128.7725
242.91        141.1995
243.37        162.6664
243.83        193.4915
244.28        218.8244
244.74         216.569
245.20        187.8276
245.66        153.2239
246.11        129.9994
246.57        118.5899
247.03        113.6214
247.48        111.1546
247.94         106.227
248.40        99.52834
248.85        93.77989
249.31        89.88857
249.77        87.01162
250.22        84.33236
250.68        80.83592
251.14        76.97585
251.59        75.32073
252.05        77.46446
252.51        82.77431
252.96        87.29309
253.42        87.90153
253.88        85.21896
254.33        80.54406
254.79        77.96991
255.25        80.81528
255.70        88.44076
256.16        99.21892
256.62        108.5125
257.07        109.3241
257.53        103.6419
257.99        96.01517
258.44         89.7389
258.90        87.86856
259.35        89.04115
259.81        92.11282
260.27        95.48312
260.72        97.26912
261.18         97.5552
261.63        96.64668
262.09        95.72437
262.55        95.24968
263.00        95.10224
263.46        95.30142
263.91        95.10776
264.37         94.1853
264.83        92.51643
265.28        90.35488
265.74        88.53606
266.19        87.58334
266.65        87.64789
267.11        88.32331
267.56        89.12074
268.02        89.28986
268.47        88.61133
268.93        87.40506
269.38        85.87112
269.84        84.43124
270.30        83.19983
270.75        82.01176
271.21        80.99189
271.66        80.23032
272.12        79.71389
272.57        79.37971
273.03        78.97022
273.48        78.00526
273.94          76.527
274.39        74.67197
274.85        72.86578
275.31         71.4577
275.76        70.47587
276.22         69.8453
276.67        69.37341
277.13        68.99565
277.58        68.53197
278.04        68.05309
278.49        67.38435
278.95         66.4771
279.40        65.26708
279.86        63.95436
280.31        62.54224
280.77        61.25578
281.22        60.07839
281.68        59.07691
282.13        58.25528
282.59        57.80191
283.04        57.61208
283.50        57.64485
283.95        57.65505
284.41        57.30756
284.86        56.52648
285.32          55.492
285.77        54.35067
286.22        53.42341
286.68        52.77957
287.13        52.26244
287.59        51.85779
288.04        51.45776
288.50        51.06673
288.95        50.68584
289.41        50.27911
289.86        49.66363
290.32        48.89597
290.77        47.99321
291.22         47.1586
291.68        46.67514
292.13        46.56249
292.59        46.75003
293.04        47.05248
293.50        47.20985
293.95        47.13863
294.40        46.92893
294.86        46.69735
295.31        46.61103
295.77        46.72758
296.22        46.96481
296.68        47.27335
297.13        47.55226
297.58        47.78261
298.04        48.01043
298.49        48.23833
298.95        48.49159
299.40         48.7643
299.85        49.03587
300.31        49.33181
300.76        49.67455
301.21        50.05979
301.67        50.48771
302.12        50.85772
302.58         51.0973
303.03        51.16543
303.48        51.13211
303.94        51.09026
304.39        51.12363
304.84        51.27188
305.30        51.50166
305.75        51.75449
306.20          52.015
306.66        52.27079
307.11        52.50452
307.57        52.67415
308.02        52.64291
308.47        52.42107
308.93        52.05839
309.38        51.66265
309.83        51.46783
310.29        51.51702
310.74        51.74138
311.19        51.99068
311.65        52.00864
312.10        51.73269
312.55        51.24724
313.00        50.72422
313.46        50.41782
313.91        50.36332
314.36        50.48921
314.82        50.63958
315.27        50.58096
315.72        50.25218
316.18        49.74929
316.63        49.20128
317.08        48.82536
317.53        48.67124
317.99        48.65871
318.44         48.6927
318.89        48.60618
319.35        48.35318
319.80        47.99533
320.25        47.59784
320.70        47.26111
321.16        47.01477
321.61         46.8371
322.06        46.69805
322.51         46.5585
322.97        46.39444
323.42         46.2226
323.87        46.05757
324.32        45.92711
324.78        45.81866
325.23        45.75096
325.68        45.65017
326.13        45.41433
326.59         45.0336
327.04        44.55687
327.49        44.10173
327.94        43.85994
328.39        43.86295
328.85        44.03407
329.30        44.27542
329.75          44.315
330.20        44.07557
330.66        43.62927
331.11        43.11821
331.56        42.73743
332.01        42.55129
332.46        42.49538
332.92        42.49657
333.37         42.4982
333.82        42.44265
334.27        42.36724
334.72        42.27584
335.17        42.16321
335.63        42.03391
336.08        41.91011
336.53        41.80804
336.98        41.77742
337.43        41.82992
337.88        41.94181
338.34        42.10301
338.79        42.33871
339.24        42.60908
339.69        42.89429
340.14        43.10714
340.59        43.11465
341.05         42.9117
341.50        42.54859
341.95        42.13412
342.40        41.83534
342.85        41.70361
343.30        41.69191
343.75        41.77564
344.20        41.90864
344.66        42.06212
345.11        42.24616
345.56        42.40039
346.01        42.42984
346.46        42.32516
346.91         42.1111
347.36        41.87266
347.81        41.75316
348.26        41.78249
348.72        41.91709
349.17        42.08473
349.62        42.18457
350.07        42.18576
350.52        42.12791
350.97        42.02392
351.42        41.89524
351.87        41.75994
352.32        41.60818
352.77        41.48093
353.22        41.43807
353.67        41.48592
354.13        41.61473
354.58        41.75567
355.03        41.78697
355.48        41.67758
355.93        41.45057
356.38        41.20333
356.83        41.08784
357.28        41.12342
357.73        41.25552
358.18          41.354
358.63        41.21058
359.08        40.78977
359.53        40.17817
359.98        39.51955
360.43        39.02048
360.88        38.73139
361.33        38.59011
361.78        38.51831
362.23        38.38968
362.68        38.16919
363.13        37.90575
363.58        37.63315
364.03        37.39762
364.48        37.21022
364.93        37.03858
365.38        36.87965
365.83        36.73994
366.28        36.61208
366.73        36.49635
367.18        36.35938
367.63        36.14397
368.08        35.84737
368.53        35.49703
368.98         35.1418
369.43        34.85907
369.88        34.67054
370.33        34.55064
370.78         34.4812
371.23        34.43113
371.68        34.37798
372.13        34.32275
372.58        34.23731
373.03        34.07804
373.48        33.83779
373.93        33.52723
374.38        33.18008
374.83        32.85783
375.28        32.58359
375.72        32.34097
376.17        32.14175
376.62        31.95675
377.07        31.78361
377.52        31.64099
377.97        31.52582
378.42        31.43496
378.87        31.36328
379.32        31.28842
379.77        31.23792
380.22        31.25666
380.67         31.3408
381.11         31.4914
381.56        31.58654
382.01        31.45743
382.46        31.09038
382.91        30.55998
383.36        30.04902
383.81        29.81108
384.26         29.8789
384.71        30.16663
385.15        30.51457
385.60        30.64932
386.05        30.49902
386.50        30.16221
386.95        29.75032
387.40        29.43649
387.85        29.27585
388.29        29.18655
388.74        29.18094
389.19        29.21268
389.64        29.25619
390.09        29.31779
390.54        29.35723
390.98        29.29465
391.43        29.13771
391.88         28.9121
392.33         28.6622
392.78        28.45427
393.23        28.30838
393.67        28.19389
394.12        28.13811
394.57        28.12456
395.02        28.14129
395.47        28.17943
395.91        28.21857
396.36         28.2075
396.81        28.15038
397.26        28.06699
397.71         27.9613
398.15        27.85987
398.60        27.80616
399.05        27.67763
399.50        27.53111
399.95        27.65255
400.39        27.95547
400.84         27.9302
401.29        27.58836
401.74        27.38606
402.18        27.35194
402.63         27.2088
403.08        26.99913
403.53        26.91135
403.97        26.95765
404.42        27.08597
404.87        27.23149
405.32        27.28672
405.76        27.22036
406.21        27.07807
406.66         26.9122
407.11        26.80791
407.55        26.79502
408.00        26.83481
408.45        26.89305
408.90        26.89805
409.34        26.82842
409.79        26.71693
410.24        26.60063
410.68        26.52052
411.13        26.49318
411.58        26.50097
412.03        26.51833
412.47        26.50728
412.92        26.44905
413.37        26.36661
413.81        26.28173
414.26        26.24838
414.71        26.26666
415.15         26.3313
415.60        26.40533
416.05        26.45162
416.49        26.45954
416.94        26.43546
417.39        26.40639
417.83        26.41162
418.28        26.45744
418.73        26.52424
419.17        26.58925
419.62         26.6186
420.07        26.60318
420.51         26.5505
420.96        26.47626
421.41        26.39737
421.85        26.31404
422.30        26.21453
422.74          26.098
423.19        26.07853
423.64        26.11776
424.08        26.05492
424.53        25.90061
424.98        25.87118
425.42         25.9939
425.87        26.08484
426.31         26.1289
426.76        26.29408
427.21        26.49441
427.65        26.36474
428.10        26.00915
428.54        25.86778
428.99        25.98082
429.44        26.20613
429.88        26.42844
430.33        26.36513
430.77        26.08771
431.22        26.11931
431.66        26.42302
432.11        26.52191
432.56        26.41777
433.00        26.36292
433.45        26.31133
433.89        26.29013
434.34        26.36646
434.78        25.77391
435.23        26.03082
435.67        25.99219
436.12        26.05613
436.57        26.03574
437.01         25.9463
437.46        25.91348
437.90         25.9291
438.35        25.91391
438.79        25.86038
439.24        25.82686
439.68        25.81284
440.13        25.80444
440.57        25.80646
441.02        25.82891
441.46        25.86184
441.91        25.89532
442.35        25.90161
442.80        25.95973
443.24          26.025
443.69        25.99239
444.13        25.87518
444.58        25.81618
445.02        25.82212
445.47         25.8245
445.91        25.82292
446.36        25.85587
446.80        25.91507
447.24         25.9896
447.69        26.06314
448.13        26.09945
448.58        26.09611
449.02        26.05764
449.47        26.00321
449.91        25.94957
450.36        25.91497
450.80        25.89398
451.25        25.89133
451.69        25.89552
452.13         25.9074
452.58         25.9202
453.02        25.94528
453.47        26.00421
453.91        26.09265
454.36        26.20434
454.80        26.28364
455.24        26.24377
455.69        26.08496
456.13         25.8261
456.58        25.57392
457.02        25.44737
457.46        25.48056
457.91        25.63221
458.35        25.80788
458.79        25.86457
459.24        25.79226
459.68        25.62909
460.13        25.46992
460.57        25.39375
461.01         25.4412
461.46        25.55603
461.90        25.72508
462.34        25.91029
462.79        26.07755
463.23        26.24343
463.68        26.34971
464.12         26.3176
464.56        26.14116
465.01        25.88754
465.45        25.60696
465.89         25.4363
466.34         25.3973
466.78        25.45004
467.22        25.56256
467.67        25.65022
468.11        25.69883
468.55        25.72111
468.99        25.73223
469.44        25.75309
469.88        25.79201
470.32        25.83167
470.77        25.86787
471.21        25.90372
471.65        25.93498
472.10        25.96677
472.54        25.98874
472.98        25.99126
473.42        25.97514
473.87        25.95427
474.31        25.92576
474.75        25.90936
475.20        25.91615
475.64        25.93167
476.08        25.96244
476.52        26.00397
476.97        26.05303
477.41        26.12213
477.85        26.20748
478.29        26.26401
478.74        26.30745
479.18         26.4066
479.62        26.53952
480.06        26.62768
480.50        26.66971
480.95        26.67514
481.39        26.63431
481.83        26.78726
482.27         26.7358
482.72        26.81194
483.16        26.86642
483.60        26.89855
484.04        26.91089
484.48        27.04747
484.93        27.24964
485.37        27.06171
485.81        27.47392
486.25         27.2617
486.69        26.61994
487.14        27.77609
487.58        28.66914
488.02        28.37189
488.46        27.69855
488.90        28.00997
489.34        28.22557
489.79        28.65748
490.23        28.67789
490.67        28.62855
491.11        28.53928
491.55        28.53499
491.99        28.65199
492.43        28.73214
492.88        28.78471
493.32        28.93597
493.76        29.16599
494.20        29.38223
494.64        29.57372
495.08        29.72799
495.52        29.84796
495.96        30.05391
496.41        30.31103
496.85        30.35075
497.29        30.19804
497.73        30.38268
498.17         30.5053
498.61        30.67692
499.05        30.75818
499.49        30.90213
499.93        31.01639
500.37        31.23838
500.82        31.50501
501.26        31.69997
501.70        31.80081
502.14        31.85993
502.58        31.91634
503.02        32.01145
503.46        32.15575
503.90        32.33312
504.34        32.49768
504.78        32.57565
505.22        32.55264
505.66         32.4571
506.10        32.34209
506.54        32.28973
506.98        32.32321
507.42         32.4196
507.86        32.54898
508.30        32.66031
508.74        32.73682
509.18        32.79603
509.62        32.84814
510.06        32.90889
510.50        32.98314
510.94        33.05896
511.38        33.13778
511.82        33.22514
512.26        33.31955
512.70        33.42185
513.14        33.51604
513.58        33.57535
514.02        33.59543
514.46        33.58195
514.90        33.56096
515.34        33.57579
515.78        33.63357
516.22        33.71929
516.66        33.80074
517.10        33.82542
517.54        33.78325
517.98        33.69617
518.42        33.59165
518.86          33.513
519.30        33.47486
519.74        33.46286
520.18        33.47371
520.62        33.50133
521.06        33.53981
521.50        33.59389
521.93        33.64648
522.37        33.65668
522.81        33.62273
523.25         33.5513
523.69        33.47423
524.13         33.4446
524.57        33.46897
525.01        33.52531
525.45        33.57845
525.89        33.57089
526.32        33.48638
526.76        33.35873
527.20        33.20506
527.64        33.05426
528.08         32.9221
528.52        32.80051
528.96         32.7113
529.40        32.68771
529.83        32.72806
530.27        32.82449
530.71        32.92591
531.15        32.95256
531.59        32.88648
532.03        32.74664
532.46         32.5781
532.90        32.47768
533.34        32.46136
533.78         32.4843
534.22        32.50489
534.66        32.49942
535.09        32.43108
535.53         32.2481
535.97        32.00669
536.41        31.87539
536.85         31.8783
537.28        31.94014
537.72        32.02815
538.16        32.11308
538.60        32.17763
539.04        32.23215
539.47        32.28099
539.91        32.35183
540.35        32.44204
540.79        32.53931
541.22        32.63704
541.66         32.7385
542.10        32.83791
542.54        32.93937
542.97        33.03052
543.41        33.10545
543.85         33.1631
544.29        33.21349
544.72        33.27305
545.16        33.38825
545.60        33.56112
546.04        33.78337
546.47        34.03762
546.91        34.28845
547.35        34.51654
547.79        34.72426
548.22        34.91177
548.66        35.07866
549.10        35.26516
549.53        35.44546
549.97        35.61444
550.41         35.6945
550.84        35.72554
551.28        35.80922
551.72         35.9388
552.15        36.13239
552.59        36.43452
553.03        36.30294
553.46        36.80476
553.90        36.95158
554.34        37.05365
554.77        37.12525
555.21        37.21326
555.65        37.33801
556.08        37.48919
556.52        37.67809
556.96        37.88329
557.39        37.95551
557.83        38.21088
558.27        38.16054
558.70        37.97079
559.14        37.95948
559.57        38.12486
560.01        38.25955
560.45        38.34025
560.88        38.45203
561.32        38.60115
561.75        38.75055
562.19        38.89967
562.63        38.96395
563.06         38.9597
563.50        39.09625
563.93        39.20207
564.37        39.27485
564.80        39.29412
565.24        39.24488
565.68        39.08188
566.11        39.55388
566.55        39.25199
566.98        39.33716
567.42        39.44431
567.85          39.649
568.29        39.94024
568.72        40.25806
569.16        40.61577
569.60        40.81918
570.03        40.98829
570.47        41.18172
570.90        41.48269
571.34        41.21317
571.77        41.45233
572.21        41.91894
572.64        42.00336
573.08        42.24867
573.51        42.09608
573.95        42.09743
574.38         42.3213
574.82        42.41855
575.25        42.19422
575.69        42.56376
576.12        42.63676
576.56        42.40036
576.99        42.24386
577.42        42.44132
577.86        42.49812
578.29        42.93374
578.73        42.84357
579.16        42.92856
579.60          42.444
580.03         42.4238
580.47        42.10914
580.90        42.66815
581.33        42.48669
581.77        42.36554
582.20        41.54988
582.64        42.00988
583.07        42.00933
583.51        42.10943
583.94        41.90866
584.37        41.72132
584.81        41.59807
585.24        41.28362
585.68        40.95335
586.11        40.70762
586.54        40.89879
586.98        40.67951
587.41        40.39336
587.85        40.24524
588.28        40.32309
588.71        40.54347
589.15           40.37
589.58        40.55966
590.01        40.36691
590.45        40.23277
590.88        40.66478
591.31         40.6039
591.75        40.33576
592.18        40.14672
592.61         40.0875
593.05        40.56868
593.48        40.66216
593.91        40.59165
594.35        40.82887
594.78        40.50547
595.21        40.57609
595.65         40.8774
596.08        41.60907
596.51         41.9122
596.94        41.66476
597.38        41.74039
597.81        42.09622
598.24        42.57548
598.68        42.75586
599.11        42.85301
599.54         43.3968
599.97        43.41429
600.41        44.13628
600.84        43.87319
601.27        44.55844
601.70        44.91692
602.14        45.34799
602.57        45.57032
603.00        45.78852
603.43        45.61161
603.87        46.76347
604.30         47.3618
604.73        47.96459
605.16        47.57887
605.60        48.26996
606.03         48.3491
606.46        48.39527
606.89        49.13744
607.32        50.04107
607.76         50.0343
608.19        50.78064
608.62         50.9894
609.05        51.33016
609.48        51.62634
609.92        52.51915
610.35        52.87591
610.78        52.18073
611.21        52.74854
611.64          52.925
612.07        53.47485
612.50        53.62468
612.94          53.909
613.37        54.22453
613.80        54.31294
614.23        54.20832
614.66         54.4379
615.09        54.99965
615.52         55.4682
615.96        55.73521
616.39        56.11536
616.82        56.64951
617.25        56.27673
617.68        56.58969
618.11        56.84188
618.54        57.39641
618.97        57.60881
619.40        57.49503
619.84        57.60851
620.27        57.52843
620.70        57.93293
621.13        58.49022
621.56        58.18065
621.99        57.17265
622.42        57.01012
622.85        57.77583
623.28        57.57726
623.71        57.88726
624.14        57.84965
624.57          58.298
625.00        58.08387
625.43        58.36504
625.86        58.18219
626.29        57.86083
626.72        57.86665
627.15        57.64323
627.58        57.64036
628.01        57.58867
628.44        57.36208
628.87        56.93523
629.30        56.54942
629.73         56.2449
630.16         56.2327
630.59        56.06596
631.02        55.95755
631.45        55.75386
631.88         55.5414
632.31        55.30034
632.74        54.94506
633.17        54.49162
633.60        54.01756
634.03        53.54492
634.46        53.05388
634.89        52.55486
635.32        52.07762
635.75        51.63461
636.18        51.17374
636.61         50.7262
637.04        50.36368
637.47        50.08637
637.89        49.86424
638.32        49.63604
638.75        49.35374
639.18        49.00603
639.61        48.61246
640.04        48.21961
640.47        47.89872
640.90         47.6673
641.33        47.50712
641.76        47.38757
642.18        47.26379
642.61        47.10917
643.04        46.94652
643.47        46.80251
643.90        46.71811
644.33        46.70118
644.76        46.73682
645.18        46.80003
645.61         46.8383
646.04        46.85128
646.47        46.86609
646.90        46.91311
647.33          47.038
647.75        47.23415
648.18         47.5032
648.61        47.86653
649.04        48.22762
649.47        48.49889
649.89        49.34256
650.32        49.43151
650.75        49.74477
651.18        49.97086
651.61        50.42126
652.03         51.0747
652.46        51.64645
652.89        52.13396
653.32        52.60287
653.74        53.00636
654.17        53.61222
654.60        54.03785
655.03        54.28552
655.46        53.72984
655.88         54.1201
656.31        55.06831
656.74        53.05403
657.16        58.07383
657.59        64.13968
658.02        58.86999
658.45        58.22239
658.87        57.85669
659.30        58.56863
659.73        58.54228
660.15        60.23093
660.58        59.22989
661.01        59.24158
661.44        59.31219
661.86         59.3354
662.29        59.33608
662.72        60.21935
663.14        60.70113
663.57         60.9236
664.00        60.66425
664.42        60.77359
664.85        61.32024
665.27        61.91404
665.70        62.38014
666.13        62.63001
666.55         62.6315
666.98        62.39127
667.41         62.0345
667.83        62.13548
668.26        62.10134
668.69        62.40192
669.11        62.77232
669.54        63.09105
669.96        63.32877
670.39        63.50776
670.82        63.62977
671.24        63.76863
671.67        63.95735
672.09        63.77809
672.52         63.8688
672.94        64.06496
673.37        64.45477
673.80        64.55515
674.22        64.40172
674.65        64.40153
675.07        64.58318
675.50         64.6862
675.92        64.70128
676.35        64.72866
676.77        64.77309
677.20         64.8041
677.62        64.84235
678.05        64.91961
678.47        65.03812
678.90        65.20236
679.32        65.37507
679.75        65.50449
680.17         65.5777
680.60         65.6167
681.02        65.65868
681.45        65.79667
681.87        66.05399
682.30        66.35683
682.72        66.65464
683.15         66.9102
683.57        67.06915
684.00        66.95673
684.42        66.69762
684.85        66.67191
685.27        66.91604
685.70         67.2652
686.12         67.5989
686.54        67.80654
686.97        67.84668
687.39        67.74934
687.82        67.58768
688.24        67.55389
688.66         67.6637
689.09        67.74336
689.51        67.79758
689.94        67.94965
690.36        68.17543
690.78        68.30127
691.21        68.34722
691.63        68.46516
692.06        68.65813
692.48        68.83817
692.90        68.97025
693.33        69.03585
693.75        69.01829
694.17        68.94593
694.60        68.90722
695.02        68.88302
695.44        68.93517
695.87        69.45804
696.29         70.2262
696.71        70.18954
697.14        69.50803
697.56        69.35911
697.98        69.75173
698.41        70.24203
698.83        70.02711
699.25        70.31345
699.68        70.75009
700.10        70.94971
700.52        70.84055
700.94        70.56275
701.37        70.28477
701.79        70.26292
702.21        70.54977
702.64         71.0359
703.06        71.57632
703.48        71.92097
703.90        71.99699
704.33        71.88544
704.75        71.67837
705.17        71.51409
705.59        71.45226
706.01        71.45237
706.44        71.51564
706.86        71.66296
707.28        71.87009
707.70        72.14174
708.12        72.44469
708.55        72.68716
708.97        72.85894
709.39         73.0031
709.81        73.10938
710.23        73.15042
710.66        73.12714
711.08        73.07336
711.50        72.99678
711.92        72.92313
712.34        72.87101
712.76        72.85513
713.19        72.86266
713.61        72.90714
714.03        72.97503
714.45        73.07015
714.87        73.22112
715.29        73.47536
715.71        73.82568
716.13        74.23212
716.56        74.60654
716.98        74.90374
717.40        75.05179
717.82        75.07393
718.24        74.97845
718.66        74.78464
719.08        74.53323
719.50        74.25098
719.92        74.01379
720.34        73.92931
720.76        74.01923
721.19        74.23477
721.61        74.55891
722.03        74.89745
722.45        75.19751
722.87         75.4586
723.29        75.63394
723.71        75.65836
724.13        75.53091
724.55        75.27804
724.97        74.97248
725.39        74.74361
725.81        74.63912
726.23        74.62266
726.65         74.6797
727.07        74.88283
727.49        75.04246
727.91        75.29893
728.33        75.57557
728.75         75.8306
729.17        76.04301
729.59        76.20494
730.01        76.31032
730.43        76.39397
730.85        76.46466
731.27        76.42878
731.69        76.30396
732.10        76.38905
732.52        76.39822
732.94         76.2681
733.36        75.99036
733.78        75.76827
734.20         75.6244
734.62        75.70474
735.04        76.08994
735.46        75.58297
735.88        76.42115
736.30        76.65514
736.72         76.9559
737.13        77.45599
737.55        77.97234
737.97        78.22836
738.39        78.12814
738.81        77.55669
739.23        76.76441
739.65        76.64168
740.06        77.12405
740.48        77.34877
740.90        77.25742
741.32        77.42648
741.74        77.83568
742.16        78.11189
742.57         78.2102
742.99        78.21434
743.41        78.13786
743.83        77.98412
744.25        77.78203
744.67        77.51735
745.08        77.28692
745.50        77.24928
745.92        77.41922
746.34        77.68681
746.75        77.97005
747.17        78.13251
747.59        78.13451
748.01         78.1034
748.42        78.04538
748.84        77.79371
749.26        77.47656
749.68        77.53529
750.09        77.70253
750.51        78.13169
750.93         78.5348
751.35        78.41936
751.76        77.87722
752.18        77.57138
752.60        77.53179
753.01        77.56802
753.43        77.29695
753.85        77.22309
754.27        77.23887
754.68        77.46536
755.10        77.85871
755.52        77.70935
755.93        77.87332
756.35         77.9216
756.77        78.18106
757.18        78.38446
757.60        78.53088
758.02        79.02849
758.43        79.64477
758.85         78.9852
759.26        78.76805
759.68        77.72507
760.10        77.09766
760.51        77.61898
760.93        79.27391
761.34         78.3622
761.76         78.6202
762.18        78.60064
762.59        79.41747
763.01        79.70094
763.42        79.49674
763.84        79.53352
764.26        79.76454
764.67        79.46323
765.09         78.8485
765.50        78.73934
765.92        79.12253
766.33        79.22481
766.75        78.92562
767.16        78.94079
767.58        78.94453
768.00        78.75113
768.41        78.47881
768.83        78.71191
769.24        79.30977
769.66        79.89928
770.07        80.23563
770.49        79.60493
770.90        78.43964
771.32        78.74637
771.73        80.32033
772.15        80.87374
772.56        80.29781
772.97        79.86702
773.39        79.78059
773.80        79.84052
774.22        80.01978
774.63        80.23202
775.05        80.34431
775.46        80.43114
775.88        80.43231
776.29         80.2787
776.70         80.0548
777.12        80.00396
777.53        80.17104
777.95        80.41463
778.36        80.67504
778.77        80.80137
779.19        80.78475
779.60        80.74269
780.02        80.63339
780.43        80.47998
780.84        80.37766
781.26        79.92458
781.67        79.41355
782.09        80.35923
782.50        82.24027
782.91        82.33947
783.33         80.8151
783.74        80.30611
784.15        80.92435
784.57        81.15734
784.98        80.98705
785.39        80.93141
785.81        81.05214
786.22        81.60535
786.63        82.37298
787.04        82.48446
787.46        82.04292
787.87        81.86153
788.28        81.96201
788.70        82.26007
789.11        81.83325
789.52        81.85728
789.93         82.0211
790.35         82.0328
790.76        81.90086
791.17        81.80112
791.58        81.81622
792.00        81.86224
792.41        81.91192
792.82        82.16496
793.23        82.43327
793.65        81.84716
794.06        80.74432
794.47        80.69302
794.88        81.60722
795.29        82.15674
795.71        81.88843
796.12        82.32874
796.53        83.21547
796.94        82.97304
797.35        81.83627
797.76        81.87872
798.18        83.00653
798.59        83.38756
799.00        82.91223
799.41         82.6629
799.82        82.73852
800.23        82.77847
800.64        82.79139
801.06        82.83861
801.47        82.91994
801.88        82.92723
802.29        82.82373
802.70        82.60875
803.11        82.35067
803.52        82.08577
803.93        81.86393
804.34        81.90547
804.75        82.17928
805.17        81.88888
805.58        82.32607
805.99        82.36371
806.40        82.47015
806.81        83.76875
807.22        85.63536
807.63        85.26743
808.04        83.04601
808.45         82.1349
808.86        82.78384
809.27        83.25153
809.68         83.2834
810.09        83.29874
810.50        83.22863
810.91        82.96243
811.32        82.70104
811.73        82.73112
812.14        83.09817
812.55        83.81601
812.96        84.60764
813.37        84.72084
813.78        84.12872
814.19        83.52719
814.60        83.09717
815.01        82.65868
815.42        82.27674
815.83        82.13891
816.24        82.21463
816.65        82.30283
817.05        82.36588
817.46        82.44209
817.87        82.54699
818.28         82.6349
818.69        82.70999
819.10        82.75706
819.51        82.82229
819.92        83.05276
820.33        83.46225
820.74        83.85047
821.14         84.1552
821.55        84.59164
821.96        84.98641
822.37        84.66365
822.78        83.78214
823.19        83.29177
823.60         83.3236
824.00        83.40694
824.41        83.46074
824.82        83.69907
825.23        84.08121
825.64        84.54807
826.04        84.97262
826.45        85.10232
826.86        84.91347
827.27        84.46967
827.68        83.91414
828.08        83.60197
828.49        83.53804
828.90        83.50009
829.31        83.53778
829.72        83.87109
830.12        84.50511
830.53        85.26206
830.94        85.89336
831.35        85.96364
831.75        85.39694
832.16        84.29503
832.57        83.05791
832.97        82.30684
833.38        82.21078
833.79         82.5874
834.20        83.19888
834.60        83.64983
835.01        83.82098
835.42        83.88132
835.82        83.90599
836.23        83.91914
836.64        83.98731
837.04         84.0246
837.45        84.14509
837.86        84.63689
838.26        85.54569
838.67        86.73841
839.08         87.8299
839.48        88.07965
839.89        87.31938
840.29        85.82529
840.70        84.26247
841.11        83.37454
841.51        83.35559
841.92        83.97479
842.33         84.9436
842.73        85.73626
843.14        86.02697
843.54        86.02358
843.95        85.88766
844.35        85.94736
844.76        86.25741
845.17        86.68924
845.57        87.06554
845.98        87.08464
846.38        86.71588
846.79        86.06977
847.19        85.37708
847.60        84.96404
848.00        84.93282
848.41        85.15283
848.81        85.50014
849.22         85.6627
849.62        85.59966
850.03        85.39333
850.43         85.1364
850.84        84.89216
851.24        84.74989
851.65        84.58154
852.05        84.54514
852.46        84.77541
852.86        85.26707
853.27        85.97185
853.67        86.54271
854.07        86.63869
854.48        86.18783
854.88        85.32615
855.29        84.30345
855.69        83.75648
856.10        83.79489
856.50        84.34052
856.90        85.07584
857.31        85.48306
857.71         85.4632
858.12         85.0821
858.52        84.58032
858.92        84.22516
859.33        84.09511
859.73        84.15256
860.13        84.23708
860.54         84.1236
860.94        83.81209
861.34        83.37334
861.75        82.96819
862.15        82.89368
862.55        83.18478
862.96        83.69791
863.36         84.2913
863.76         84.6239
864.17        84.57701
864.57         84.2779
864.97        83.79494
865.38        83.24715
865.78        82.73306
866.18        82.22919
866.58        81.81409
866.99        81.62798
867.39        81.73264
867.79         82.0805
868.19        82.57949
868.60        83.04338
869.00        83.43867
869.40        83.76514
869.80        83.99854
870.21        84.11127
870.61        84.16328
871.01        84.09184
871.41        83.88208
871.81        83.51681
872.22        83.00381
872.62        82.37226
873.02        81.75539
873.42        81.36295
873.82        81.25639
874.22        81.38596
874.63        81.60431
875.03        81.68494
875.43         81.5467
875.83        81.24915
876.23        80.90975
876.63        80.70835
877.03        80.69846
877.44        80.81625
877.84        80.98068
878.24        81.03786
878.64         80.9192
879.04         80.5741
879.44        80.22492
879.84        80.26779
880.24        80.72964
880.64        81.46824
881.04        82.10066
881.44         82.0162
881.84        81.10866
882.24        79.60388
882.65        78.03007
883.05        77.19131
883.45        77.30495
883.85        78.17712
884.25        79.38519
884.65        80.19447
885.05        80.37596
885.45        80.11739
885.85        79.78469
886.25        79.94615
886.65        80.70666
887.05        81.84612
887.45        82.94532
887.85         83.3387
888.25        82.86629
888.65        81.76488
889.04        80.47154
889.44        79.68308
889.84        79.56239
890.24         79.9098
890.64        80.41298
891.04        80.55532
891.44        80.20772
891.84        79.58218
892.24        78.91057
892.64        78.51013
893.04        78.47981
893.44        78.72016
893.83        79.15325
894.23        79.60452
894.63        80.02185
895.03        80.41454
895.43        80.82625
895.83        81.33323
896.23        81.90307
896.63         82.4448
897.02         82.7748
897.42        82.65161
897.82        82.06133
898.22        81.16852
898.62        80.16543
899.01        79.31349
899.41        78.73823
899.81        78.35926
900.21         78.2459
900.61        78.49332
901.00        79.06362
901.40        79.90733
901.80        80.74899
902.20        81.13748
902.59        80.98984
902.99        80.41529
903.39        79.69595
903.79        79.31503
904.18        79.39376
904.58        79.78088
904.98         80.3279
905.38        80.82028
905.77        81.17513
906.17        81.48141
906.57        81.66831
906.96        81.60924
907.36        81.29589
907.76        80.78973
908.15        80.31499
908.55        80.21412
908.95        80.56282
909.34        81.25249
909.74        82.04375
910.14        82.63769
910.53        82.88506
910.93        82.88817
911.33        82.61607
911.72        82.00905
912.12        81.20364
912.52         80.2602
912.91        79.39306
913.31        78.95814
913.70         79.0272
914.10         79.4705
914.49        80.22397
914.89        81.04561
915.29         81.8264
915.68        82.59961
916.08        83.13253
916.47        83.14909
916.87         82.6433
917.26        81.68195
917.66         80.6609
918.05         80.0205
918.45         79.8794
918.84        80.17776
919.24        80.65501
919.64        80.98579
920.03        81.06871
920.42        80.95631
920.82        80.84621
921.21        80.98713
921.61        81.40373
922.00        82.04255
922.40        82.63225
922.79        82.89272
923.19        82.71149
923.58        82.21657
923.98        81.65951
924.37        81.32278
924.77        81.30132
925.16        81.47021
925.55        81.71704
925.95        81.82079
926.34        81.73386
926.74        81.51502
927.13        81.19105
927.52        80.72598
927.92          80.208
928.31        79.64796
928.70        79.19359
929.10        79.03886
929.49        79.19833
929.89        79.54084
930.28        80.07893
930.67        80.68813
931.07        81.25272
931.46        81.87849
931.85         82.2672
932.24        82.00885
932.64        81.13398
933.03        79.75842
933.42        78.48991
933.82        78.20952
934.21        79.07721
934.60        80.88975
934.99         83.0076
935.39        84.24802
935.78        84.29881
936.17        83.37794
936.56        82.08044
936.96        81.36066
937.35        81.47601
937.74        82.13787
938.13        82.86237
938.53        82.92257
938.92        82.16877
939.31        80.91946
939.70        79.64989
940.09        79.00282
940.49        79.08884
940.88         79.7348
941.27        80.63182
941.66        81.22137
942.05        81.32104
942.44        81.13024
942.84        80.85942
943.23        80.82345
943.62        81.11843
944.01        81.57365
944.40        82.13961
944.79        82.77731
945.18        83.40173
945.57        84.00217
945.97        84.33718
946.36        84.11942
946.75        83.28966
947.14        82.05385
947.53        80.71755
947.92        79.70074
948.31        79.13709
948.70        78.92559
949.09        79.08627
949.48        79.62914
949.87        80.47566
950.26        81.57996
950.65        82.67223
951.04        83.30936
951.43        83.36285
951.82        82.91935
952.21        82.18473
952.60        81.53324
952.99         81.1348
953.38        80.95704
953.77        80.97049
954.16        81.11918
954.55        81.35457
954.94        81.64135
955.33        82.05825
955.72        82.70399
956.11        83.54753
956.50        84.57169
956.89        85.30817
957.28        85.01839
957.66        83.61658
958.05        81.40997
958.44        79.28475
958.83        78.51262
959.22        79.30624
959.61        81.34009
960.00        83.71551
960.39        84.73618
960.78        83.91589
961.16        81.79959
961.55        79.41906
961.94        78.14709
962.33         78.3225
962.72        79.56865
963.11        81.29419
963.49        82.40768
963.88        82.38596
964.27        81.57334
964.66        80.58539
965.04        80.34002
965.43        80.98166
965.82        82.28919
966.21        83.56302
966.60        83.52208
966.98        81.88096
967.37        79.28262
967.76        76.78962
968.15        75.70514
968.53        76.25964
968.92        78.08473
969.31         80.4882
969.69        82.05421
970.08        82.13718
970.47        81.16965
970.86        79.90006
971.24        79.40042
971.63        79.92701
972.02        81.15883
972.40         82.5709
972.79        82.87082
973.17        81.80586
973.56        79.89545
973.95        77.93821
974.33        76.91418
974.72        77.01263
975.11        77.90273
975.49        79.15359
975.88        79.83088
976.26         79.6772
976.65         78.9407
977.04        77.96413
977.42        77.23086
977.81        76.86903
978.19        76.69282
978.58        76.76247
978.96        77.16605
979.35        77.82808
979.74        78.77405
980.12         79.7833
980.51        80.17001
980.89        79.92486
981.28        79.21988
981.66        78.44298
982.05        78.16812
982.43        78.53358
982.82         79.3142
983.20        80.50951
983.59        81.91825
983.97        83.47124
984.35        85.17118
984.74        86.46553
985.12        86.71566
985.51        85.74982
985.89        83.76705
986.28        81.64657
986.66          80.646
987.04        81.10683
987.43        82.70306
987.81         84.6725
988.20         85.3206
988.58         84.2131
988.96        81.83363
989.35        79.19393
989.73        77.69048
990.12        77.61471
990.50        78.56622
990.88        79.82397
991.27        80.14546
991.65        79.20227
992.03        77.46325
992.42        75.68591
992.80        74.80965
993.18        75.08889
993.56         76.2586
993.95        77.73325
994.33        78.66467
994.71         78.6245
995.10        77.99469
995.48        77.32863
995.86        77.56304
996.24        78.90591
996.63        80.88555
997.01         83.2006
997.39        84.77087
997.77        85.11318
998.15        84.68481
998.54        83.59489
998.92        81.85635
999.30        79.77473
999.68        77.37256
1000.06        75.54281
1000.45        75.52891
1000.83        77.61681
1001.21        81.67994
1001.59        86.50481
1001.97         89.1056
1002.35          88.382
1002.73        85.21982
1003.12        81.53838
1003.50        79.80405
1003.88        80.65802
1004.26        83.26533
1004.64        86.79411
1005.02        89.41785
1005.40        90.23938
1005.78        90.00703
1006.16          88.687
1006.54        86.17651
1006.92        82.90099
1007.30        79.01706
1007.69        75.83601
1008.07        75.11073
1008.45        77.29227
1008.83        82.03325
1009.21        88.10758
1009.59        92.23598
1009.97        92.69441
1010.35          90.283
1010.73        86.03093
1011.11        81.55634
1011.49        77.70233
1011.86        74.26715
1012.24        71.71787
1012.62        70.56853
1013.00        70.79758
1013.38        72.33039
1013.76        74.93186
1014.14         77.6166
1014.52        79.62347
1014.90        80.92523
1015.28        81.19872
1015.66        80.24069
1016.04        78.19188
1016.41        75.09076
1016.79        71.74427
1017.17        69.83972
1017.55        69.88055
1017.93        71.45352
1018.31        73.63201
1018.69        75.01675
1019.06        75.28752
1019.44        74.75501
1019.82        73.78905
1020.20        73.28965
1020.58        73.54315
1020.95        73.93462
1021.33        74.33147
1021.71        74.47626
1022.09        74.34981
1022.46        74.39611
1022.84        74.07141
1023.22        72.45204
1023.60        69.60743
1023.97        65.78853
1024.35        63.06567
1024.73        63.74176
