SpectraSmart Spectrum 2.9.0.0
--------- Device Information -----------
Spectrum Name :  反射率_0
Saving Time :  2024/04/26 21:30:42
Spectro-Module Model Name : SE2030-DUVN
Spectro-Module Serial Number : OS361AC55029948
Wavelength Start : 200
Wavelength End : 1025
Wavelength Unit : Wavelength(nm)
Spectrum Unit : Reflectance(%)
-----------Spectrum Setting ------------
Integration Time : 20ms
Average : 10
Boxcar : 0
Background removal :  enabled
linearity correction :  enabled
SC :  disabled
Intensity correction :  disabled
DWT denoise :  enabled
savitzky-golay :  disabled
FFT :  disabled
Running average :  disabled
Kalman :  disabled
High pass :  disabled
---------------BEGIN--------------------
Wavelength(nm)             Reflectance(%)
200.29               0
200.75        32.23667
201.21        33.32366
201.67        33.96778
202.13        32.48756
202.58        28.49708
203.04        22.40134
203.50        14.84377
203.96        9.158403
204.42        8.220918
204.88        11.71371
205.34        18.71408
205.80        26.19905
206.26        31.88843
206.72        35.72061
207.18        37.23454
207.64        36.25804
208.10        32.91344
208.55        26.60365
209.01        16.98803
209.47         9.92948
209.93        10.22611
210.39         15.0061
210.85        20.14203
211.31        23.94152
211.77        27.42509
212.23        32.82855
212.69        46.20863
213.14        77.23756
213.60        90.78857
214.06        80.01904
214.52        67.70509
214.98        58.91569
215.44        51.32139
215.90         42.7371
216.36        34.70431
216.81        30.11504
217.27        30.18949
217.73        35.45729
218.19        44.41291
218.65          47.338
219.11        41.12096
219.57        32.46447
220.02        27.17159
220.48        28.14615
220.94        35.07319
221.40        48.38296
221.86        68.04568
222.32        82.41919
222.77        79.96169
223.23        68.18465
223.69        55.02041
224.15        44.94846
224.61        38.02234
225.06        32.73972
225.52         29.5135
225.98        28.81178
226.44        30.22333
226.90        33.36053
227.36        37.10878
227.81        39.37585
228.27        39.68993
228.73        38.60223
229.19        37.18204
229.65         36.7281
230.10        37.38471
230.56        38.75082
231.02        40.05839
231.48        40.15435
231.93        38.88095
232.39        36.97534
232.85        35.29033
233.31        34.93655
233.77        35.96945
234.22        37.99916
234.68        40.21072
235.14        41.43842
235.60        41.35611
236.05          40.305
236.51        38.78704
236.97        37.88968
237.43        38.09809
237.88        39.12941
238.34        40.67822
238.80         42.4721
239.26        44.45541
239.71        47.18305
240.17        50.28703
240.63        52.85013
241.08         54.2557
241.54        53.83601
242.00        52.85765
242.46        54.33544
242.91        60.41143
243.37        72.38433
243.83        90.81881
244.28        106.9567
244.74        108.1717
245.20        94.78078
245.66        77.78886
246.11        67.23362
246.57        63.78942
247.03        63.79908
247.48        65.26593
247.94        65.05917
248.40        62.93721
248.85        60.62909
249.31        58.42637
249.77        55.37123
250.22        50.81148
250.68        43.90298
251.14        35.30996
251.59        29.63689
252.05        30.34805
252.51        35.99738
252.96        42.04601
253.42         44.2939
253.88        42.94556
254.33        39.50673
254.79        37.12452
255.25        38.35889
255.70        42.93022
256.16        49.73187
256.62          55.463
257.07        55.35643
257.53        50.82803
257.99        45.00678
258.44        40.59226
258.90        39.86432
259.35        41.75308
259.81        45.14257
260.27        48.30683
260.72        49.11721
261.18        47.77061
261.63         45.1968
262.09          42.819
262.55        41.71347
263.00        41.77282
263.46        42.50864
263.91        43.15862
264.37        43.00124
264.83        41.96868
265.28         40.4446
265.74         38.9732
266.19        37.95194
266.65        37.49998
267.11        37.34275
267.56        37.33192
268.02        37.25028
268.47        37.00863
268.93        36.71754
269.38        36.28528
269.84        35.60807
270.30        34.69044
270.75        33.55397
271.21        32.45459
271.66        31.74225
272.12        31.47586
272.57        31.53144
273.03        31.63457
273.48        31.33187
273.94        30.57596
274.39        29.50852
274.85        28.43163
275.31        27.64338
275.76        27.18549
276.22        26.96536
276.67         26.8258
277.13        26.61769
277.58        26.26007
278.04        25.83687
278.49        25.35829
278.95        24.92924
279.40        24.53347
279.86        24.19529
280.31         23.8436
280.77        23.46834
281.22        23.04144
281.68        22.62019
282.13        22.24099
282.59         22.0152
283.04        21.92263
283.50        21.93617
283.95        21.95905
284.41        21.84847
284.86        21.57699
285.32        21.21637
285.77        20.84543
286.22        20.62025
286.68        20.56848
287.13        20.61561
287.59        20.70488
288.04        20.71336
288.50        20.63038
288.95        20.47609
289.41        20.30784
289.86        20.15612
290.32        20.06064
290.77        19.99759
291.22        19.97129
291.68        19.98006
292.13        20.01784
292.59        20.10381
293.04        20.24952
293.50        20.48649
293.95        20.80724
294.40        21.19969
294.86        21.63275
295.31        22.05263
295.77        22.45119
296.22         22.8362
296.68        23.22942
297.13        23.65681
297.58        24.12822
298.04        24.62725
298.49        25.14756
298.95        25.69407
299.40        26.25011
299.85        26.81432
300.31        27.34635
300.76         27.7795
301.21        28.10593
301.67        28.35326
302.12        28.56281
302.58        28.85014
303.03        29.21111
303.48        29.62882
303.94        30.04151
304.39        30.32838
304.84        30.47969
305.30        30.54378
305.75        30.57033
306.20        30.68297
306.66        30.90987
307.11        31.19568
307.57        31.47663
308.02        31.61789
308.47        31.60231
308.93        31.47673
309.38        31.30655
309.83        31.23215
310.29        31.28053
310.74        31.40535
311.19        31.51504
311.65         31.4587
312.10        31.20521
312.55        30.81223
313.00         30.3975
313.46          30.131
313.91        30.03766
314.36        30.07221
314.82        30.13239
315.27        30.06151
315.72        29.81868
316.18        29.46589
316.63        29.08588
317.08        28.81748
317.53        28.69163
317.99        28.65495
318.44        28.64533
318.89        28.55463
319.35        28.35254
319.80        28.07552
320.25        27.76663
320.70        27.49241
321.16        27.27119
321.61        27.08784
322.06        26.91607
322.51        26.71922
322.97         26.4821
323.42        26.22132
323.87        25.96019
324.32        25.73729
324.78        25.55104
325.23        25.40362
325.68        25.24163
326.13        24.98777
326.59        24.63354
327.04        24.21984
327.49        23.82028
327.94        23.54913
328.39        23.42524
328.85        23.40039
329.30        23.42717
329.75        23.37481
330.20        23.20421
330.66        22.95185
331.11        22.66611
331.56        22.40683
332.01         22.1962
332.46        22.00541
332.92        21.83127
333.37        21.70959
333.82        21.62786
334.27        21.59049
334.72        21.55187
335.17        21.42845
335.63        21.20604
336.08        20.92394
336.53        20.64686
336.98        20.49225
337.43        20.49052
337.88         20.5997
338.34        20.77013
338.79        20.93636
339.24        21.05167
339.69        21.12902
340.14        21.14262
340.59        21.05551
341.05        20.88102
341.50        20.63449
341.95        20.37314
342.40         20.1884
342.85        20.10383
343.30        20.09052
343.75        20.13116
344.20         20.1933
344.66        20.25687
345.11        20.32714
345.56        20.35858
346.01        20.28002
346.46        20.09267
346.91        19.82729
347.36        19.56002
347.81        19.41477
348.26        19.41703
348.72        19.52256
349.17        19.68016
349.62        19.81637
350.07        19.89835
350.52        19.94951
350.97        19.94057
351.42        19.82661
351.87        19.61651
352.32        19.32868
352.77         19.0463
353.22        18.89546
353.67        18.89617
354.13        19.01157
354.58        19.16254
355.03        19.21687
355.48        19.13594
355.93        18.96328
356.38        18.74647
356.83        18.55674
357.28        18.41591
357.73        18.29687
358.18        18.19303
358.63        18.09973
359.08        18.01068
359.53        17.93071
359.98        17.84579
360.43        17.72777
360.88        17.57144
361.33        17.38563
361.78        17.18397
362.23        16.99192
362.68        16.82327
363.13        16.67644
363.58        16.55387
364.03        16.45741
364.48        16.38164
364.93         16.3192
365.38        16.26576
365.83        16.21392
366.28        16.15746
366.73        16.09804
367.18        16.01398
367.63         15.8732
368.08        15.67707
368.53        15.43939
368.98         15.2072
369.43        15.05548
369.88         14.9982
370.33        15.00997
370.78        15.04432
371.23        15.02195
371.68         14.9185
372.13        14.75938
372.58        14.56729
373.03        14.37877
373.48         14.2112
373.93        14.05469
374.38        13.92011
374.83        13.82661
375.28         13.7738
375.72        13.75227
376.17        13.74952
376.62        13.72451
377.07         13.6691
377.52        13.59539
377.97        13.51197
378.42        13.43758
378.87        13.37813
379.32        13.31993
379.77        13.27281
380.22        13.25319
380.67        13.25486
381.11        13.27438
381.56        13.26277
382.01        13.15145
382.46        12.93832
382.91        12.66385
383.36        12.38831
383.81        12.18963
384.26        12.08402
384.71        12.04769
385.15        12.06355
385.60        12.10603
386.05         12.1559
386.50        12.21751
386.95        12.27021
387.40        12.28284
387.85        12.25288
388.29        12.18128
388.74        12.10701
389.19        12.06185
389.64        12.05133
390.09        12.06065
390.54         12.0792
390.98        12.08342
391.43        12.07472
391.88        12.06513
392.33         12.0456
392.78        12.00196
393.23         11.9374
393.67        11.84734
394.12        11.77859
394.57        11.77866
395.02          11.849
395.47        11.96647
395.91        12.07743
396.36        12.08154
396.81        11.96728
397.26        11.77739
397.71        11.56325
398.15        11.40621
398.60        11.34208
399.05        11.29683
399.50        11.27409
399.95        11.36307
400.39        11.51954
400.84        11.54395
401.29        11.43483
401.74        11.36964
402.18        11.35747
402.63        11.28077
403.08        11.17316
403.53        11.14302
403.97        11.20069
404.42        11.31605
404.87        11.43524
405.32        11.46892
405.76        11.39622
406.21        11.25251
406.66        11.09407
407.11        11.00897
407.55        11.02179
408.00        11.10165
408.45        11.20299
408.90         11.2389
409.34        11.18459
409.79        11.07312
410.24        10.95155
410.68        10.88091
411.13        10.87835
411.58        10.92073
412.03        10.97881
412.47        11.00436
412.92        10.97887
413.37        10.92499
413.81        10.86295
414.26        10.82817
414.71        10.82547
415.15        10.84483
415.60        10.87406
416.05        10.90067
416.49        10.91876
416.94        10.93151
417.39        10.93803
417.83        10.93624
418.28        10.92431
418.73        10.89751
419.17        10.86371
419.62        10.83708
420.07        10.82112
420.51        10.81356
420.96        10.79948
421.41         10.7527
421.85        10.66911
422.30         10.5581
422.74        10.44614
423.19        10.41985
423.64        10.46911
424.08        10.51569
424.53        10.53373
424.98        10.56389
425.42        10.60276
425.87        10.58918
426.31         10.5377
426.76        10.55028
427.21        10.60317
427.65        10.54246
428.10        10.40289
428.54        10.34892
428.99        10.39241
429.44        10.47916
429.88        10.56577
430.33         10.5433
430.77        10.43738
431.22        10.45382
431.66         10.5702
432.11        10.56406
432.56        10.43354
433.00        10.32887
433.45        10.25139
433.89        10.13976
434.34        10.08693
434.78        10.00646
435.23        10.40319
435.67        10.52946
436.12        10.50655
436.57        10.39001
437.01        10.23283
437.46        10.13082
437.90        10.10566
438.35        10.09935
438.79         10.0946
439.24        10.09952
439.68        10.10801
440.13        10.12162
440.57        10.13618
441.02         10.1522
441.46        10.16642
441.91        10.14697
442.35        10.10338
442.80        10.15056
443.24        10.24598
443.69        10.21397
444.13        10.07092
444.58         10.0045
445.02        10.02211
445.47        10.02585
445.91         10.0096
446.36        10.01209
446.80        10.02866
447.24        10.04725
447.69        10.06711
448.13        10.08143
448.58        10.09023
449.02        10.09538
449.47        10.09202
449.91        10.06846
450.36        10.02815
450.80        9.973621
451.25        9.925968
451.69         9.91302
452.13        9.938241
452.58          9.9888
453.02         10.0398
453.47        10.05247
453.91        10.01746
454.36        9.950592
454.80        9.863936
455.24        9.775717
455.69        9.700022
456.13        9.626178
456.58        9.575486
457.02        9.563072
457.46        9.592024
457.91        9.654399
458.35        9.715952
458.79        9.721195
459.24        9.670285
459.68        9.576441
460.13        9.483592
460.57        9.431517
461.01        9.438472
461.46        9.478394
461.90        9.544452
462.34        9.614789
462.79        9.673586
463.23        9.730848
463.68        9.759772
464.12        9.724198
464.56        9.623514
465.01        9.486259
465.45        9.343909
465.89        9.264813
466.34        9.258152
466.78        9.304103
467.22        9.376124
467.67        9.416965
468.11        9.414484
468.55        9.381007
468.99        9.339097
469.44         9.32397
469.88        9.344316
470.32        9.385043
470.77        9.430083
471.21        9.458204
471.65         9.46158
472.10        9.451427
472.54         9.43119
472.98        9.410314
473.42        9.392791
473.87        9.377201
474.31        9.363193
474.75        9.360111
475.20         9.37124
475.64        9.393533
476.08        9.418187
476.52        9.424947
476.97        9.411901
477.41        9.388944
477.85        9.378323
478.29        9.402521
478.74        9.473192
479.18        9.600911
479.62        9.747857
480.06        9.838573
480.50        9.860834
480.95        9.830813
481.39        9.767608
481.83        9.796908
482.27        9.782623
482.72        9.827228
483.16        9.884124
483.60        9.911668
484.04        9.886345
484.48        9.954606
484.93        10.14543
485.37        10.03923
485.81        9.940634
486.25        10.42128
486.69          10.048
487.14        10.18793
487.58        11.05663
488.02        10.88861
488.46        10.53442
488.90        10.49361
489.34        10.45691
489.79        10.62509
490.23        10.73315
490.67        10.88785
491.11        11.01966
491.55        11.00268
491.99         10.8957
492.43        10.90792
492.88        11.06139
493.32        11.23083
493.76        11.37935
494.20        11.51327
494.64        11.62398
495.08        11.68719
495.52        11.71925
495.96          11.825
496.41        11.98754
496.85        12.01759
497.29        11.94209
497.73        12.08415
498.17        12.26796
498.61        12.41504
499.05        12.45674
499.49        12.51428
499.93        12.56489
500.37          12.673
500.82        12.81655
501.26         12.9256
501.70        12.99229
502.14          13.063
502.58        13.14959
503.02        13.24399
503.46        13.34687
503.90        13.46146
504.34        13.56651
504.78        13.62596
505.22        13.63527
505.66        13.60728
506.10        13.57502
506.54        13.59169
506.98        13.66883
507.42        13.78825
507.86        13.92388
508.30        14.03162
508.74        14.09683
509.18        14.13402
509.62        14.14957
510.06        14.15448
510.50        14.15639
510.94        14.15048
511.38        14.15043
511.82        14.17958
512.26         14.2401
512.70        14.32583
513.14        14.41377
513.58         14.4646
514.02        14.46888
514.46        14.43816
514.90        14.39192
515.34        14.36282
515.78        14.36121
516.22        14.37789
516.66        14.40433
517.10        14.42636
517.54        14.43937
517.98        14.44967
518.42        14.45916
518.86        14.46942
519.30        14.48088
519.74        14.48989
520.18        14.49732
520.62        14.50637
521.06        14.51609
521.50        14.52465
521.93        14.52719
522.37        14.51001
522.81        14.47351
523.25        14.42211
523.69        14.36314
524.13        14.30739
524.57        14.25822
525.01        14.21315
525.45        14.17052
525.89        14.12746
526.32        14.08131
526.76        14.03631
527.20        13.99104
527.64         13.9439
528.08        13.89499
528.52        13.84499
528.96        13.79462
529.40        13.74547
529.83        13.69765
530.27         13.6503
530.71        13.60476
531.15         13.5642
531.59        13.52955
532.03        13.50115
532.46        13.47068
532.90        13.43468
533.34        13.39057
533.78        13.33262
534.22        13.27329
534.66        13.24795
535.09        13.24966
535.53        13.24114
535.97        13.21279
536.41        13.18456
536.85        13.15571
537.28        13.11081
537.72        13.06725
538.16        13.06238
538.60        13.10099
539.04        13.17053
539.47        13.24662
539.91        13.30028
540.35        13.32233
540.79        13.32513
541.22         13.3248
541.66        13.35156
542.10        13.41204
542.54        13.49752
542.97        13.59835
543.41        13.70475
543.85        13.81103
544.29        13.92257
544.72          14.037
545.16        14.16119
545.60        14.29297
546.04        14.42932
546.47        14.57355
546.91        14.72836
547.35        14.88914
547.79         15.0538
548.22        15.20806
548.66        15.32787
549.10        15.42966
549.53        15.51406
549.97        15.59926
550.41        15.67822
550.84         15.7729
551.28        15.91926
551.72        16.08923
552.15        16.25019
552.59        16.41278
553.03        16.34581
553.46        16.55141
553.90        16.61811
554.34        16.69489
554.77        16.77638
555.21        16.86917
555.65        16.96927
556.08        17.06796
556.52        17.15856
556.96        17.23311
557.39        17.32622
557.83        17.42384
558.27        17.42653
558.70        17.36209
559.14        17.38031
559.57         17.4788
560.01        17.56508
560.45        17.62397
560.88        17.68687
561.32        17.75988
561.75        17.81783
562.19        17.87124
562.63        17.93284
563.06        18.00203
563.50        18.07567
563.93        18.14024
564.37         18.2218
564.80        18.32566
565.24        18.40119
565.68        18.40518
566.11        18.67054
566.55        18.52862
566.98        18.54597
567.42        18.57062
567.85        18.65504
568.29        18.81376
568.72         19.0397
569.16        19.31964
569.60        19.54509
570.03        19.77545
570.47        19.96038
570.90        20.11303
571.34        20.27419
571.77        20.40565
572.21        20.55049
572.64        20.67398
573.08          20.783
573.51        20.91687
573.95        21.02444
574.38        21.11081
574.82        21.44472
575.25        21.29576
575.69        21.35062
576.12        21.38035
576.56        21.50637
576.99        21.76999
577.42        21.44849
577.86        21.53609
578.29         21.7151
578.73        21.61666
579.16         21.5632
579.60        21.35012
580.03        21.35696
580.47        21.29912
580.90        21.36511
581.33        21.33276
581.77        21.39193
582.20        20.98518
582.64        21.07667
583.07        20.84723
583.51        20.75734
583.94        20.66239
584.37        20.58485
584.81        20.51419
585.24        20.34372
585.68        20.17912
586.11        19.96919
586.54        20.15038
586.98        20.06034
587.41        19.86416
587.85        19.68682
588.28        19.55895
588.71        19.71596
589.15        19.49583
589.58        19.40022
590.01        19.58273
590.45        19.38853
590.88        19.39127
591.31        19.30372
591.75        19.32112
592.18        19.27957
592.61        19.16764
593.05        19.56854
593.48        19.74253
593.91        19.58803
594.35        19.75163
594.78        19.70269
595.21        19.75676
595.65        19.93332
596.08         20.2645
596.51        20.43676
596.94        20.37928
597.38        20.48908
597.81         20.7468
598.24        20.95264
598.68        21.13344
599.11        21.37069
599.54        21.55431
599.97        21.85098
600.41        22.29353
600.84        22.47956
601.27        22.85535
601.70        23.11514
602.14        23.39152
602.57        23.81866
603.00        24.41063
603.43        24.55916
603.87        25.20737
604.30        25.56581
604.73        25.95247
605.16        26.24397
605.60        26.47157
606.03        26.77745
606.46        27.17901
606.89        27.37177
607.32        28.31391
607.76        28.54152
608.19         29.0239
608.62        29.33502
609.05         29.7415
609.48        30.02849
609.92        30.62354
610.35        30.84767
610.78        31.03639
611.21        31.47567
611.64        31.75854
612.07        32.18783
612.50        32.43258
612.94        32.75623
613.37        33.10047
613.80        33.26685
614.23        33.33202
614.66        33.65099
615.09        34.20427
615.52        34.61777
615.96        34.84662
616.39        35.13779
616.82        35.49998
617.25         35.6358
617.68         35.7941
618.11        36.06195
618.54        36.47382
618.97        36.77771
619.40        36.95291
619.84        37.14182
620.27         37.2281
620.70        37.35765
621.13        37.49611
621.56        37.36271
621.99        37.27934
622.42        37.38844
622.85        37.71591
623.28        37.89993
623.71        37.93001
624.14        37.84745
624.57        38.15723
625.00        37.94137
625.43        37.99589
625.86        37.92864
626.29        37.97401
626.72         37.5009
627.15        37.60861
627.58        37.37598
628.01        37.08426
628.44        36.93174
628.87        36.58371
629.30         36.2226
629.73         35.7504
630.16        35.72543
630.59        35.33591
631.02        35.21389
631.45        35.06282
631.88        34.80613
632.31        34.41328
632.74        33.91713
633.17        33.37285
633.60         32.8504
634.03        32.37926
634.46        31.94116
634.89        31.51173
635.32        31.05721
635.75        30.57261
636.18        30.04522
636.61        29.51673
637.04        29.06363
637.47        28.69495
637.89        28.37981
638.32        28.07371
638.75         27.7362
639.18        27.35803
639.61         26.9592
640.04        26.56844
640.47        26.22514
640.90        25.94005
641.33        25.70287
641.76        25.50193
642.18        25.32289
642.61        25.15477
643.04        25.00702
643.47        24.89064
643.90        24.82074
644.33        24.79875
644.76        24.81915
645.18        24.86375
645.61        24.89874
646.04        24.92203
646.47        24.94647
646.90        25.00336
647.33        25.13742
647.75        25.35117
648.18        25.65797
648.61        26.04168
649.04        26.38525
649.47        26.65858
649.89         27.2693
650.32        27.50558
650.75        28.01176
651.18        28.55537
651.61        28.99458
652.03         29.3695
652.46        29.97769
652.89        30.78261
653.32        31.30446
653.74        31.59174
654.17        32.11011
654.60        32.77587
655.03        33.18316
655.46        33.29541
655.88        33.83967
656.31        35.66637
656.74        36.44366
657.16        39.13027
657.59        41.94498
658.02        38.58241
658.45        38.79062
658.87        38.36197
659.30        38.50709
659.73        39.18019
660.15        39.72103
660.58         39.6306
661.01        39.89826
661.44        40.39546
661.86        40.74361
662.29        40.92342
662.72        41.60908
663.14        41.98125
663.57        42.38457
664.00        42.61909
664.42        42.98314
664.85        43.49818
665.27        44.02118
665.70        44.45901
666.13        44.76365
666.55        44.92212
666.98        44.90961
667.41        44.80848
667.83        45.04081
668.26        45.17439
668.69        45.55037
669.11        45.97121
669.54        46.33021
669.96        46.59568
670.39        46.82513
670.82        47.04264
671.24        47.21073
671.67        47.36892
672.09        47.60056
672.52        47.89236
672.94        48.15213
673.37        48.34012
673.80        48.38118
674.22        48.32834
674.65        48.35279
675.07        48.49263
675.50        48.63607
675.92        48.77709
676.35        48.94403
676.77        49.13087
677.20        49.32647
677.62        49.52197
678.05        49.69571
678.47        49.82975
678.90        49.96113
679.32        50.10238
679.75        50.17531
680.17        50.15963
680.60        50.48987
681.02        50.48355
681.45        50.60025
681.87        50.69018
682.30        50.95746
682.72        51.34801
683.15        51.60203
683.57        51.69162
684.00        51.66176
684.42        51.61266
684.85        51.72136
685.27        52.00785
685.70          52.396
686.12        52.75913
686.54        52.94954
686.97        52.93363
687.39        52.72714
687.82         52.4403
688.24        52.38889
688.66        52.57903
689.09        52.66832
689.51        52.66067
689.94        52.85462
690.36        53.19593
690.78        53.31506
691.21        53.25474
691.63        53.34378
692.06        53.59893
692.48        53.85692
692.90        54.05128
693.33        54.13367
693.75        54.08366
694.17        53.94399
694.60        53.81641
695.02         53.7552
695.44        53.82538
695.87        54.24725
696.29        54.82975
696.71        54.92085
697.14        54.59249
697.56        54.37778
697.98        54.30957
698.41          54.873
698.83        54.55849
699.25        54.85992
699.68        55.22844
700.10        55.44532
700.52        55.44133
700.94         55.3198
701.37        55.18876
701.79        55.18531
702.21        55.34511
702.64        55.60317
703.06         55.8977
703.48        56.11705
703.90        56.22663
704.33        56.26778
704.75        56.26598
705.17        56.25236
705.59        56.24842
706.01        56.24028
706.44        56.26002
706.86        56.36772
707.28        56.55502
707.70        56.83302
708.12        57.13932
708.55        57.29336
708.97        57.30543
709.39        57.35744
709.81         57.4582
710.23        57.49062
710.66        57.45848
711.08        57.45613
711.50        57.47025
711.92        57.45447
712.34        57.41415
712.76        57.37755
713.19        57.35492
713.61        57.39124
714.03        57.48328
714.45        57.62052
714.87        57.79962
715.29        58.02117
715.71        58.27028
716.13        58.52356
716.56        58.73849
716.98        58.92608
717.40        59.04269
717.82        59.09554
718.24        59.05804
718.66        58.89021
719.08        58.61739
719.50         58.2864
719.92         57.9974
720.34        57.89695
720.76        58.01429
721.19        58.28337
721.61        58.66725
722.03        59.05281
722.45        59.37887
722.87        59.65831
723.29        59.83249
723.71        59.81633
724.13        59.61302
724.55        59.25455
724.97        58.86129
725.39        58.63778
725.81        58.63964
726.23        58.80452
726.65        59.05147
727.07        59.34051
727.49        59.46042
727.91        59.58355
728.33        59.68481
728.75        59.80986
729.17        59.96479
729.59        60.11335
730.01        60.24358
730.43        60.34612
730.85        60.41257
731.27        60.44853
731.69        60.43937
732.10        60.36535
732.52        60.24061
732.94         60.0598
733.36        59.87494
733.78        59.77102
734.20        59.78718
734.62        59.69623
735.04        60.26849
735.46        59.92775
735.88        60.48569
736.30         60.5747
736.72        60.72187
737.13        60.98899
737.55        61.27379
737.97        61.61736
738.39        61.86033
738.81        61.40814
739.23        60.51805
739.65        60.49658
740.06        61.23177
740.48         61.5164
740.90        61.29198
741.32        61.21986
741.74        61.47324
742.16        61.61102
742.57        61.66234
742.99        61.70089
743.41        61.71837
743.83        61.68074
744.25        61.59293
744.67        61.45436
745.08        61.33105
745.50         61.3146
745.92        61.42484
746.34        61.62233
746.75        61.83913
747.17        61.93062
747.59        61.86996
748.01        61.76929
748.42        61.66238
748.84         61.4681
749.26        61.28969
749.68        61.38697
750.09        61.70301
750.51        61.96432
750.93        62.04818
751.35        61.89936
751.76        61.59716
752.18         61.2137
752.60        61.21273
753.01        61.07309
753.43        60.92875
753.85        60.89309
754.27        60.97245
754.68        61.18987
755.10         61.4973
755.52        61.68248
755.93        61.66911
756.35        62.02771
756.77        61.86154
757.18        62.02862
757.60        62.23635
758.02        62.76022
758.43        63.34702
758.85        62.86492
759.26        62.31493
759.68        61.85602
760.10        61.74805
760.51        62.65405
760.93        62.42101
761.34         62.4913
761.76        62.50928
762.18        62.53102
762.59        62.68365
763.01        62.74411
763.42        62.76883
763.84        62.94315
764.26        63.20243
764.67        62.98964
765.09        62.50453
765.50        62.52438
765.92        62.99047
766.33        63.09307
766.75        62.73333
767.16        62.50996
767.58        62.46211
768.00        62.22676
768.41        62.01977
768.83        62.39638
769.24        63.56597
769.66        63.82645
770.07        63.32114
770.49        62.72892
770.90        62.35094
771.32         62.7104
771.73        63.61062
772.15          63.914
772.56        63.55088
772.97        63.19583
773.39        63.01631
773.80        63.01781
774.22        63.18621
774.63        63.40348
775.05        63.55198
775.46        63.67806
775.88        63.72309
776.29        63.63414
776.70        63.48436
777.12        63.47547
777.53        63.64721
777.95        63.88958
778.36         64.1368
778.77        64.24819
779.19        64.20984
779.60        64.10041
780.02        63.93047
780.43        63.81042
780.84        63.80163
781.26         63.5382
781.67        63.19576
782.09        63.82795
782.50        65.06907
782.91         65.0526
783.33        63.92677
783.74        63.50976
784.15        63.88103
784.57        64.16788
784.98        64.26139
785.39        64.00154
785.81        63.59346
786.22        64.01373
786.63         65.0467
787.04         65.4722
787.46        65.22952
787.87        64.84696
788.28        64.47432
788.70        64.72795
789.11        64.54142
789.52        64.82742
789.93        65.13989
790.35        65.29636
790.76        65.23811
791.17        65.01389
791.58        64.77388
792.00        64.62466
792.41        64.61287
792.82        64.96335
793.23        65.46014
793.65        65.13735
794.06        64.28992
794.47         64.4221
794.88        65.32163
795.29        66.04014
795.71        65.31167
796.12        65.16463
796.53        65.30953
796.94        65.01896
797.35        64.47582
797.76        64.74963
798.18        65.67783
798.59        66.10146
799.00        65.89386
799.41        65.66592
799.82        65.53495
800.23        65.43173
800.64        65.39994
801.06        65.42182
801.47        65.48625
801.88         65.4983
802.29        65.42711
802.70        65.28329
803.11        65.12083
803.52        65.02944
803.93        65.06072
804.34        65.21121
804.75        65.39411
805.17        65.60051
805.58        65.86407
805.99        65.71769
806.40        65.36192
806.81        66.21568
807.22        67.81167
807.63          67.607
808.04        65.83891
808.45        65.07216
808.86        65.48738
809.27        65.65748
809.68        65.46012
810.09        65.40816
810.50        65.48668
810.91        65.52324
811.32        65.58993
811.73        65.84266
812.14        66.24123
812.55        66.68653
812.96        67.03683
813.37        66.95362
813.78        66.49709
814.19        66.18482
814.60        66.04836
815.01        65.74036
815.42        65.28668
815.83        64.93412
816.24        64.75771
816.65        64.75248
817.05        64.93766
817.46        65.27604
817.87        65.68179
818.28        65.97575
818.69        66.11766
819.10        66.13871
819.51        66.07892
819.92         66.0854
820.33        66.20547
820.74        66.22353
821.14        66.16901
821.55        66.48461
821.96        66.98627
822.37        66.77866
822.78         65.9835
823.19        65.63592
823.60        65.83492
824.00        66.02363
824.41        66.07822
824.82        66.16775
825.23        66.25742
825.64        66.30617
826.04        66.32652
826.45        66.29745
826.86        66.24088
827.27        66.18523
827.68        66.13725
828.08        66.13023
828.49        66.12577
828.90        66.12081
829.31        66.18381
829.72        66.42692
830.12        66.86962
830.53        67.41752
830.94        67.86738
831.35        67.83052
831.75        67.25439
832.16        66.26225
832.57        65.18669
832.97        64.53199
833.38        64.43836
833.79        64.74519
834.20        65.29053
834.60        65.80554
835.01        66.18826
835.42         66.5537
835.82        66.86252
836.23        66.96786
836.64        66.88368
837.04         66.5864
837.45        66.29773
837.86        66.46279
838.26        67.17577
838.67        68.27818
839.08        69.36497
839.48        69.65981
839.89        68.97923
840.29        67.62182
840.70        66.19169
841.11        65.37748
841.51        65.35845
841.92        65.90414
842.33        66.78403
842.73        67.58216
843.14         68.0168
843.54        68.25124
843.95        68.33837
844.35        68.41954
844.76        68.52119
845.17        68.57268
845.57        68.53899
845.98        68.36198
846.38         68.0659
846.79        67.69053
847.19        67.33124
847.60        67.10078
848.00        67.03864
848.41        67.08987
848.81         67.2084
849.22        67.23308
849.62        67.15936
850.03         67.0178
850.43        66.86429
850.84        66.72485
851.24        66.66441
851.65         66.6115
852.05         66.6703
852.46        66.92429
852.86        67.36117
853.27        67.88889
853.67        68.31103
854.07        68.55448
854.48        68.52922
854.88         68.1284
855.29        67.44302
855.69        66.95226
856.10        66.71341
856.50        66.62413
856.90        66.59988
857.31         66.5664
857.71        66.53294
858.12        66.46351
858.52        66.42458
858.92        66.40882
859.33        66.39375
859.73         66.4074
860.13         66.3649
860.54         66.1565
860.94        65.81918
861.34        65.39432
861.75        64.99964
862.15        64.86436
862.55        65.02031
862.96        65.35815
863.36        65.82915
863.76        66.26246
864.17        66.56035
864.57        66.78223
864.97        66.82351
865.38        66.53895
865.78          65.964
866.18        65.14561
866.58        64.31606
866.99        63.89632
867.39        64.02673
867.79        64.58095
868.19        65.34793
868.60        65.96979
869.00        66.36084
869.40         66.5851
869.80        66.67595
870.21        66.70177
870.61        66.75288
871.01        66.74606
871.41        66.64658
871.81        66.42239
872.22        66.07201
872.62         65.6162
873.02        65.18663
873.42        64.98325
873.82        65.05311
874.22        65.34969
874.63         65.6657
875.03        65.68796
875.43        65.33883
875.83        64.71051
876.23        64.05407
876.63        63.76091
877.03        63.91753
877.44        64.38433
877.84        64.92503
878.24        65.15365
878.64        64.92695
879.04        64.24367
879.44        63.44697
879.84        63.16376
880.24        63.48029
880.64        64.15742
881.04        64.83657
881.44        64.96058
881.84        64.40639
882.24        63.39303
882.65        62.30527
883.05        61.72417
883.45         61.8138
883.85        62.40333
884.25        63.25647
884.65        63.96738
885.05        64.37714
885.45        64.58414
885.85        64.68907
886.25        64.85206
886.65        65.11187
887.05        65.38673
887.45        65.58025
887.85        65.55991
888.25        65.30267
888.65        64.88166
889.04        64.41017
889.44        64.07475
889.84         63.9133
890.24        63.87971
890.64        63.90662
891.04        63.88145
891.44        63.76964
891.84        63.61377
892.24         63.4457
892.64        63.30167
893.04        63.20645
893.44        63.16601
893.83        63.19265
894.23          63.259
894.63        63.37656
895.03        63.52133
895.43        63.74071
895.83        64.11469
896.23        64.61768
896.63        65.18888
897.02        65.63278
897.42        65.67406
897.82         65.2708
898.22        64.55048
898.62        63.72459
899.01        63.10072
899.41        62.78979
899.81        62.70468
900.21        62.78874
900.61        62.94149
901.00        63.10396
901.40        63.29118
901.80        63.46495
902.20        63.55066
902.59        63.54887
902.99        63.48061
903.39        63.35738
903.79        63.20983
904.18        63.05754
904.58        62.89072
904.98        62.84099
905.38        63.11521
905.77        63.72436
906.17        64.62078
906.57        65.49454
906.96        65.82793
907.36         65.4943
907.76        64.65224
908.15        63.73378
908.55        63.41375
908.95        63.85485
909.34        64.86262
909.74        65.98006
910.14        66.52913
910.53        66.29604
910.93        65.53107
911.33        64.53501
911.72        63.75193
912.12         63.3889
912.52        63.31131
912.91        63.40063
913.31         63.5058
913.70         63.5723
914.10         63.6192
914.49        63.77835
914.89        64.16909
915.29        64.80719
915.68        65.62759
916.08        66.30163
916.47        66.37724
916.87        65.79465
917.26        64.69458
917.66         63.5541
918.05        62.94156
918.45        62.98563
918.84        63.57613
919.24        64.33118
919.64        64.69904
920.03        64.53271
920.42        63.97641
920.82        63.40202
921.21        63.33057
921.61        63.85448
922.00        64.81432
922.40        65.83289
922.79        66.39318
923.19        66.30005
923.58        65.76801
923.98        65.05716
924.37        64.47735
924.77        64.15401
925.16        63.95619
925.55        63.89358
925.95        63.96951
926.34        64.16796
926.74        64.48062
927.13        64.75847
927.52        64.68441
927.92        64.25562
928.31        63.55058
928.70        62.81606
929.10        62.41111
929.49        62.40879
929.89        62.66183
930.28        63.11426
930.67        63.55246
931.07         63.8591
931.46        64.16963
931.85        64.35211
932.24        64.23467
932.64        63.86389
933.03        63.26227
933.42         62.7619
933.82         62.8501
934.21        63.60108
934.60        64.89688
934.99        66.35556
935.39        67.27187
935.78        67.46076
936.17        67.02109
936.56         66.2588
936.96        65.66894
937.35        65.39674
937.74        65.30345
938.13        65.19514
938.53        64.79373
938.92        64.07364
939.31        63.21849
939.70        62.42037
940.09        61.91063
940.49        61.71307
940.88        61.74839
941.27        61.99773
941.66        62.41473
942.05        62.93714
942.44        63.58751
942.84        64.16894
943.23        64.36475
943.62        64.13724
944.01         63.5298
944.40        62.89263
944.79        62.82991
945.18        63.45742
945.57        64.59498
945.97        65.73572
946.36        66.10335
946.75        65.46484
947.14         64.1379
947.53        62.61385
947.92        61.58312
948.31        61.23458
948.70        61.38096
949.09        61.81482
949.48        62.18361
949.87         62.3497
950.26        62.40689
950.65        62.46906
951.04         62.7114
951.43        63.15371
951.82        63.69208
952.21        64.12268
952.60        64.15204
952.99        63.75562
953.38        63.08462
953.77         62.3933
954.16        62.07141
954.55        62.21213
954.94        62.66697
955.33        63.32449
955.72        63.97349
956.11        64.48654
956.50         64.9246
956.89        65.10043
957.28        64.71787
957.66        63.77749
958.05        62.43887
958.44        61.12176
958.83        60.43311
959.22        60.47908
959.61        61.09989
960.00        61.96968
960.39        62.45872
960.78         62.3481
961.16         61.8181
961.55        61.14214
961.94        60.64573
962.33        60.44889
962.72        60.48753
963.11        60.67668
963.49        60.90513
963.88        61.04829
964.27        61.11222
964.66        61.30277
965.04         61.9655
965.43        63.07748
965.82         64.5832
966.21        65.88359
966.60        65.85779
966.98        64.28124
967.37        61.69256
967.76        59.08845
968.15        57.70164
968.53         57.7543
968.92        58.94007
969.31        60.69271
969.69        61.83627
970.08        61.86155
970.47         61.1409
970.86        60.28097
971.24        60.15909
971.63        60.96596
972.02        62.39722
972.40        63.97954
972.79        64.57601
973.17        63.91504
973.56        62.44546
973.95        60.77843
974.33        59.65089
974.72        59.24524
975.11        59.31554
975.49        59.72144
975.88        60.14658
976.26        60.47638
976.65        60.75526
977.04        60.94923
977.42        60.95743
977.81        60.74367
978.19        60.30812
978.58        59.84011
978.96        59.62867
979.35        59.73009
979.74        60.09774
980.12        60.66691
980.51        61.07701
980.89        61.33514
981.28        61.50318
981.66        61.67396
982.05         61.9646
982.43        62.41809
982.82        62.92731
983.20        63.60199
983.59        64.54121
983.97        65.77211
984.35        67.22118
984.74        68.37768
985.12        68.64001
985.51        67.84341
985.89        66.24273
986.28        64.53069
986.66        63.66269
987.04         63.9227
987.43         65.0233
987.81        66.51064
988.20        67.35717
988.58        67.21915
988.96        66.33376
989.35        65.10106
989.73        64.07987
990.12        63.41987
990.50        62.99824
990.88        62.59153
991.27        61.88537
991.65        60.86879
992.03        59.72414
992.42        58.86662
992.80         58.8001
993.18        59.60859
993.56        61.14553
993.95        62.83503
994.33        63.76046
994.71        63.50428
995.10        62.42345
995.48        61.09283
995.86        60.46598
996.24        60.76966
996.63        61.59948
997.01        62.79418
997.39        63.66805
997.77        63.90204
998.15        63.82602
998.54        63.37228
998.92        62.30416
999.30        60.78392
999.68        58.87278
1000.06        57.31696
1000.45        57.16528
1000.83        58.68502
1001.21        61.76088
1001.59        65.45856
1001.97        67.48337
1002.35        67.00111
1002.73        64.70173
1003.12        62.12138
1003.50        61.22721
1003.88        62.53654
1004.26        65.38619
1004.64        69.00012
1005.02        71.65639
1005.40        72.52436
1005.78        72.26022
1006.16        70.96362
1006.54         68.7871
1006.92        66.13684
1007.30        63.05144
1007.69        60.60093
1008.07        60.16165
1008.45        62.12484
1008.83        66.33092
1009.21        71.62598
1009.59        74.98534
1009.97         74.9073
1010.35        72.05283
1010.73        67.87483
1011.11        64.56799
1011.49        62.78527
1011.86        61.99784
1012.24        61.65284
1012.62        60.93092
1013.00        59.60838
1013.38        57.87957
1013.76        56.36959
1014.14        56.40403
1014.52        58.38017
1014.90        61.70827
1015.28        64.95395
1015.66        66.28721
1016.04         65.4012
1016.41        62.78423
1016.79        59.44902
1017.17        57.40484
1017.55        57.27486
1017.93        58.38549
1018.31        59.86339
1018.69        60.44449
1019.06        59.78257
1019.44        58.29215
1019.82        56.22374
1020.20        54.28528
1020.58        53.02495
1020.95        52.22263
1021.33         52.0279
1021.71        52.52704
1022.09        53.69114
1022.46        55.72427
1022.84        58.18058
1023.22        59.70644
1023.60        59.67755
1023.97        58.21064
1024.35         56.7007
1024.73         56.7678
