SpectraSmart Spectrum 2.9.0.0
--------- Device Information -----------
Spectrum Name :  反射率_0
Saving Time :  2024/04/26 21:30:59
Spectro-Module Model Name : SE2030-DUVN
Spectro-Module Serial Number : OS361AC55029948
Wavelength Start : 200
Wavelength End : 1025
Wavelength Unit : Wavelength(nm)
Spectrum Unit : Reflectance(%)
-----------Spectrum Setting ------------
Integration Time : 20ms
Average : 10
Boxcar : 0
Background removal :  enabled
linearity correction :  enabled
SC :  disabled
Intensity correction :  disabled
DWT denoise :  enabled
savitzky-golay :  disabled
FFT :  disabled
Running average :  disabled
Kalman :  disabled
High pass :  disabled
---------------BEGIN--------------------
Wavelength(nm)             Reflectance(%)
200.29               0
200.75        12.42372
201.21        17.39728
201.67        22.46364
202.13        26.17557
202.58        28.60043
203.04        31.00479
203.50        33.63025
203.96        36.10068
204.42        37.93207
204.88        38.30083
205.34        38.00767
205.80        39.22792
206.26        41.97985
206.72        45.12801
207.18        47.06196
207.64        46.20903
208.10        42.34248
208.55        35.36664
209.01        25.10457
209.47        18.10457
209.93        19.18594
210.39        24.57358
210.85        29.85912
211.31        33.27337
211.77        35.57596
212.23        38.19772
212.69        43.43503
213.14        55.53951
213.60        59.14202
214.06        53.36513
214.52        47.52227
214.98        42.98111
215.44        38.55808
215.90        33.67263
216.36        28.69671
216.81        24.23097
217.27        20.73964
217.73         17.6637
218.19        15.49434
218.65        16.32989
219.11        20.06537
219.57        24.45918
220.02        28.28291
220.48        32.34612
220.94        37.64043
221.40        45.23875
221.86        55.48877
222.32        63.30186
222.77        62.85891
223.23        57.37809
223.69        50.74586
224.15        45.29585
224.61        41.17059
225.06        37.75678
225.52        35.42198
225.98        34.34084
226.44        34.35287
226.90        35.34766
227.36        36.73939
227.81        37.49769
228.27           37.45
228.73        36.72807
229.19        36.14698
229.65        36.70498
230.10        38.42145
230.56        41.02618
231.02        43.34138
231.48        43.53342
231.93        41.44058
232.39        38.09056
232.85         35.0603
233.31         34.3989
233.77        36.22572
234.22        39.83592
234.68         43.7762
235.14        45.83054
235.60        45.36159
236.05          42.926
236.51        39.53239
236.97        37.41275
237.43        37.51704
237.88        39.28509
238.34        41.77975
238.80        43.60936
239.26         44.2827
239.71        44.46609
240.17        44.12535
240.63         43.7638
241.08        43.93201
241.54         44.0913
242.00        45.10791
242.46        48.89188
242.91        57.14317
243.37        71.71484
243.83        93.54871
244.28        113.7556
244.74        118.1067
245.20        105.1428
245.66        86.10358
246.11        72.14079
246.57        64.35136
247.03        59.22009
247.48        55.76844
247.94        53.12479
248.40        51.31494
248.85        50.73796
249.31        50.30154
249.77        48.25223
250.22        43.98427
250.68        36.85329
251.14        27.87106
251.59        22.61414
252.05        24.68472
252.51        31.88697
252.96        38.87093
253.42        40.72201
253.88        38.13158
254.33        33.48322
254.79        30.25683
255.25        31.35039
255.70        36.48444
256.16         44.1216
256.62        51.38282
257.07        53.75252
257.53        51.81739
257.99        48.22952
258.44        44.96206
258.90        43.84888
259.35        44.21799
259.81        45.44861
260.27        46.66154
260.72         46.8701
261.18        46.18806
261.63        44.89015
262.09        43.70509
262.55        42.99397
263.00        42.68427
263.46        42.69654
263.91        42.55679
264.37        41.90624
264.83        40.74774
265.28        39.27258
265.74        38.01867
266.19        37.41341
266.65        37.52785
267.11        38.09197
267.56        38.73531
268.02        38.86078
268.47        38.33192
268.93        37.39387
269.38        36.27536
269.84        35.37587
270.30        34.79759
270.75        34.38208
271.21        34.13589
271.66        34.02987
272.12          34.015
272.57        34.08891
273.03         34.0629
273.48        33.61459
273.94        32.75978
274.39        31.59291
274.85        30.43752
275.31        29.62818
275.76        29.20235
276.22        29.06512
276.67        29.02701
277.13         28.8869
277.58        28.54769
278.04        28.11179
278.49        27.58832
278.95        27.08975
279.40         26.6079
279.86        26.17186
280.31         25.7354
280.77        25.33115
281.22        24.92982
281.68        24.57588
282.13        24.27067
282.59        24.08306
283.04        23.98157
283.50        23.95317
283.95        23.91963
284.41        23.77152
284.86        23.48953
285.32        23.13603
285.77        22.77151
286.22        22.53116
286.68        22.43794
287.13        22.42202
287.59        22.44555
288.04        22.40969
288.50        22.31088
288.95        22.16348
289.41         21.9989
289.86        21.80697
290.32         21.6238
290.77        21.43328
291.22        21.28441
291.68        21.24069
292.13        21.30232
292.59        21.46848
293.04        21.68384
293.50         21.8766
293.95        22.02098
294.40        22.13842
294.86        22.28131
295.31        22.52621
295.77         22.8918
296.22        23.34382
296.68        23.82199
297.13        24.22279
297.58        24.52908
298.04        24.77172
298.49        25.01257
298.95        25.36446
299.40        25.83658
299.85         26.3833
300.31        26.92587
300.76        27.33949
301.21        27.59906
301.67        27.76245
302.12        27.86441
302.58        28.00757
303.03         28.1963
303.48        28.41092
303.94        28.64638
304.39        28.87105
304.84        29.07912
305.30        29.28903
305.75        29.45699
306.20        29.56038
306.66         29.6061
307.11        29.59359
307.57        29.56249
308.02        29.53703
308.47        29.53461
308.93        29.54997
309.38        29.56931
309.83        29.61137
310.29        29.67019
310.74        29.73435
311.19        29.76489
311.65        29.69388
312.10        29.50942
312.55        29.23742
313.00         28.9405
313.46        28.71094
313.91        28.56064
314.36        28.47225
314.82        28.40272
315.27        28.28951
315.72        28.11244
316.18        27.89868
316.63        27.67107
317.08        27.47647
317.53        27.32318
317.99        27.18852
318.44        27.05143
318.89        26.87061
319.35        26.63915
319.80        26.37508
320.25        26.10251
320.70        25.85807
321.16        25.65116
321.61        25.47829
322.06        25.32575
322.51        25.17389
322.97         25.0096
323.42         24.8379
323.87        24.66502
324.32        24.50591
324.78        24.35232
325.23         24.2113
325.68        24.04197
326.13        23.78834
326.59        23.45031
327.04        23.06572
327.49        22.70008
327.94        22.45412
328.39        22.34535
328.85        22.33162
329.30         22.3788
329.75        22.37994
330.20         22.2976
330.66        22.15539
331.11        21.97842
331.56        21.79222
332.01        21.61092
332.46        21.41861
332.92        21.22321
333.37        21.08005
333.82        20.98845
334.27        20.94755
334.72        20.92622
335.17        20.86387
335.63         20.7455
336.08        20.60089
336.53         20.4595
336.98        20.38057
337.43        20.37625
337.88        20.41425
338.34        20.47356
338.79        20.54098
339.24        20.59196
339.69        20.63596
340.14        20.62705
340.59        20.49353
341.05        20.24371
341.50        19.90519
341.95        19.58014
342.40        19.42356
342.85        19.46819
343.30        19.66923
343.75        19.93327
344.20        20.10448
344.66        20.13562
345.11        20.06071
345.56        19.93889
346.01        19.86814
346.46        19.87639
346.91        19.93346
347.36        19.98763
347.81        19.96436
348.26        19.85249
348.72        19.68467
349.17        19.52442
349.62        19.47804
350.07        19.56349
350.52        19.74217
350.97        19.92934
351.42        19.99057
351.87        19.89369
352.32        19.68299
352.77        19.43331
353.22        19.25421
353.67          19.174
354.13        19.16343
354.58        19.17634
355.03        19.14269
355.48        19.04666
355.93        18.91957
356.38         18.8038
356.83        18.75774
357.28        18.79078
357.73        18.87483
358.18        18.97083
358.63        19.01952
359.08        18.99935
359.53        18.92402
359.98        18.81159
360.43        18.68963
360.88        18.56611
361.33        18.43237
361.78         18.2818
362.23         18.1064
362.68        17.91135
363.13        17.71176
363.58        17.52171
364.03        17.35606
364.48        17.22021
364.93        17.11047
365.38        17.02716
365.83        16.97088
366.28         16.9355
366.73        16.91269
367.18        16.88732
367.63        16.83866
368.08        16.75785
368.53        16.64672
368.98        16.50797
369.43        16.34676
369.88        16.17163
370.33        15.99207
370.78        15.81726
371.23        15.66122
371.68         15.5343
372.13          15.436
372.58        15.38337
373.03        15.39968
373.48        15.47711
373.93        15.59605
374.38        15.70665
374.83        15.73239
375.28        15.65423
375.72        15.49043
376.17         15.2875
376.62        15.09843
377.07        14.94428
377.52        14.81401
377.97        14.70731
378.42        14.62399
378.87        14.56097
379.32        14.51921
379.77        14.49128
380.22        14.46115
380.67        14.42185
381.11        14.37881
381.56        14.31548
382.01        14.22507
382.46        14.11383
382.91        13.98946
383.36        13.87833
383.81        13.81511
384.26        13.80264
384.71        13.83095
385.15        13.87231
385.60        13.88342
386.05        13.85131
386.50        13.78964
386.95        13.72035
387.40        13.67889
387.85        13.67182
388.29        13.67472
388.74        13.68808
389.19        13.68355
389.64        13.65417
390.09        13.60584
390.54        13.54023
390.98        13.45752
391.43        13.37038
391.88        13.27755
392.33        13.18444
392.78        13.09807
393.23        13.01988
393.67        12.94442
394.12        12.88121
394.57        12.81535
395.02        12.74502
395.47         12.6712
395.91        12.60421
396.36        12.55332
396.81         12.5303
397.26         12.5321
397.71        12.54668
398.15        12.56451
398.60        12.59414
399.05        12.58076
399.50        12.54306
399.95        12.60176
400.39        12.71887
400.84        12.66679
401.29        12.45975
401.74        12.32055
402.18        12.26736
402.63        12.17084
403.08        12.06028
403.53        12.03461
403.97        12.09661
404.42        12.21729
404.87         12.3325
405.32         12.3364
405.76        12.20851
406.21        11.99298
406.66         11.7603
407.11        11.62157
407.55        11.60736
408.00        11.67724
408.45        11.78875
408.90        11.85778
409.34        11.85321
409.79        11.80602
410.24        11.73514
410.68        11.66107
411.13        11.59703
411.58        11.53005
412.03        11.46995
412.47        11.44125
412.92         11.4446
413.37        11.47899
413.81        11.52155
414.26        11.54639
414.71         11.5428
415.15        11.51741
415.60        11.48125
416.05        11.46401
416.49        11.47508
416.94        11.50619
417.39        11.53605
417.83        11.53172
418.28         11.4859
418.73        11.40592
419.17        11.32625
419.62        11.30166
420.07        11.34102
420.51        11.42304
420.96        11.49956
421.41        11.49475
421.85        11.39343
422.30        11.22283
422.74        11.03262
423.19        10.94451
423.64        10.95761
424.08        10.98243
424.53        10.98897
424.98        11.01395
425.42        11.05191
425.87        11.04338
426.31         11.0045
426.76        11.04133
427.21        11.12693
427.65        11.09474
428.10        10.97518
428.54        10.93471
428.99        10.98516
429.44        11.07406
429.88         11.1551
430.33        11.11304
430.77        10.97778
431.22        10.96498
431.66        11.06348
432.11        11.06191
432.56        10.96022
433.00        10.91047
433.45        10.88737
433.89        10.77354
434.34        10.65776
434.78        10.47393
435.23        10.78305
435.67        10.84897
436.12        10.81002
436.57        10.70816
437.01        10.58772
437.46          10.529
437.90        10.54458
438.35        10.58066
438.79        10.60864
439.24         10.6221
439.68        10.61402
440.13        10.58631
440.57        10.55674
441.02        10.56566
441.46        10.61619
441.91        10.66158
442.35        10.68079
442.80        10.75294
443.24        10.82759
443.69        10.73397
444.13         10.5177
444.58        10.41893
445.02        10.45536
445.47        10.50899
445.91        10.55299
446.36        10.59667
446.80        10.62586
447.24        10.63909
447.69        10.64192
448.13        10.63679
448.58        10.62857
449.02         10.6145
449.47        10.59522
449.91        10.56864
450.36        10.53873
450.80        10.50602
451.25        10.48081
451.69        10.47212
452.13        10.48098
452.58        10.50184
453.02        10.52112
453.47        10.51874
453.91        10.49016
454.36        10.44353
454.80        10.38606
455.24        10.32857
455.69        10.27962
456.13        10.22876
456.58        10.19144
457.02        10.17251
457.46        10.17695
457.91        10.20394
458.35         10.2277
458.79        10.20763
459.24        10.14854
459.68        10.05594
460.13        9.978381
460.57        9.961512
461.01        10.02088
461.46        10.12885
461.90        10.25411
462.34        10.33295
462.79        10.34223
463.23        10.30534
463.68        10.23388
464.12        10.15661
464.56        10.08724
465.01        10.03154
465.45        9.985167
465.89        9.970968
466.34        9.988456
466.78        10.03088
467.22        10.08698
467.67        10.12446
468.11        10.13834
468.55        10.13019
468.99        10.10911
469.44        10.09048
469.88        10.08021
470.32        10.07448
470.77        10.07143
471.21        10.07054
471.65        10.07061
472.10        10.07586
472.54        10.08555
472.98        10.10231
473.42        10.12483
473.87        10.15249
474.31        10.17575
474.75        10.19119
475.20        10.20021
475.64        10.20131
476.08        10.19806
476.52        10.19012
476.97        10.18003
477.41         10.1739
477.85        10.18107
478.29        10.20111
478.74        10.24266
479.18        10.32644
479.62         10.4303
480.06        10.50265
480.50        10.53529
480.95        10.53344
481.39        10.50189
481.83        10.55211
482.27        10.53496
482.72         10.5726
483.16        10.61641
483.60         10.6428
484.04        10.64641
484.48         10.6998
484.93        10.83418
485.37        10.84783
485.81        11.04002
486.25        11.29005
486.69        10.86726
487.14          11.072
487.58        11.86823
488.02        11.76906
488.46        11.52394
488.90        11.44697
489.34        11.21031
489.79         11.3716
490.23        11.64323
490.67        11.83901
491.11        11.88002
491.55        11.78226
491.99        11.63272
492.43        11.63019
492.88        11.80438
493.32        12.02714
493.76        12.23009
494.20        12.37463
494.64        12.44299
495.08        12.42037
495.52        12.35985
495.96        12.43201
496.41        12.63199
496.85        12.73939
497.29        12.74446
497.73        12.93683
498.17        13.11628
498.61        13.21703
499.05        13.19006
499.49        13.20409
499.93        13.24704
500.37        13.37124
500.82        13.54554
501.26        13.68431
501.70        13.77259
502.14        13.86584
502.58        13.96657
503.02         14.0486
503.46        14.11143
503.90        14.16134
504.34         14.1984
504.78        14.22417
505.22        14.24156
505.66        14.25214
506.10        14.26355
506.54        14.28699
506.98        14.32567
507.42        14.37868
507.86        14.43963
508.30         14.4966
508.74         14.5459
509.18         14.5893
509.62        14.63255
510.06        14.68612
510.50        14.75099
510.94        14.82166
511.38        14.88909
511.82        14.93933
512.26        14.96938
512.70        14.98471
513.14        14.99203
513.58        15.00252
514.02        15.01958
514.46        15.03825
514.90        15.05903
515.34        15.08236
515.78        15.10704
516.22        15.13534
516.66        15.15669
517.10        15.15382
517.54        15.12499
517.98        15.07422
518.42        15.02333
518.86         15.0075
519.30        15.03273
519.74        15.08838
520.18        15.14561
520.62        15.15847
521.06        15.11782
521.50        15.03873
521.93        14.95178
522.37        14.90152
522.81        14.90233
523.25        14.93764
523.69        14.98393
524.13        15.00548
524.57         14.9912
525.01        14.95122
525.45        14.89677
525.89        14.84579
526.32        14.80295
526.76        14.76582
527.20        14.72678
527.64        14.67656
528.08        14.61446
528.52        14.54607
528.96        14.48217
529.40        14.43745
529.83        14.41463
530.27        14.40973
530.71        14.40941
531.15        14.39425
531.59         14.3591
532.03        14.30741
532.46        14.25031
532.90        14.21585
533.34        14.20651
533.78        14.20769
534.22        14.20212
534.66          14.181
535.09        14.13093
535.53         14.0291
535.97        13.90785
536.41        13.85275
536.85        13.87634
537.28        13.94284
537.72        14.02733
538.16        14.09902
538.60        14.14469
539.04         14.1714
539.47        14.19101
539.91        14.23181
540.35        14.29605
540.79         14.3743
541.22        14.45069
541.66        14.50668
542.10        14.53778
542.54        14.55537
542.97        14.57386
543.41           14.62
543.85        14.69931
544.29        14.80497
544.72        14.92614
545.16         15.0574
545.60        15.19121
546.04        15.33039
546.47        15.47469
546.91        15.61985
547.35        15.76082
547.79        15.89552
548.22        16.01954
548.66        16.12485
549.10        16.23147
549.53        16.33601
549.97        16.44352
550.41        16.52321
550.84        16.59399
551.28        16.70154
551.72        16.83347
552.15         16.9826
552.59        17.16561
553.03        17.13065
553.46        17.38726
553.90        17.47937
554.34        17.55714
554.77        17.62347
555.21        17.69551
555.65        17.78548
556.08        17.88888
556.52        17.99193
556.96        18.08196
557.39        18.18934
557.83          18.297
558.27        18.30383
558.70        18.23717
559.14        18.25065
559.57        18.34271
560.01        18.41797
560.45          18.467
560.88        18.53305
561.32        18.62352
561.75        18.70722
562.19        18.78893
562.63        18.87242
563.06        18.95312
563.50        19.02998
563.93        19.08849
564.37        19.15581
564.80        19.23998
565.24        19.29054
565.68        19.26711
566.11        19.52499
566.55        19.36702
566.98         19.3834
567.42        19.41569
567.85        19.51946
568.29        19.70563
568.72        19.96365
569.16        20.27533
569.60        20.50482
570.03         20.7125
570.47        20.88264
570.90        21.03702
571.34        21.09756
571.77        21.25121
572.21         21.3452
572.64        21.43096
573.08        21.55951
573.51        21.75023
573.95        21.89146
574.38        21.98997
574.82          22.196
575.25        22.06973
575.69        22.08738
576.12        22.11615
576.56        22.17811
576.99        22.32688
577.42        22.25626
577.86        22.29417
578.29        22.68053
578.73        22.50723
579.16        22.45718
579.60        22.22923
580.03        22.24027
580.47        22.19797
580.90        22.20703
581.33        22.28122
581.77        22.28654
582.20        21.81271
582.64        22.13674
583.07        21.91017
583.51        21.78686
583.94        21.48284
584.37        21.32533
584.81        21.34631
585.24        21.24688
585.68        21.10485
586.11        20.89772
586.54        21.09407
586.98        20.96872
587.41        20.78292
587.85        20.63375
588.28        20.56834
588.71        20.67908
589.15        20.45641
589.58        20.44591
590.01        20.45301
590.45         20.4419
590.88        20.39579
591.31        20.33652
591.75        20.30702
592.18        20.27233
592.61        20.24947
593.05        20.53795
593.48        20.81289
593.91        20.74756
594.35        20.86092
594.78        20.81362
595.21         20.8224
595.65        20.91726
596.08        21.15423
596.51        21.31331
596.94        21.30583
597.38        21.42851
597.81        21.66405
598.24        21.90198
598.68        21.95656
599.11        22.35307
599.54        22.62275
599.97        22.65742
600.41        23.28566
600.84        23.43816
601.27         23.7514
601.70        23.95191
602.14         24.1677
602.57        24.54805
603.00        25.09491
603.43        25.21931
603.87        25.77005
604.30        26.10704
604.73        26.52239
605.16        26.77562
605.60        26.97743
606.03        27.29693
606.46        27.75689
606.89        27.82769
607.32        28.66269
607.76        28.79592
608.19        29.31121
608.62        29.61928
609.05        29.99688
609.48        30.33481
609.92        30.99826
610.35        31.22987
610.78        30.98145
611.21         31.4353
611.64        31.63336
612.07        32.08696
612.50         32.3133
612.94        32.62429
613.37         32.9546
613.80         33.1178
614.23        33.18459
614.66        33.44648
615.09         33.8985
615.52        34.25706
615.96        34.48787
616.39        34.76544
616.82        35.09578
617.25        35.25751
617.68         35.5093
618.11        35.71952
618.54        35.95028
618.97        36.26637
619.40         36.6774
619.84        36.63671
620.27        36.93973
620.70        37.04906
621.13        37.18153
621.56        37.09739
621.99         36.8731
622.42        36.91028
622.85        37.12215
623.28        37.25663
623.71        37.27363
624.14          37.408
624.57        37.69715
625.00        37.60611
625.43        37.63058
625.86        37.52556
626.29        37.51288
626.72        37.02425
627.15        37.15971
627.58        37.02765
628.01         36.9041
628.44        36.72353
628.87        36.47136
629.30        36.13448
629.73        35.86292
630.16        35.59611
630.59        35.37949
631.02        35.20007
631.45        35.02428
631.88        34.78892
632.31        34.47307
632.74        34.09399
633.17        33.66378
633.60        33.20415
634.03         32.7298
634.46        32.23835
634.89        31.73953
635.32        31.25516
635.75        30.79575
636.18        30.33196
636.61        29.88191
637.04        29.48498
637.47        29.14029
637.89        28.83047
638.32        28.52608
638.75        28.21041
639.18        27.87993
639.61        27.54291
640.04        27.21765
640.47        26.92961
640.90          26.685
641.33        26.47924
641.76        26.30074
642.18          26.135
642.61        25.97181
643.04        25.81852
643.47        25.69443
643.90        25.62871
644.33        25.62473
644.76        25.67407
645.18        25.74212
645.61        25.76833
646.04        25.74454
646.47        25.69011
646.90        25.65963
647.33        25.73423
647.75        25.92791
648.18        26.25076
648.61        26.65625
649.04        26.97968
649.47        27.17988
649.89         27.6667
650.32         27.7641
650.75        28.22369
651.18        28.79099
651.61        29.27075
652.03        29.65751
652.46        30.07533
652.89        30.57185
653.32        31.09135
653.74        31.57136
654.17        32.07844
654.60        32.26836
655.03        32.40199
655.46        32.71976
655.88        33.57115
656.31        34.96162
656.74        36.05482
657.16        38.76112
657.59        41.32226
658.02        38.01498
658.45          37.231
658.87        36.77637
659.30         37.3796
659.73        37.49522
660.15        38.36683
660.58        38.17509
661.01        38.53705
661.44        39.03032
661.86        39.26139
662.29         39.2355
662.72        39.63081
663.14        39.73557
663.57        40.01311
664.00        40.27233
664.42        40.62438
664.85        41.07415
665.27        41.63706
665.70        42.12358
666.13        42.47224
666.55        42.62974
666.98        42.59073
667.41        42.43971
667.83        42.59294
668.26        42.65371
668.69        42.94268
669.11        43.27842
669.54        43.57882
669.96        43.81705
670.39        44.01683
670.82        44.21161
671.24          44.431
671.67         44.6778
672.09        44.92324
672.52        45.15131
672.94        45.31779
673.37        45.42387
673.80        45.48286
674.22        45.53793
674.65        45.63045
675.07        45.78626
675.50        45.98557
675.92        46.19715
676.35        46.36147
676.77        46.46754
677.20        46.53135
677.62        46.59308
678.05        46.71596
678.47        46.90873
678.90         47.1505
679.32        47.40067
679.75        47.58447
680.17         47.6809
680.60        47.75705
681.02        47.85244
681.45        47.82628
681.87        48.03565
682.30        48.16729
682.72        48.32674
683.15        48.54935
683.57        48.80976
684.00        48.95522
684.42        49.01035
684.85         49.1572
685.27        49.39693
685.70        49.63304
686.12        49.82544
686.54        49.97162
686.97        50.06038
687.39        50.09134
687.82        50.08305
688.24        50.10445
688.66        50.15818
689.09          50.183
689.51        50.20156
689.94        50.27417
690.36        50.39715
690.78        50.54718
691.21        50.62441
691.63        50.80438
692.06        51.04697
692.48        51.31253
692.90        51.54237
693.33        51.64861
693.75         51.6118
694.17        51.49487
694.60        51.38884
695.02        51.29854
695.44        51.30676
695.87        51.72658
696.29        52.38274
696.71        52.53169
697.14        52.23693
697.56        52.15291
697.98        52.30307
698.41         52.7764
698.83        52.62061
699.25        52.90203
699.68        53.24341
700.10        53.41533
700.52        53.36198
700.94        53.17975
701.37        52.99656
701.79         52.9974
702.21        53.22381
702.64        53.59922
703.06        54.01981
703.48        54.31412
703.90        54.43044
704.33        54.39587
704.75        54.28014
705.17        54.25238
705.59        54.32419
706.01        54.32414
706.44        54.27717
706.86        54.36463
707.28        54.59711
707.70        54.89214
708.12        55.19948
708.55        55.50512
708.97        55.74509
709.39        55.75372
709.81        55.58878
710.23        55.53975
710.66        55.64416
711.08        55.76647
711.50        55.85055
711.92         55.8844
712.34        55.86101
712.76        55.80348
713.19        55.74184
713.61        55.75307
714.03         55.8442
714.45        55.99491
714.87         56.1982
715.29        56.44711
715.71        56.72444
716.13        57.01616
716.56        57.26884
716.98        57.46923
717.40        57.57231
717.82        57.59018
718.24        57.52716
718.66        57.39478
719.08        57.22381
719.50         57.0388
719.92        56.89745
720.34        56.88131
720.76        57.00375
721.19        57.21976
721.61        57.51811
722.03        57.83008
722.45        58.11132
722.87        58.36966
723.29         58.5606
723.71        58.55225
724.13        58.32157
724.55        58.06264
724.97        57.92322
725.39        57.44086
725.81        57.54904
726.23        58.00423
726.65        58.04683
727.07        58.43794
727.49        58.64431
727.91        58.87911
728.33        59.05679
728.75        59.19225
729.17        59.29182
729.59        59.32887
730.01        59.33606
730.43        59.37216
730.85        59.44669
731.27        59.54378
731.69        59.62536
732.10        59.63066
732.52        59.55443
732.94        59.42074
733.36        59.28282
733.78        59.16543
734.20        59.09555
734.62        59.07345
735.04        59.52874
735.46        59.14789
735.88        59.78323
736.30        59.94107
736.72        60.14679
737.13        60.44026
737.55        60.69468
737.97        60.84199
738.39        60.81075
738.81        60.30993
739.23        59.59129
739.65        59.68858
740.06          60.451
740.48        60.78894
740.90        60.62562
741.32        60.60373
741.74        60.78304
742.16        60.91865
742.57        61.01042
742.99        61.12986
743.41         61.2303
743.83        61.16972
744.25        60.97174
744.67        60.77986
745.08        60.67616
745.50        60.66285
745.92        60.76501
746.34        61.00614
746.75        61.29795
747.17        61.44604
747.59        61.42139
748.01        61.30121
748.42        61.14419
748.84        61.05254
749.26        61.08008
749.68        61.13514
750.09         61.2258
750.51         61.5275
750.93        61.85377
751.35        61.79567
751.76        61.47014
752.18        60.92429
752.60         60.8507
753.01        61.24219
753.43        60.75002
753.85        60.73992
754.27        60.75992
754.68        60.97244
755.10         61.0757
755.52        61.20087
755.93        61.27598
756.35        61.34842
756.77        61.47937
757.18         61.6674
757.60        61.92045
758.02        62.34976
758.43        62.76822
758.85        62.66641
759.26        62.47523
759.68        62.00512
760.10        61.46075
760.51        62.11677
760.93        62.57958
761.34        62.22565
761.76        62.85721
762.18         62.8565
762.59        62.94808
763.01        63.04918
763.42        63.21264
763.84        63.24467
764.26        63.12845
764.67        62.92139
765.09        62.71915
765.50        62.56722
765.92        62.51838
766.33        62.52372
766.75        62.51065
767.16        62.49546
767.58        62.40144
768.00        62.25918
768.41        62.25943
768.83        62.14186
769.24        62.79921
769.66        63.31805
770.07        63.75871
770.49          63.391
770.90        62.52779
771.32        62.74294
771.73        63.88698
772.15        64.24623
772.56        63.74674
772.97        63.34735
773.39        63.21114
773.80         63.1956
774.22         63.2934
774.63        63.48441
775.05        63.63272
775.46        63.69983
775.88        63.62634
776.29        63.39725
776.70        63.13522
777.12        63.11086
777.53        63.37503
777.95        63.79103
778.36        64.23125
778.77        64.45155
779.19        64.41396
779.60         64.2323
780.02         63.9551
780.43        63.77667
780.84        63.78187
781.26        63.51384
781.67        63.16866
782.09        63.97088
782.50        65.49381
782.91        65.57229
783.33        64.33768
783.74        63.90536
784.15        64.37782
784.57        64.52092
784.98        64.31792
785.39        64.29181
785.81        64.46098
786.22        64.73689
786.63        65.03746
787.04        65.19378
787.46         65.1802
787.87        65.03584
788.28        64.89217
788.70        64.87642
789.11        64.99614
789.52        65.35913
789.93        65.78168
790.35        65.70033
790.76        65.19038
791.17        64.87404
791.58         64.8863
792.00        64.93083
792.41        64.96373
792.82        65.24011
793.23         65.6037
793.65        65.23094
794.06        64.41626
794.47        64.64404
794.88        65.73067
795.29        66.13347
795.71        65.74612
796.12        65.65928
796.53        65.90042
796.94        65.58054
797.35        64.91317
797.76        65.17057
798.18        66.16275
798.59        66.53956
799.00        66.17128
799.41         65.7934
799.82        65.57703
800.23        65.48099
800.64        65.55813
801.06        65.77299
801.47        66.05584
801.88        66.20902
802.29        66.16717
802.70        65.96889
803.11        65.68483
803.52        65.43913
803.93        65.30742
804.34        65.27968
804.75        65.31544
805.17        65.47374
805.58        65.80014
805.99        65.83579
806.40        65.71235
806.81         66.6757
807.22        68.24492
807.63        68.01208
808.04        66.24935
808.45        65.48659
808.86        65.91595
809.27         66.1486
809.68        66.03004
810.09        65.97893
810.50         65.9685
810.91        65.89225
811.32        65.85605
811.73        66.02257
812.14        66.40661
812.55           66.96
812.96        67.50592
813.37        67.70624
813.78        67.47284
814.19        66.93775
814.60        66.28627
815.01         65.7611
815.42        65.43126
815.83        65.23709
816.24        65.16498
816.65        65.18681
817.05        65.28806
817.46        65.45976
817.87        65.68468
818.28        65.88199
818.69        66.03317
819.10        66.13187
819.51        66.21284
819.92        66.37228
820.33        66.62189
820.74        66.86795
821.14        67.05866
821.55        67.23403
821.96        67.32164
822.37        67.07871
822.78        66.60697
823.19        66.33984
823.60        66.34754
824.00        66.44149
824.41         66.5359
824.82        66.66917
825.23        66.80496
825.64        66.93775
826.04        67.04018
826.45        67.02747
826.86        66.90585
827.27        66.70678
827.68        66.48298
828.08         66.3546
828.49        66.30862
828.90        66.32849
829.31        66.42816
829.72        66.62534
830.12        66.92553
830.53        67.27085
830.94        67.54575
831.35        67.50957
831.75        67.13866
832.16        66.48965
832.57        65.79874
832.97         65.4223
833.38        65.44953
833.79        65.76122
834.20        66.21291
834.60        66.56619
835.01        66.74634
835.42         66.8635
835.82        66.93278
836.23        66.90477
836.64        66.82076
837.04        66.64399
837.45         66.5378
837.86        66.83861
838.26        67.61115
838.67        68.72646
839.08        69.80727
839.48        70.13254
839.89        69.52893
840.29        68.25189
840.70        66.90614
841.11         66.1915
841.51         66.2821
841.92        66.95583
842.33        67.91974
842.73        68.64144
843.14        68.82525
843.54        68.68143
843.95        68.39277
844.35        68.30556
844.76         68.4898
845.17        68.81012
845.57        69.12156
845.98        69.17651
846.38         68.9388
846.79        68.50938
847.19        68.02142
847.60        67.65063
848.00        67.47073
848.41        67.40086
848.81        67.43894
849.22          67.502
849.62        67.59334
850.03        67.72647
850.43        67.86834
850.84         67.8935
851.24         67.8231
851.65        67.61314
852.05        67.44721
852.46        67.54474
852.86        67.94404
853.27        68.55924
853.67        69.11229
854.07         69.3353
854.48        69.15582
854.88        68.67577
855.29        68.03996
855.69        67.64503
856.10         67.5507
856.50        67.73353
856.90        67.98694
857.31        67.98134
857.71        67.68427
858.12        67.13648
858.52         66.5773
858.92        66.28939
859.33        66.33344
859.73        66.65517
860.13        67.02618
860.54         67.0909
860.94        66.80389
861.34        66.27309
861.75        65.69422
862.15        65.42774
862.55        65.54637
862.96        65.88911
863.36        66.36863
863.76        66.75697
864.17        66.94668
864.57        67.04308
864.97        66.96659
865.38        66.59785
865.78        65.98372
866.18         65.1519
866.58         64.3619
866.99        64.08044
867.39        64.43968
867.79        65.29202
868.19        66.32999
868.60        67.05647
869.00        67.35915
869.40        67.32464
869.80        67.09645
870.21        66.96398
870.61         67.0809
871.01        67.29544
871.41        67.43312
871.81        67.25601
872.22        66.72695
872.62        65.94383
873.02        65.14082
873.42        64.69833
873.82        64.72089
874.22           65.09
874.63        65.55714
875.03        65.74083
875.43        65.53375
875.83        65.07349
876.23         64.5498
876.63        64.25395
877.03        64.27209
877.44        64.47562
877.84        64.79844
878.24        65.15124
878.64        65.42121
879.04        65.48386
879.44        65.41763
879.84        65.45187
880.24        65.59408
880.64        65.73389
881.04        65.70934
881.44        65.30337
881.84        64.50761
882.24        63.44111
882.65        62.38845
883.05        61.76921
883.45         61.6909
883.85        62.04775
884.25        62.63448
884.65        63.08117
885.05        63.26162
885.45        63.27525
885.85        63.22668
886.25        63.28549
886.65        63.49886
887.05        63.78699
887.45        64.09622
887.85        64.35562
888.25         64.5294
888.65        64.64157
889.04        64.69612
889.44        64.72565
889.84         64.7231
890.24        64.66846
890.64        64.56204
891.04        64.41157
891.44        64.23249
891.84        64.05901
892.24        63.87861
892.64        63.65609
893.04        63.40715
893.44         63.1573
893.83        63.02133
894.23        63.13067
894.63        63.51758
895.03        64.10835
895.43        64.75742
895.83        65.23309
896.23        65.44617
896.63        65.43099
897.02        65.23798
897.42        64.98942
897.82        64.74087
898.22        64.49968
898.62        64.25299
899.01        63.96955
899.41        63.67592
899.81        63.38095
900.21          63.201
900.61        63.30934
901.00        63.71394
901.40        64.34183
901.80        64.96365
902.20        65.21204
902.59        65.02204
902.99        64.50136
903.39         63.8857
903.79        63.56754
904.18        63.63922
904.58        63.96314
904.98        64.41411
905.38        64.81173
905.77        65.08666
906.17        65.32419
906.57         65.4379
906.96        65.28065
907.36        64.84835
907.76        64.20217
908.15        63.62182
908.55        63.53514
908.95        64.03236
909.34        64.99397
909.74        66.07124
910.14        66.76068
910.53        66.87228
910.93        66.55306
911.33         65.9658
911.72        65.36429
912.12        64.91202
912.52        64.55025
912.91        64.24714
913.31        63.97297
913.70        63.72689
914.10        63.51519
914.49        63.47502
914.89         63.7328
915.29         64.3073
915.68        65.13779
916.08         65.9152
916.47        66.19948
916.87        65.90765
917.26        65.15368
917.66        64.31656
918.05        63.83947
918.45        63.83555
918.84        64.21848
919.24        64.72462
919.64        65.01885
920.03        65.00469
920.42        64.76075
920.82         64.5107
921.21        64.54021
921.61        64.89307
922.00        65.49708
922.40        66.10442
922.79        66.42749
923.19        66.35474
923.58        66.02602
923.98        65.62938
924.37        65.37989
924.77        65.35534
925.16        65.43019
925.55        65.59577
925.95        65.81785
926.34        66.06312
926.74        66.32977
927.13        66.44113
927.52        66.04829
927.92        65.18279
928.31        63.97102
928.70        62.79119
929.10        62.18987
929.49        62.27472
929.89         62.8447
930.28        63.73065
930.67        64.50636
931.07        64.97407
931.46        65.31896
931.85        65.43992
932.24        65.23587
932.64        64.77993
933.03        64.04783
933.42        63.41264
933.82        63.42965
934.21        64.18169
934.60        65.56509
934.99        67.08961
935.39        67.84998
935.78        67.63022
936.17        66.58762
936.56        65.25716
936.96        64.49155
937.35        64.50705
937.74        65.06534
938.13        65.68965
938.53        65.64069
938.92        64.78501
939.31        63.44451
939.70        62.10248
940.09         61.4243
940.49        61.53436
940.88        62.23884
941.27        63.25536
941.66        64.06695
942.05        64.47272
942.44        64.63237
942.84        64.66238
943.23        64.73882
943.62        64.93074
944.01        65.11559
944.40        65.31673
944.79        65.61682
945.18        65.98872
945.57        66.40765
945.97        66.65933
946.36        66.47257
946.75        65.78078
947.14        64.76274
947.53        63.66699
947.92        62.82938
948.31        62.35561
948.70        62.16415
949.09        62.25583
949.48        62.61629
949.87        63.19056
950.26        63.96064
950.65        64.75707
951.04         65.3035
951.43        65.50292
951.82        65.37357
952.21        65.04045
952.60         64.7382
952.99        64.57065
953.38        64.54095
953.77        64.56079
954.16        64.48454
954.55        64.27797
954.94        63.93793
955.33        63.71419
955.72        64.02044
956.11        64.90862
956.50        66.26666
956.89        67.47682
957.28        67.51607
957.66        66.20395
958.05        63.94741
958.44        61.62677
958.83        60.50011
959.22        60.81495
959.61        62.22346
960.00        64.04534
960.39        65.00076
960.78         64.6736
961.16         63.4652
961.55        62.02249
961.94        61.19294
962.33        61.20275
962.72        61.81158
963.11        62.66753
963.49        63.15905
963.88        62.99794
964.27        62.40024
964.66        61.80179
965.04        61.85096
965.43         62.6164
965.82        63.93283
966.21        65.22293
966.60        65.40699
966.98        64.20733
967.37        62.13012
967.76         59.9829
968.15        58.74736
968.53        58.62407
968.92         59.3652
969.31         60.5575
969.69        61.37071
970.08        61.42054
970.47        60.95776
970.86        60.47391
971.24        60.68574
971.63        61.73244
972.02        63.38404
972.40        65.09763
972.79        65.58556
973.17        64.58746
973.56        62.62391
973.95        60.52509
974.33        59.33204
974.72         59.2697
975.11        60.00392
975.49        61.24158
975.88        62.32797
976.26         62.9904
976.65        63.35186
977.04        63.41147
977.42         63.1423
977.81        62.56152
978.19        61.63633
978.58        60.67589
978.96         60.1702
979.35        60.22628
979.74        60.79326
980.12        61.64695
980.51        62.11458
980.89        62.12722
981.28        61.82841
981.66        61.53865
982.05        61.70936
982.43        62.43893
982.82        63.52805
983.20        64.83369
983.59        65.98026
983.97        66.86205
984.35        67.55517
984.74        67.86394
985.12        67.73389
985.51        67.14097
985.89        66.12533
986.28        65.15004
986.66        64.83205
987.04        65.34882
987.43        66.55224
987.81        67.92814
988.20        68.34361
988.58          67.507
988.96        65.68256
989.35        63.63469
989.73        62.44865
990.12        62.34366
990.50        63.09194
990.88        64.00822
991.27        63.89747
991.65        62.52852
992.03        60.37668
992.42         58.4109
992.80        57.93256
993.18         59.1918
993.56        61.79459
993.95        64.81615
994.33        66.62697
994.71        66.51199
995.10        65.06973
995.48        63.10164
995.86        61.87357
996.24         61.7192
996.63        62.10432
997.01        62.92545
997.39        63.65046
997.77        63.98783
998.15        64.25647
998.54        64.19241
998.92        63.23301
999.30        61.48429
999.68        59.10472
1000.06        57.00146
1000.45        56.45924
1000.83        57.81429
1001.21        60.90248
1001.59        64.73336
1001.97        66.89037
1002.35        66.47814
1002.73        64.20277
1003.12        61.68829
1003.50        61.03786
1003.88        62.78283
1004.26        66.22021
1004.64        70.37119
1005.02        73.10561
1005.40        73.49165
1005.78        72.36067
1006.16        70.13589
1006.54        67.46684
1006.92        64.87764
1007.30        62.21777
1007.69        60.40042
1008.07        60.60075
1008.45        63.10245
1008.83        67.77654
1009.21        73.31303
1009.59        76.34509
1009.97        75.34859
1010.35        71.24519
1010.73        65.74093
1011.11        61.35962
1011.49        58.86805
1011.86         57.6024
1012.24         57.2291
1012.62        57.27864
1013.00         57.5269
1013.38        58.18313
1013.76        59.15877
1014.14        60.01179
1014.52        60.47939
1014.90        60.52175
1015.28        60.12518
1015.66        59.41935
1016.04         58.4962
1016.41        57.31675
1016.79        56.23882
1017.17        55.96271
1017.55        56.61356
1017.93        57.97683
1018.31        59.45596
1018.69        60.17433
1019.06        59.96908
1019.44        59.05266
1019.82        57.78096
1020.20        57.07973
1020.58        57.28322
1020.95        57.85907
1021.33        58.64626
1021.71        59.41878
1022.09        60.11035
1022.46        61.02922
1022.84        61.51564
1023.22        60.18226
1023.60        56.92647
1023.97        52.36324
1024.35        48.49803
1024.73        47.34231
