SpectraSmart Spectrum 2.9.0.0
--------- Device Information -----------
Spectrum Name :  反射率_0
Saving Time :  2024/04/26 22:09:18
Spectro-Module Model Name : SE2030-DUVN
Spectro-Module Serial Number : OS361AC55029948
Wavelength Start : 200
Wavelength End : 1025
Wavelength Unit : Wavelength(nm)
Spectrum Unit : Reflectance(%)
-----------Spectrum Setting ------------
Integration Time : 20ms
Average : 10
Boxcar : 0
Background removal :  enabled
linearity correction :  enabled
SC :  disabled
Intensity correction :  disabled
DWT denoise :  enabled
savitzky-golay :  disabled
FFT :  disabled
Running average :  disabled
Kalman :  disabled
High pass :  disabled
---------------BEGIN--------------------
Wavelength(nm)             Reflectance(%)
200.29               0
200.75        38.75365
201.21        43.14582
201.67        46.84732
202.13        49.01958
202.58         49.7348
203.04        49.66742
203.50        48.89068
203.96        47.53836
204.42        45.97184
204.88        44.17624
205.34        42.83442
205.80         43.0719
206.26        44.70506
206.72        46.88247
207.18          48.805
207.64        49.89381
208.10        50.17495
208.55        50.25781
209.01        48.81126
209.47         44.5224
209.93        39.47493
210.39        35.91026
210.85         34.5321
211.31        35.45089
211.77        39.11096
212.23        48.23005
212.69        73.70844
213.14        127.7488
213.60        144.7915
214.06        121.6762
214.52         99.8101
214.98        86.20353
215.44        76.07175
215.90        65.36303
216.36        55.78002
216.81        50.95808
217.27        52.46722
217.73        61.70621
218.19        77.08975
218.65        84.57127
219.11        77.95061
219.57        65.80372
220.02        57.74737
220.48        59.20861
220.94         69.8409
221.40        90.93811
221.86        121.0422
222.32        138.5218
222.77        126.6258
223.23        100.4543
223.69        77.20193
224.15         66.3171
224.61        64.86176
225.06        67.37955
225.52        70.72517
225.98        71.54957
226.44        69.63754
226.90        66.53831
227.36        63.07984
227.81        60.56688
228.27        59.63263
228.73        59.42567
229.19        59.97358
229.65        61.46497
230.10        63.69255
230.56        66.70856
231.02        69.44028
231.48        70.11189
231.93        68.54778
232.39        65.79421
232.85        63.19822
233.31         62.6274
233.77        64.20382
234.22        67.18427
234.68        70.60757
235.14        73.04678
235.60        73.98764
236.05        73.91035
236.51        72.74545
236.97        70.62091
237.43        67.83536
237.88        64.44997
238.34         61.1684
238.80        59.32591
239.26         59.3803
239.71        61.86771
240.17         66.2411
240.63        70.69664
241.08        73.98136
241.54        75.41255
242.00        76.39687
242.46        80.60474
242.91        90.83403
243.37        108.2671
243.83        132.5511
244.28        150.2796
244.74        143.7845
245.20        115.8554
245.66        84.85973
246.11        64.88161
246.57        55.85125
247.03         53.1816
247.48        54.24289
247.94        54.89202
248.40        54.18305
248.85        53.55504
249.31        53.33668
249.77        53.23529
250.22        53.10201
250.68        52.52308
251.14        52.07362
251.59        53.49273
252.05        57.24138
252.51        62.42865
252.96        65.98615
253.42        65.72053
253.88        62.42315
254.33        57.31265
254.79        53.83433
255.25        54.68674
255.70        59.37263
256.16        66.55711
256.62        72.72462
257.07        72.73081
257.53        67.98841
257.99        61.78976
258.44        56.64645
258.90        54.75757
259.35        55.09612
259.81        56.80708
260.27        58.52979
260.72        58.69559
261.18        57.50105
261.63        55.44956
262.09        53.70527
262.55        53.01546
263.00        53.21264
263.46        53.98336
263.91        54.51896
264.37        54.10148
264.83        52.70836
265.28        50.74945
265.74        48.94355
266.19        47.87022
266.65        47.66755
267.11        47.97013
267.56        48.49227
268.02        48.79038
268.47        48.69881
268.93        48.40285
269.38        47.85426
269.84         47.0381
270.30        45.99355
270.75        44.70726
271.21         43.4792
271.66        42.71798
272.12        42.48888
272.57        42.65265
273.03         42.8645
273.48        42.53859
273.94        41.61869
274.39        40.28701
274.85         38.9366
275.31        37.96344
275.76        37.42085
276.22        37.18635
276.67        37.05287
277.13        36.83484
277.58         36.4186
278.04        35.91038
278.49        35.30659
278.95        34.71835
279.40        34.12466
279.86        33.56996
280.31        32.98421
280.77        32.39058
281.22        31.75956
281.68          31.166
282.13        30.63713
282.59        30.29633
283.04        30.10964
283.50        30.05096
283.95        30.01565
284.41        29.85943
284.86         29.5465
285.32        29.15127
285.77        28.73205
286.22        28.43414
286.68        28.28108
287.13        28.18963
287.59        28.12444
288.04        27.98531
288.50        27.77456
288.95        27.50634
289.41        27.21452
289.86        26.87787
290.32        26.54207
290.77        26.19658
291.22        25.90654
291.68        25.75484
292.13        25.74276
292.59        25.86362
293.04        26.05635
293.50         26.2426
293.95        26.39017
294.40        26.52164
294.86        26.67738
295.31        26.91514
295.77        27.25107
296.22        27.65076
296.68        28.07678
297.13        28.45838
297.58        28.78806
298.04        29.09503
298.49        29.41058
298.95        29.79946
299.40        30.26496
299.85        30.77849
300.31        31.31451
300.76        31.82659
301.21        32.29714
301.67        32.74864
302.12        33.14669
302.58        33.49606
303.03        33.77864
303.48        34.01787
303.94        34.25414
304.39        34.51663
304.84        34.82256
305.30        35.16586
305.75        35.50186
306.20        35.81524
306.66         36.1006
307.11        36.34529
307.57        36.54562
308.02        36.64923
308.47        36.66443
308.93        36.61029
309.38        36.51986
309.83        36.49405
310.29        36.55094
310.74        36.66199
311.19         36.7587
311.65        36.72176
312.10        36.52524
312.55        36.21183
313.00         35.8791
313.46        35.66901
313.91        35.59951
314.36        35.63885
314.82        35.69624
315.27        35.63484
315.72        35.42012
316.18        35.10765
316.63           34.78
317.08        34.57926
317.53        34.53399
317.99          34.589
318.44        34.66769
318.89        34.63695
319.35        34.45853
319.80        34.17117
320.25        33.83561
320.70        33.54889
321.16        33.33718
321.61        33.18364
322.06        33.03933
322.51        32.82853
322.97        32.53292
323.42        32.18893
323.87          31.861
324.32        31.65372
324.78        31.57667
325.23        31.61037
325.68        31.65871
326.13         31.5702
326.59        31.30538
327.04        30.92279
327.49        30.50558
327.94        30.18959
328.39        30.00583
328.85        29.89526
329.30        29.83451
329.75         29.7247
330.20        29.53785
330.66        29.30855
331.11        29.06717
331.56        28.83134
332.01        28.61356
332.46        28.39716
332.92        28.19075
333.37        28.06229
333.82         28.0041
334.27        28.00614
334.72        28.01813
335.17        27.95121
335.63        27.78309
336.08        27.55741
336.53        27.32008
336.98        27.15952
337.43        27.10269
337.88        27.11626
338.34        27.17964
338.79        27.28537
339.24        27.40113
339.69        27.52738
340.14        27.61051
340.59        27.56692
341.05        27.39321
341.50        27.11075
341.95        26.79659
342.40        26.57185
342.85         26.4686
343.30        26.45536
343.75        26.48496
344.20        26.47785
344.66        26.41324
345.11        26.31633
345.56         26.2097
346.01        26.12658
346.46        26.08139
346.91        26.06449
347.36        26.06498
347.81        26.07137
348.26        26.07823
348.72        26.08535
349.17        26.10287
349.62        26.15987
350.07        26.25265
350.52        26.36679
350.97        26.44874
351.42        26.41561
351.87        26.25795
352.32        26.01128
352.77        25.74598
353.22        25.56322
353.67        25.48718
354.13        25.49024
354.58        25.53102
355.03        25.54182
355.48        25.49804
355.93        25.41826
356.38        25.32301
356.83        25.24137
357.28        25.17898
357.73        25.12151
358.18        25.04652
358.63        24.92537
359.08        24.75427
359.53        24.54431
359.98        24.32828
360.43        24.15032
360.88        24.01715
361.33        23.91879
361.78        23.81715
362.23        23.65102
362.68        23.41612
363.13        23.14144
363.58        22.87941
364.03        22.70878
364.48        22.64412
364.93        22.65325
365.38        22.69861
365.83        22.71955
366.28        22.69158
366.73        22.63077
367.18        22.53279
367.63        22.39264
368.08        22.21653
368.53        22.00393
368.98         21.7857
369.43          21.614
369.88        21.49889
370.33        21.42842
370.78        21.36986
371.23        21.26441
371.68        21.09946
372.13        20.89901
372.58        20.68998
373.03        20.51393
373.48        20.38411
373.93        20.28328
374.38        20.20966
374.83        20.16268
375.28        20.13178
375.72        20.10671
376.17        20.07323
376.62        19.98365
377.07        19.83442
377.52        19.64462
377.97        19.44166
378.42        19.27534
378.87        19.16299
379.32        19.08681
379.77        19.04862
380.22        19.04879
380.67        19.07656
381.11        19.13662
381.56        19.17404
382.01        19.11544
382.46        18.95384
382.91        18.72167
383.36        18.48631
383.81        18.34231
384.26        18.30453
384.71        18.34043
385.15        18.41005
385.60        18.44755
386.05        18.42859
386.50         18.3765
386.95        18.29612
387.40        18.19578
387.85        18.08659
388.29        17.95509
388.74        17.84598
389.19        17.78136
389.64        17.76095
390.09        17.77317
390.54         17.7891
390.98        17.75507
391.43         17.6716
391.88        17.55604
392.33        17.43197
392.78        17.33256
393.23        17.26626
393.67        17.21311
394.12        17.18486
394.57        17.16509
395.02        17.14749
395.47        17.13046
395.91        17.11264
396.36         17.0801
396.81        17.04221
397.26        17.00657
397.71        16.96928
398.15        16.93608
398.60        16.92856
399.05        16.87208
399.50        16.80031
399.95        16.88705
400.39        17.07982
400.84        17.06671
401.29        16.85151
401.74         16.7088
402.18        16.65565
402.63        16.52528
403.08        16.35499
403.53        16.27665
403.97        16.30076
404.42        16.39086
404.87        16.49194
405.32        16.51226
405.76        16.42856
406.21        16.27963
406.66        16.11555
407.11        16.01563
407.55        16.00552
408.00        16.05407
408.45        16.12986
408.90        16.16938
409.34        16.15095
409.79        16.09794
410.24        16.03906
410.68        16.00885
411.13        16.02023
411.58        16.05876
412.03        16.10099
412.47        16.11012
412.92        16.07265
413.37        16.00933
413.81        15.94529
414.26        15.92985
414.71        15.96504
415.15        16.03689
415.60        16.11676
416.05        16.16841
416.49        16.17752
416.94        16.15371
417.39        16.10207
417.83        16.02893
418.28        15.94099
418.73        15.83653
419.17        15.73731
419.62        15.67929
420.07        15.66958
420.51        15.69543
420.96        15.73314
421.41        15.73987
421.85        15.70045
422.30        15.62433
422.74        15.52531
423.19        15.49433
423.64        15.51522
424.08        15.48427
424.53        15.40414
424.98        15.40195
425.42        15.49131
425.87        15.56274
426.31        15.60428
426.76         15.7126
427.21        15.83263
427.65        15.74483
428.10        15.50997
428.54        15.38747
428.99        15.40674
429.44        15.49434
429.88        15.58278
430.33        15.50639
430.77        15.30766
431.22        15.28813
431.66        15.45014
432.11        15.53071
432.56        15.52869
433.00        15.64858
433.45        15.80422
433.89        15.72861
434.34        15.52129
434.78        15.12232
435.23        15.40597
435.67        15.40331
436.12        15.33891
436.57        15.24945
437.01        15.16174
437.46        15.12804
437.90        15.14573
438.35        15.15529
438.79         15.1471
439.24        15.15762
439.68        15.18476
440.13        15.21792
440.57        15.24065
441.02        15.24394
441.46        15.22577
441.91        15.15193
442.35        15.05466
442.80        15.12765
443.24        15.31022
443.69        15.32995
444.13        15.19714
444.58        15.16986
445.02        15.25153
445.47        15.29803
445.91        15.29706
446.36        15.30517
446.80        15.31844
447.24        15.32036
447.69        15.32199
448.13         15.3347
448.58        15.36222
449.02        15.39951
449.47         15.4308
449.91        15.42241
450.36        15.37459
450.80        15.29703
451.25        15.21865
451.69        15.17394
452.13        15.17334
452.58        15.20355
453.02        15.24585
453.47        15.27211
453.91        15.27331
454.36        15.26079
454.80        15.23689
455.24        15.20399
455.69        15.17035
456.13        15.12344
456.58        15.08783
457.02        15.07715
457.46        15.09967
457.91        15.15061
458.35          15.196
458.79        15.18449
459.24        15.12252
459.68        15.01916
460.13        14.92986
460.57        14.89997
461.01        14.94972
461.46        15.04544
461.90         15.1672
462.34        15.26761
462.79        15.32302
463.23        15.35453
463.68        15.34282
464.12        15.26869
464.56        15.13964
465.01        14.98702
465.45        14.84204
465.89        14.78797
466.34        14.83312
466.78        14.95191
467.22        15.10496
467.67        15.20451
468.11        15.23138
468.55        15.20175
468.99        15.14739
469.44         15.1202
469.88        15.13598
470.32         15.1739
470.77        15.21863
471.21        15.25088
471.65        15.26157
472.10        15.26363
472.54        15.25543
472.98        15.23736
473.42        15.21385
473.87        15.19156
474.31         15.1712
474.75        15.16936
475.20        15.19267
475.64        15.23005
476.08        15.28191
476.52        15.34035
476.97        15.39996
477.41        15.46645
477.85        15.53535
478.29        15.57684
478.74         15.6007
479.18        15.65095
479.62        15.71434
480.06        15.74657
480.50         15.7489
480.95         15.7221
481.39        15.67544
481.83         15.7789
482.27        15.80462
482.72        15.92499
483.16        16.04714
483.60          16.126
484.04        16.15703
484.48        16.17818
484.93        16.21936
485.37        16.22699
485.81        16.64914
486.25        16.62327
486.69        15.78098
487.14        16.34137
487.58        17.37634
488.02        17.31894
488.46        16.92364
488.90        17.07056
489.34        17.16854
489.79        17.36316
490.23        17.31376
490.67        17.47272
491.11        17.75702
491.55        17.82016
491.99        17.70584
492.43        17.72416
492.88        17.89425
493.32        18.03297
493.76        18.12339
494.20        18.23759
494.64        18.37901
495.08        18.49222
495.52        18.57658
495.96        18.75371
496.41        18.98402
496.85        18.98312
497.29        18.81047
497.73        18.99708
498.17        19.27062
498.61        19.49745
499.05         19.5622
499.49        19.64298
499.93        19.69949
500.37        19.84208
500.82        20.03815
501.26        20.15855
501.70        20.22934
502.14        20.29546
502.58        20.38981
503.02        20.50559
503.46        20.64489
503.90         20.8086
504.34        20.96149
504.78        21.04529
505.22        21.04885
505.66        20.99061
506.10        20.91445
506.54          20.891
506.98        20.93901
507.42        21.03934
507.86        21.16164
508.30         21.2543
508.74        21.30224
509.18        21.32285
509.62        21.33449
510.06        21.36619
510.50        21.42565
510.94        21.49892
511.38        21.57683
511.82        21.64682
512.26        21.70392
512.70        21.75492
513.14        21.79684
513.58        21.82387
514.02        21.83704
514.46        21.83615
514.90        21.83614
515.34        21.86186
515.78         21.9168
516.22        21.99387
516.66        22.06948
517.10        22.10508
517.54        22.09291
517.98        22.04562
518.42         21.9881
518.86        21.96037
519.30        21.97271
519.74        22.01218
520.18        22.06028
520.62        22.08816
521.06        22.08725
521.50        22.06653
521.93        22.03779
522.37        22.01149
522.81        21.99551
523.25        21.98484
523.69         21.9718
524.13        21.94643
524.57        21.90466
525.01        21.84594
525.45        21.78087
525.89        21.72613
526.32        21.68233
526.76        21.65265
527.20        21.61282
527.64        21.52644
528.08        21.39317
528.52        21.22986
528.96        21.07893
529.40        21.00549
529.83        21.01964
530.27        21.09735
530.71        21.19553
531.15        21.24693
531.59        21.23108
532.03        21.16741
532.46         21.0705
532.90        20.97961
533.34        20.90578
533.78        20.82814
534.22        20.75346
534.66        20.71821
535.09        20.70896
535.53        20.67842
535.97        20.62703
536.41        20.60682
536.85        20.61901
537.28        20.62866
537.72        20.64441
538.16        20.69649
538.60        20.78317
539.04        20.89214
539.47        20.99365
539.91        21.05699
540.35        21.07286
540.79        21.05535
541.22        21.03031
541.66        21.04632
542.10        21.11276
542.54        21.21578
542.97        21.33493
543.41        21.44643
543.85        21.53956
544.29        21.62613
544.72        21.70781
545.16        21.80141
545.60        21.90776
546.04        22.02437
546.47        22.15741
546.91        22.31325
547.35        22.48762
547.79        22.67765
548.22        22.86743
548.66        23.02803
549.10        23.18143
549.53        23.32323
549.97        23.46417
550.41        23.56884
550.84        23.66521
551.28        23.81448
551.72        23.98948
552.15        24.16633
552.59        24.36785
553.03        24.24344
553.46        24.53127
553.90        24.60985
554.34        24.69622
554.77        24.78776
555.21        24.89256
555.65        25.00208
556.08        25.10458
556.52        25.18987
556.96        25.25538
557.39        25.36504
557.83        25.50078
558.27        25.51609
558.70        25.43664
559.14        25.45802
559.57        25.57096
560.01        25.64444
560.45        25.67924
560.88        25.74918
561.32        25.86456
561.75        25.99827
562.19        26.12997
562.63        26.17261
563.06        26.14097
563.50        26.16395
563.93        26.22947
564.37        26.28668
564.80        26.35143
565.24        26.41463
565.68        26.40677
566.11        26.77351
566.55        26.55156
566.98        26.52815
567.42        26.50556
567.85        26.65175
568.29        26.95341
568.72        27.25386
569.16        27.52723
569.60        27.69159
570.03        27.83601
570.47        27.90251
570.90        27.96142
571.34        27.88597
571.77        28.14438
572.21        28.30205
572.64        28.43489
573.08        28.68884
573.51        28.82947
573.95        28.85025
574.38        28.78395
574.82        28.95006
575.25        28.79983
575.69        28.97591
576.12        29.24259
576.56        29.31852
576.99        29.23194
577.42        29.07783
577.86        29.14914
578.29        29.35618
578.73        28.94506
579.16        29.25476
579.60        29.03585
580.03        29.21981
580.47         29.0843
580.90        29.03629
581.33        29.07174
581.77         28.8768
582.20        28.15527
582.64        28.14812
583.07        28.43867
583.51        28.54915
583.94        28.51204
584.37        28.41035
584.81        28.31554
585.24        28.05907
585.68        27.77059
586.11          27.704
586.54        27.84389
586.98        27.73099
587.41          27.546
587.85        27.58616
588.28        27.34252
588.71        27.34483
589.15        27.26831
589.58        27.19088
590.01        27.19626
590.45        27.20144
590.88        27.28726
591.31        27.24905
591.75        27.15796
592.18         27.1406
592.61        27.15596
593.05        27.42589
593.48        27.48771
593.91        27.18792
594.35        27.46117
594.78        27.48002
595.21        27.57421
595.65         27.7731
596.08        28.12776
596.51        28.33991
596.94         28.2994
597.38        28.43836
597.81        28.75621
598.24        28.98108
598.68        29.02803
599.11        29.43274
599.54        29.77307
599.97        29.40965
600.41        30.14319
600.84        30.19867
601.27        30.59943
601.70        30.87218
602.14        31.31238
602.57        31.66023
603.00        32.03691
603.43        31.89403
603.87        32.52226
604.30        32.97484
604.73        33.62214
605.16        33.62652
605.60        34.10463
606.03        34.18885
606.46        34.24259
606.89        34.77166
607.32        35.65278
607.76        35.71637
608.19        36.19389
608.62        36.37981
609.05        36.59587
609.48        36.87965
609.92        37.67714
610.35        37.76866
610.78        37.60035
611.21        38.03409
611.64        38.30108
612.07        38.76398
612.50        38.89844
612.94        39.30079
613.37        39.50524
613.80        39.57486
614.23        39.49879
614.66        39.73201
615.09        40.25517
615.52         40.6105
615.96        40.74202
616.39        41.05631
616.82        41.29676
617.25        41.43851
617.68        41.47389
618.11        41.78493
618.54         42.3001
618.97         42.5733
619.40        42.61578
619.84        42.65526
620.27        42.86687
620.70        43.01191
621.13        43.08755
621.56        42.88634
621.99        42.51728
622.42        42.46324
622.85        42.76182
623.28        42.89087
623.71        43.22272
624.14        43.24893
624.57        43.46823
625.00         43.2631
625.43        43.41434
625.86        43.34946
626.29        43.33232
626.72        42.85948
627.15         43.0448
627.58        42.95666
628.01        42.85602
628.44        42.70391
628.87        42.50781
629.30         42.1499
629.73        41.63623
630.16        41.70145
630.59        41.24373
631.02        41.13283
631.45        41.00053
631.88        40.81805
632.31        40.55709
632.74        40.24359
633.17        39.89986
633.60         39.5311
634.03        39.15072
634.46        38.75455
634.89         38.3465
635.32        37.94407
635.75        37.55519
636.18        37.14045
636.61        36.72619
637.04        36.37043
637.47        36.07423
637.89        35.81993
638.32        35.56149
638.75        35.24953
639.18        34.87587
639.61        34.50513
640.04        34.10437
640.47        33.80355
640.90        33.59327
641.33        33.45963
641.76        33.37199
642.18        33.25635
642.61        33.08257
643.04        32.92717
643.47        32.83589
643.90        32.59582
644.33        32.67082
644.76        32.68097
645.18        32.72987
645.61         32.7485
646.04        32.73282
646.47        32.70288
646.90        32.69347
647.33        32.76188
647.75        32.91026
648.18        33.15945
648.61        33.49637
649.04        33.76135
649.47        33.90686
649.89         34.5069
650.32        34.65658
650.75         34.9751
651.18        35.22117
651.61         35.6987
652.03        36.37332
652.46        36.73438
652.89        36.82499
653.32        37.35815
653.74        38.14679
654.17        38.24187
654.60         38.6852
655.03        38.81271
655.46        38.70025
655.88        39.28399
656.31        40.33679
656.74        37.84188
657.16        41.29721
657.59        45.70459
658.02        42.95331
658.45        42.54146
658.87        42.48121
659.30        43.03205
659.73        42.94459
660.15        43.85593
660.58        43.57519
661.01        43.86148
661.44        44.21852
661.86        44.25282
662.29        44.04309
662.72        44.57444
663.14        44.96339
663.57        45.26471
664.00        45.25873
664.42        45.47325
664.85        45.92556
665.27        46.34564
665.70        46.63882
666.13        46.81757
666.55        46.87323
666.98         46.7621
667.41         46.5648
667.83        46.71252
668.26        46.75551
668.69        47.05242
669.11        47.40111
669.54        47.70245
669.96         47.9243
670.39        48.09324
670.82        48.23621
671.24        48.37735
671.67        48.52473
672.09        48.64507
672.52        48.75157
672.94        48.86156
673.37          48.972
673.80        49.03636
674.22        49.07722
674.65        49.14262
675.07        49.24997
675.50          49.361
675.92        49.46369
676.35         49.5416
676.77        49.59453
677.20        49.62997
677.62        49.67088
678.05        49.75339
678.47        49.87973
678.90        50.03474
679.32        50.20116
679.75        50.35252
680.17        50.47445
680.60        50.60674
681.02        50.73107
681.45        50.75666
681.87         50.7273
682.30        50.76631
682.72        50.89809
683.15        51.06083
683.57        51.23145
684.00        51.32869
684.42        51.37293
684.85        51.49379
685.27        51.68532
685.70        51.86628
686.12        51.99773
686.54        52.07539
686.97        52.09113
687.39        52.05534
687.82        51.99204
688.24        51.95728
688.66        51.96685
689.09        52.00765
689.51        52.08728
689.94        52.18878
690.36        52.30912
690.78        52.43855
691.21        52.57195
691.63         52.6924
692.06        52.79892
692.48        52.90616
692.90        52.99099
693.33         53.0232
693.75        53.00121
694.17        52.90796
694.60        52.83226
695.02        52.92016
695.44        53.16892
695.87        53.55709
696.29        53.94558
696.71        53.92419
697.14        53.57853
697.56        53.42863
697.98        53.51939
698.41        53.73168
698.83        53.64491
699.25        53.87811
699.68         54.2049
700.10        54.36895
700.52         54.3105
700.94        54.12576
701.37           53.93
701.79        53.90194
702.21        54.07918
702.64        54.38567
703.06        54.73133
703.48        54.95951
703.90         55.0218
704.33        54.96801
704.75        54.85084
705.17        54.74641
705.59        54.69429
706.01        54.67628
706.44        54.69476
706.86        54.78339
707.28        54.93167
707.70        55.09318
708.12        55.26706
708.55        55.52278
708.97        55.80761
709.39        55.91494
709.81        55.84604
710.23        55.81055
710.66        55.82399
711.08        55.77548
711.50        55.67125
711.92        55.59605
712.34        55.56666
712.76        55.57826
713.19        55.61457
713.61        55.67501
714.03        55.74328
714.45        55.82264
714.87        55.94078
715.29        56.14344
715.71        56.42579
716.13        56.75297
716.56        57.04113
716.98        57.23491
717.40        57.27839
717.82        57.18205
718.24        56.98013
718.66        56.77903
719.08        56.60056
719.50        56.34774
719.92        56.09318
720.34        56.03711
720.76        56.19607
721.19        56.45878
721.61        56.79518
722.03        57.13654
722.45        57.43008
722.87        57.67195
723.29        57.81153
723.71        57.77809
724.13        57.57836
724.55        57.25018
724.97        56.89267
725.39        56.67529
725.81        56.64934
726.23         56.7546
726.65        56.94719
727.07        57.27419
727.49        57.49097
727.91        57.77457
728.33        58.02884
728.75        58.20163
729.17        58.27427
729.59        58.24968
730.01         58.1628
730.43        58.07366
730.85        58.00773
731.27        57.96686
731.69        57.93716
732.10        57.87862
732.52        57.78895
732.94        57.70288
733.36        57.63512
733.78        57.55962
734.20        57.48639
734.62        57.49979
735.04        57.63872
735.46        57.59006
735.88         57.9376
736.30        58.17343
736.72        58.44945
737.13        58.68875
737.55        58.81835
737.97        59.01837
738.39        59.19659
738.81        58.88634
739.23        58.24739
739.65        58.12944
740.06        58.51225
740.48        58.72406
740.90        58.72385
741.32          58.936
741.74        59.31733
742.16        59.53625
742.57        59.54568
742.99        59.46928
743.41        59.34212
743.83        59.09473
744.25        58.81156
744.67        58.72163
745.08         58.8338
745.50        58.91658
745.92        58.95702
746.34        59.09261
746.75        59.27721
747.17        59.34525
747.59        59.28529
748.01         59.1579
748.42        59.01047
748.84         58.9254
749.26        58.95223
749.68        59.02257
750.09        59.11568
750.51        59.38885
750.93        59.69519
751.35        59.53048
751.76         58.9996
752.18        58.74776
752.60         58.8218
753.01        58.88309
753.43        58.87596
753.85        58.89319
754.27        58.92517
754.68        58.96128
755.10        59.00928
755.52        59.07439
755.93        59.15023
756.35         59.2275
756.77        59.34938
757.18        59.47009
757.60        59.56997
758.02        59.85571
758.43        60.28307
758.85        59.74693
759.26        60.00731
759.68        59.58569
760.10        59.11304
760.51        59.14218
760.93        59.56358
761.34        59.36751
761.76        59.97397
762.18        60.10831
762.59        60.22994
763.01        60.26788
763.42        60.30345
763.84        60.27064
764.26        60.18034
764.67        60.12755
765.09        60.13358
765.50        59.91358
765.92        59.60178
766.33        59.71232
766.75        60.10751
767.16        60.12686
767.58        59.72473
768.00         59.5004
768.41        59.56947
768.83        59.68276
769.24        59.79361
769.66        60.07087
770.07        60.38977
770.49        60.19799
770.90        59.71111
771.32         60.0564
771.73        61.07771
772.15        61.44512
772.56        61.08698
772.97        60.71504
773.39         60.4901
773.80        60.36648
774.22        60.37905
774.63        60.58192
775.05        60.83909
775.46        60.99258
775.88        60.96789
776.29        60.83217
776.70        60.66636
777.12        60.62431
777.53        60.75094
777.95        60.95768
778.36        61.18271
778.77         61.2942
779.19        61.27192
779.60        61.17838
780.02        61.03842
780.43        60.94711
780.84        60.94736
781.26         60.8001
781.67        60.61267
782.09        61.00185
782.50        61.75915
782.91        61.79774
783.33        61.16873
783.74        60.93383
784.15        61.13852
784.57        61.15576
784.98         61.0207
785.39        61.06953
785.81        61.30971
786.22        61.65314
786.63        61.98679
787.04        62.12933
787.46        62.05841
787.87        61.81785
788.28        61.54942
788.70        61.44694
789.11        61.53923
789.52        61.80135
789.93        62.11613
790.35        62.27972
790.76        62.23705
791.17         62.0248
791.58        61.78946
792.00        61.65601
792.41         61.6701
792.82        62.06378
793.23        62.58048
793.65        62.21452
794.06        61.27545
794.47        61.23128
794.88        61.90373
795.29        62.80012
795.71        62.07908
796.12        62.08973
796.53        62.35079
796.94        62.44693
797.35        62.38485
797.76        62.48914
798.18        62.72396
798.59         62.8361
799.00        62.79087
799.41        62.70176
799.82         62.6244
800.23        62.60997
800.64         62.6748
801.06        62.77701
801.47        62.88811
801.88        62.87872
802.29        62.71747
802.70         62.4326
803.11        62.11489
803.52        61.91561
803.93         61.8975
804.34        62.03423
804.75        62.23161
805.17        62.43003
805.58        62.64265
805.99        62.52533
806.40        62.22149
806.81        62.81405
807.22        63.94595
807.63        63.64204
808.04        62.14537
808.45        61.55165
808.86        62.01684
809.27        62.39819
809.68        62.53168
810.09        62.68505
810.50          62.803
810.91        62.80402
811.32        62.78244
811.73        62.89405
812.14        63.16525
812.55        63.55523
812.96        63.92999
813.37        64.03666
813.78        63.81504
814.19        63.37007
814.60        62.86246
815.01        62.49945
815.42         62.3319
815.83        62.30833
816.24        62.37069
816.65        62.40696
817.05        62.38506
817.46        62.32267
817.87        62.27959
818.28         62.2965
818.69        62.38423
819.10        62.51042
819.51        62.66979
819.92        62.86059
820.33        63.06345
820.74        63.26983
821.14        63.43861
821.55        63.50143
821.96        63.44973
822.37        63.30318
822.78        63.11689
823.19        62.98754
823.60        62.94776
824.00        62.99921
824.41        63.06391
824.82        63.10039
825.23        63.08213
825.64        63.02403
826.04        62.95646
826.45         62.8909
826.86        62.84797
827.27        62.83075
827.68        62.80713
828.08        62.74988
828.49        62.60969
828.90        62.41336
829.31        62.25303
829.72        62.27725
830.12         62.5341
830.53        62.93527
830.94        63.32928
831.35        63.41362
831.75        63.13454
832.16        62.56431
832.57        61.94524
832.97        61.64233
833.38        61.74517
833.79         62.1256
834.20        62.61818
834.60        62.95955
835.01        63.07368
835.42        63.07802
835.82         63.0327
836.23        62.96646
836.64        62.94057
837.04         62.9066
837.45        62.95976
837.86        63.32283
838.26        64.03024
838.67        64.97264
839.08        65.86495
839.48        66.15392
839.89        65.69984
840.29        64.69912
840.70        63.60743
841.11        62.92157
841.51        62.78267
841.92        63.03117
842.33        63.51654
842.73        63.97206
843.14        64.19044
843.54        64.29434
843.95        64.32957
844.35        64.41428
844.76        64.55944
845.17        64.71695
845.57         64.8043
845.98        64.67909
846.38        64.34463
846.79        63.84417
847.19        63.35105
847.60         63.1154
848.00        63.20177
848.41        63.52298
848.81        63.91426
849.22        64.01783
849.62        63.78731
850.03        63.31801
850.43        62.81765
850.84        62.56061
851.24         62.6692
851.65        63.00194
852.05        63.51592
852.46        64.02239
852.86        64.42419
853.27        64.75695
853.67        64.93329
854.07        64.94147
854.48        64.76974
854.88        64.43956
855.29        63.97794
855.69        63.57504
856.10        63.24254
856.50        63.03107
856.90        62.89216
857.31         62.7428
857.71        62.61016
858.12        62.46208
858.52        62.37293
858.92         62.3583
859.33        62.39708
859.73        62.50532
860.13        62.57884
860.54        62.47282
860.94        62.20531
861.34        61.82017
861.75        61.43003
862.15        61.26027
862.55        61.34681
862.96        61.58321
863.36         61.9421
863.76        62.29346
864.17        62.55931
864.57        62.80615
864.97        62.90938
865.38        62.68633
865.78        62.16315
866.18        61.38681
866.58        60.63392
866.99        60.39877
867.39        60.81617
867.79        61.71942
868.19        62.79187
868.60        63.53013
869.00        63.81759
869.40        63.74924
869.80        63.45924
870.21        63.21989
870.61         63.1941
871.01        63.25423
871.41        63.26366
871.81         63.0329
872.22        62.52894
872.62        61.82685
873.02         61.1385
873.42        60.80154
873.82        60.90051
874.22        61.33176
874.63         61.8193
875.03          61.945
875.43         61.6013
875.83        60.92491
876.23        60.18933
876.63        59.81673
877.03        59.91563
877.44        60.33365
877.84        60.86961
878.24        61.21182
878.64        61.20639
879.04        60.79398
879.44        60.25242
879.84        60.12289
880.24        60.46709
880.64        61.07435
881.04        61.59254
881.44        61.48339
881.84        60.65826
882.24        59.34968
882.65        58.01999
883.05        57.36762
883.45        57.57423
883.85        58.43291
884.25        59.62595
884.65        60.59904
885.05        61.13768
885.45        61.37342
885.85        61.42922
886.25        61.50711
886.65        61.67127
887.05        61.82925
887.45        61.91316
887.85         61.8461
888.25         61.6124
888.65        61.26534
889.04        60.89484
889.44        60.63973
889.84        60.52474
890.24        60.53241
890.64        60.56396
891.04        60.45625
891.44        60.18774
891.84        59.82141
892.24        59.50603
892.64        59.45795
893.04        59.71779
893.44        60.22075
893.83        60.82374
894.23         61.2409
894.63        61.40455
895.03        61.35821
895.43        61.24721
895.83        61.32507
896.23        61.63055
896.63        62.05637
897.02        62.39185
897.42        62.33253
897.82        61.83255
898.22         61.0609
898.62        60.21404
899.01        59.56441
899.41        59.21346
899.81         59.0597
900.21        59.10489
900.61        59.34864
901.00         59.7401
901.40        60.26936
901.80        60.75545
902.20        60.89841
902.59        60.66033
902.99        60.12456
903.39        59.51257
903.79        59.20352
904.18        59.28587
904.58        59.62952
904.98         60.1281
905.38        60.62281
905.77        61.04607
906.17        61.47611
906.57        61.78439
906.96        61.75622
907.36        61.36728
907.76        60.68134
908.15        60.03518
908.55        59.95627
908.95        60.54921
909.34        61.66416
909.74        62.86202
910.14        63.48068
910.53        63.31279
910.93        62.58881
911.33        61.59388
911.72        60.76541
912.12        60.31274
912.52        60.10839
912.91        60.07652
913.31        60.12235
913.70        60.19946
914.10        60.31662
914.49        60.53915
914.89        60.87524
915.29        61.31825
915.68        61.84186
916.08        62.21849
916.47        62.15788
916.87        61.64464
917.26        60.77194
917.66        59.91842
918.05        59.52363
918.45        59.67561
918.84        60.27959
919.24        61.01783
919.64        61.44296
920.03        61.42713
920.42        61.08847
920.82        60.67661
921.21        60.52642
921.61        60.71386
922.00         61.1463
922.40        61.65699
922.79        62.08972
923.19        62.32972
923.58        62.44582
923.98        62.46212
924.37        62.35924
924.77        62.17106
925.16        61.85581
925.55        61.49816
925.95        61.24042
926.34        61.13749
926.74        61.15356
927.13        61.16145
927.52        60.87842
927.92        60.31862
928.31        59.58706
928.70         58.9197
929.10        58.64433
929.49        58.81172
929.89        59.25127
930.28        59.90659
930.67        60.57169
931.07        61.11327
931.46        61.65926
931.85        61.97701
932.24        61.74692
932.64        61.00665
933.03        59.82798
933.42        58.75493
933.82        58.58706
934.21        59.46044
934.60        61.19745
934.99        63.16815
935.39        64.21454
935.78        64.02845
936.17        62.83686
936.56        61.28836
936.96        60.42116
937.35        60.50484
937.74        61.24018
938.13        62.06752
938.53        62.12134
938.92        61.23406
939.31        59.76943
939.70        58.28576
940.09        57.55257
940.49        57.71626
940.88        58.55102
941.27        59.68614
941.66        60.45497
942.05        60.62361
942.44        60.40362
942.84        60.04155
943.23        59.91113
943.62         60.1301
944.01        60.52737
944.40        61.00089
944.79        61.42527
945.18        61.71734
945.57        61.90693
945.97        61.91275
946.36        61.68382
946.75        61.20918
947.14        60.58862
947.53        59.91137
947.92        59.29268
948.31        58.79051
948.70        58.37627
949.09         58.1945
949.48        58.47684
949.87        59.22503
950.26        60.34422
950.65        61.47267
951.04        62.01587
951.43        61.81256
951.82        61.00518
952.21        59.93757
952.60        59.19233
952.99        58.96505
953.38        59.13836
953.77        59.49494
954.16        59.68317
954.55        59.60112
954.94        59.32879
955.33        59.10392
955.72        59.31857
956.11        60.03802
956.50        61.11722
956.89        62.08854
957.28        62.19537
957.66        61.29124
958.05         59.7027
958.44        58.02941
958.83        57.11852
959.22        57.15208
959.61        57.89386
960.00        58.96049
960.39        59.62729
960.78        59.63294
961.16        59.19063
961.55         58.6117
961.94        58.28146
962.33        58.32037
962.72        58.61974
963.11        59.01846
963.49         59.2682
963.88        59.21296
964.27        58.93508
964.66        58.70005
965.04         58.9199
965.43        59.60534
965.82        60.67795
966.21        61.66121
966.60        61.65885
966.98        60.47364
967.37        58.54761
967.76        56.61251
968.15        55.56533
968.53        55.58281
968.92        56.43605
969.31        57.74435
969.69         58.7202
970.08        58.97147
970.47        58.71452
970.86        58.35573
971.24        58.49982
971.63        59.27625
972.02         60.4874
972.40        61.70018
972.79        61.88729
973.17        60.86437
973.56        59.04177
973.95        57.13738
974.33        56.02634
974.72        55.89063
975.11        56.48876
975.49        57.45278
975.88        58.02007
976.26        57.95518
976.65        57.41666
977.04        56.75511
977.42         56.4837
977.81        56.68599
978.19        57.17204
978.58        57.72641
978.96        57.97335
979.35        57.79627
979.74        57.35054
980.12        56.90087
980.51        56.69769
980.89        56.94392
981.28        57.48206
981.66        58.18307
982.05          58.849
982.43         59.4304
982.82          59.949
983.20        60.51542
983.59        61.22671
983.97        62.13385
984.35        63.12539
984.74        63.84787
985.12        63.98549
985.51        63.42208
985.89        62.34325
986.28        61.16809
986.66        60.42201
987.04        60.29434
987.43        60.60597
987.81        61.17236
988.20        61.51676
988.58        61.49027
988.96        61.19171
989.35          60.714
989.73        60.18723
990.12        59.64837
990.50        59.06409
990.88        58.44933
991.27        57.89277
991.65        57.46071
992.03         57.1955
992.42        57.13251
992.80        57.26447
993.18        57.60579
993.56        58.14171
993.95        58.76645
994.33        59.47237
994.71        60.07839
995.10        60.58564
995.48        60.93443
995.86        61.18027
996.24        61.35155
996.63        61.31985
997.01        61.20452
997.39        60.96517
997.77        60.62197
998.15        60.27929
998.54        59.94982
998.92        59.50163
999.30        58.99532
999.68        58.49141
1000.06        58.21701
1000.45        58.43068
1000.83        59.25054
1001.21        60.62763
1001.59        62.27753
1001.97        63.44391
1002.35        63.80069
1002.73        63.53027
1003.12        63.06969
1003.50          62.864
1003.88        63.12156
1004.26        63.60486
1004.64        64.21915
1005.02        64.73029
1005.40        65.01479
1005.78         65.3165
1006.16        65.30073
1006.54        64.42332
1006.92        62.75092
1007.30         60.4578
1007.69        58.58815
1008.07        58.47548
1008.45        60.49158
1008.83        64.39462
1009.21        68.88887
1009.59        70.85136
1009.97        69.00024
1010.35        64.35172
1010.73        58.84159
1011.11        55.18014
1011.49        54.00533
1011.86        54.47111
1012.24        55.78202
1012.62        56.91619
1013.00        57.58146
1013.38        58.11694
1013.76        58.69234
1014.14        59.48854
1014.52        60.46296
1014.90        61.31075
1015.28        61.73685
1015.66        61.50747
1016.04        60.65536
1016.41        59.35978
1016.79        57.96472
1017.17        57.13817
1017.55        57.10155
1017.93        57.63665
1018.31        58.52003
1018.69        59.43764
1019.06        60.29141
1019.44        61.20923
1019.82        61.94301
1020.20        61.94638
1020.58        61.07037
1020.95        59.41663
1021.33        57.75927
1021.71        56.85844
1022.09        56.82816
1022.46        57.71012
1022.84         58.8816
1023.22         58.8844
1023.60        57.31168
1023.97        54.55941
1024.35        52.36784
1024.73        52.65534
