SpectraSmart Spectrum 2.9.0.0
--------- Device Information -----------
Spectrum Name :  反射率_0
Saving Time :  2024/04/26 22:11:53
Spectro-Module Model Name : SE2030-DUVN
Spectro-Module Serial Number : OS361AC55029948
Wavelength Start : 200
Wavelength End : 1025
Wavelength Unit : Wavelength(nm)
Spectrum Unit : Reflectance(%)
-----------Spectrum Setting ------------
Integration Time : 20ms
Average : 10
Boxcar : 0
Background removal :  enabled
linearity correction :  enabled
SC :  disabled
Intensity correction :  disabled
DWT denoise :  enabled
savitzky-golay :  disabled
FFT :  disabled
Running average :  disabled
Kalman :  disabled
High pass :  disabled
---------------BEGIN--------------------
Wavelength(nm)             Reflectance(%)
200.29               0
200.75        38.42376
201.21        34.93055
201.67         32.6944
202.13        32.38771
202.58        33.83052
203.04        37.50302
203.50        42.73946
203.96         46.3301
204.42        45.95233
204.88        41.44447
205.34         35.1782
205.80        32.45029
206.26        34.33866
206.72        38.58512
207.18        42.31054
207.64        42.89498
208.10        40.11378
208.55        34.57535
209.01        26.39402
209.47        21.47915
209.93        23.66971
210.39         28.9718
210.85         34.4147
211.31        39.84502
211.77        47.17695
212.23        61.49848
212.69        94.89688
213.14        147.4215
213.60        139.2224
214.06        97.58444
214.52        71.35751
214.98        61.08879
215.44        58.41502
215.90        58.35494
216.36        60.31141
216.81        63.97437
217.27        69.50713
217.73        79.51374
218.19        90.90958
218.65        88.99732
219.11        72.76373
219.57        53.88643
220.02        42.07151
220.48        41.05279
220.94        49.29526
221.40        67.44794
221.86        94.87998
222.32        113.3193
222.77        106.9094
223.23        87.85681
223.69        68.68622
224.15        56.41476
224.61        50.10872
225.06        46.36801
225.52        45.09419
225.98        46.34064
226.44        49.50425
226.90        54.48309
227.36        59.34693
227.81        60.56532
228.27        57.86152
228.73         52.6415
229.19        47.49364
229.65        45.38058
230.10        46.44396
230.56        49.62481
231.02        53.23165
231.48        54.57463
231.93         53.1511
232.39        50.42089
232.85        47.67849
233.31        46.58047
233.77        47.31779
234.22        49.18067
234.68         51.5571
235.14        53.67717
235.60        55.22953
236.05        56.59876
236.51        57.51159
236.97        57.42892
237.43        56.27188
237.88         54.0855
238.34        51.78733
238.80        51.24403
239.26        53.15267
239.71        58.01303
240.17        64.90881
240.63        70.67352
241.08        73.15705
241.54        71.82012
242.00        69.10215
242.46        70.72475
242.91        80.58264
243.37        100.4393
243.83        131.4091
244.28        160.2884
244.74        165.8324
245.20         146.723
245.66        119.4343
246.11        99.61841
246.57        88.57494
247.03         81.7229
247.48        76.08483
247.94        68.75808
248.40         61.2911
248.85        55.81699
249.31        52.66347
249.77        51.01112
250.22        50.19822
250.68        49.85131
251.14        50.21536
251.59        51.96175
252.05        55.07871
252.51        58.94064
252.96        61.54774
253.42        61.74215
253.88        60.00932
254.33        56.90363
254.79        54.95211
255.25        56.02398
255.70        59.76484
256.16           65.34
256.62        70.02868
257.07        69.83556
257.53        66.00078
257.99        61.03484
258.44         56.9188
258.90        55.55145
259.35        55.98394
259.81         57.5432
260.27        59.00345
260.72        58.95359
261.18        57.62372
261.63        55.47203
262.09        53.59206
262.55        52.64808
263.00        52.49987
263.46         52.8974
263.91         53.1255
264.37        52.58495
264.83        51.23991
265.28        49.40764
265.74        47.73245
266.19        46.71019
266.65        46.45082
267.11        46.62741
267.56        46.91843
268.02        46.82636
268.47          46.215
268.93        45.30946
269.38        44.20474
269.84        43.09491
270.30        42.05423
270.75        41.00458
271.21        40.10434
271.66        39.54439
272.12        39.32893
272.57        39.37793
273.03        39.42196
273.48        39.00294
273.94         38.0988
274.39        36.84961
274.85        35.59575
275.31        34.67757
275.76        34.13776
276.22        33.86841
276.67        33.70712
277.13        33.51816
277.58        33.19195
278.04        32.80596
278.49        32.29972
278.95        31.69282
279.40        30.96855
279.86         30.2199
280.31        29.45036
280.77        28.77503
281.22        28.18462
281.68        27.70145
282.13        27.33403
282.59        27.17078
283.04        27.16569
283.50        27.30503
283.95        27.43996
284.41        27.34904
284.86        26.99192
285.32        26.46347
285.77        25.91718
286.22        25.63232
286.68        25.64931
287.13        25.84365
287.59        26.07727
288.04        26.09379
288.50        25.86265
288.95        25.45323
289.41         24.9954
289.86        24.61215
290.32        24.37576
290.77        24.23141
291.22        24.16169
291.68         24.1296
292.13          24.117
292.59        24.16205
293.04        24.28484
293.50        24.52873
293.95        24.88731
294.40        25.33842
294.86        25.84383
295.31        26.34145
295.77        26.81727
296.22        27.27394
296.68        27.73186
297.13        28.21278
297.58        28.72698
298.04        29.26143
298.49        29.80306
298.95        30.35019
299.40         30.8866
299.85        31.41357
300.31        31.91604
300.76        32.36063
301.21         32.7452
301.67        33.09038
302.12        33.39613
302.58        33.72111
303.03        34.04983
303.48        34.38647
303.94        34.72096
304.39        35.00354
304.84        35.23766
305.30        35.44581
305.75        35.62177
306.20        35.81114
306.66        36.02638
307.11          36.235
307.57        36.42348
308.02         36.5236
308.47        36.53776
308.93        36.49665
309.38        36.42211
309.83        36.39551
310.29        36.43263
310.74        36.50309
311.19        36.56604
311.65        36.55012
312.10        36.43191
312.55        36.23352
313.00        36.00074
313.46        35.79853
313.91         35.6304
314.36         35.4888
314.82        35.33307
315.27        35.11084
315.72        34.81416
316.18        34.47712
316.63        34.14578
317.08        33.90312
317.53        33.76176
317.99        33.68582
318.44        33.62892
318.89        33.50474
319.35        33.28841
319.80         33.0056
320.25        32.68484
320.70        32.37296
321.16        32.08671
321.61        31.82475
322.06         31.5787
322.51        31.34054
322.97        31.10135
323.42         30.8647
323.87        30.64708
324.32         30.4765
324.78        30.34153
325.23         30.2519
325.68        30.12562
326.13        29.84046
326.59         29.3819
327.04        28.80162
327.49        28.22999
327.94        27.87136
328.39        27.76275
328.85        27.83508
329.30        27.97605
329.75         27.9261
330.20        27.61136
330.66        27.10403
331.11        26.54255
331.56        26.12652
332.01        25.91485
332.46        25.84244
332.92        25.82153
333.37        25.74685
333.82         25.5633
334.27         25.3189
334.72        25.05482
335.17        24.82881
335.63        24.66321
336.08        24.55309
336.53        24.48093
336.98        24.43307
337.43        24.39963
337.88        24.37356
338.34        24.36867
338.79        24.43193
339.24        24.54745
339.69        24.69236
340.14        24.77957
340.59        24.67651
341.05        24.37502
341.50        23.92736
341.95         23.4507
342.40        23.12161
342.85        22.98637
343.30        22.99348
343.75        23.08111
344.20         23.1446
344.66        23.14789
345.11        23.12164
345.56        23.07014
346.01        22.99842
346.46        22.91981
346.91        22.83217
347.36        22.75661
347.81        22.73511
348.26        22.77276
348.72        22.85152
349.17        22.95557
349.62        23.06996
350.07        23.17745
350.52          23.278
350.97        23.32595
351.42        23.25129
351.87        23.05343
352.32        22.76529
352.77        22.46679
353.22        22.27426
353.67        22.21411
354.13        22.25708
354.58        22.35139
355.03        22.40949
355.48        22.40129
355.93        22.35157
356.38        22.28526
356.83        22.24052
357.28        22.22494
357.73        22.21662
358.18        22.19747
358.63        22.14509
359.08        22.05377
359.53        21.93512
359.98        21.79848
360.43         21.6541
360.88        21.50458
361.33        21.34482
361.78        21.17828
362.23        21.01225
362.68        20.85106
363.13        20.70114
363.58        20.55291
364.03        20.38604
364.48        20.20203
364.93        20.01233
365.38        19.84644
365.83        19.75257
366.28        19.73785
366.73        19.77804
367.18        19.84133
367.63        19.88018
368.08        19.87307
368.53        19.82622
368.98        19.73539
369.43        19.59619
369.88        19.41472
370.33         19.1978
370.78        18.96531
371.23        18.75239
371.68        18.57752
372.13        18.44205
372.58          18.352
373.03        18.30914
373.48        18.30562
373.93        18.33266
374.38        18.36769
374.83        18.37641
375.28        18.34411
375.72        18.26802
376.17        18.16358
376.62        18.03448
377.07        17.89114
377.52        17.74215
377.97        17.59842
378.42        17.47954
378.87        17.39301
379.32        17.32976
379.77        17.30177
380.22        17.32428
380.67        17.38928
381.11        17.49423
381.56        17.57187
382.01        17.52708
382.46        17.34892
382.91         17.0798
383.36        16.80462
383.81        16.64146
384.26        16.61057
384.71        16.67269
385.15        16.77727
385.60        16.84114
386.05        16.83261
386.50         16.7781
386.95         16.6882
387.40        16.58025
387.85        16.46711
388.29        16.33345
388.74        16.21423
389.19        16.12195
389.64        16.05648
390.09        16.01215
390.54        15.97418
390.98        15.91194
391.43        15.83115
391.88        15.74243
392.33        15.65543
392.78        15.58352
393.23        15.52929
393.67        15.47656
394.12        15.44392
394.57        15.42898
395.02        15.42695
395.47        15.43174
395.91        15.42728
396.36        15.37691
396.81        15.28732
397.26        15.17727
397.71        15.06632
398.15        14.99211
398.60        14.97888
399.05        14.94787
399.50         14.9122
399.95        15.00206
400.39        15.16427
400.84        15.12961
401.29        14.90648
401.74        14.74621
402.18        14.66839
402.63        14.52397
403.08        14.35189
403.53        14.27784
403.97        14.31175
404.42        14.41871
404.87        14.54086
405.32        14.58105
405.76        14.51368
406.21        14.37617
406.66        14.21764
407.11        14.11711
407.55        14.09874
408.00        14.12979
408.45        14.17955
408.90         14.1883
409.34        14.13686
409.79        14.05074
410.24        13.95406
410.68        13.87222
411.13        13.81653
411.58        13.77517
412.03        13.73936
412.47        13.69992
412.92        13.65088
413.37        13.60283
413.81        13.56105
414.26        13.54177
414.71        13.54198
415.15         13.5594
415.60        13.57936
416.05        13.58889
416.49        13.58311
416.94        13.56158
417.39        13.53321
417.83         13.5111
418.28        13.49748
418.73        13.48893
419.17          13.477
419.62        13.44823
420.07        13.40245
420.51          13.343
420.96        13.28686
421.41         13.2571
421.85        13.25038
422.30        13.25123
422.74        13.23957
423.19         13.2468
423.64        13.24766
424.08        13.17148
424.53        13.02983
424.98        12.94767
425.42        12.94724
425.87        12.93161
426.31         12.9077
426.76        12.98061
427.21        13.10754
427.65        13.10342
428.10        12.98538
428.54        12.91706
428.99         12.9125
429.44        12.92167
429.88        12.92206
430.33        12.83148
430.77        12.69303
431.22        12.73573
431.66        12.92753
432.11        12.99123
432.56        12.91258
433.00        12.88081
433.45        12.85729
433.89        12.69013
434.34        12.48843
434.78        12.18408
435.23        12.45816
435.67        12.49596
436.12        12.46646
436.57        12.40929
437.01        12.34842
437.46        12.32867
437.90        12.34912
438.35        12.35677
438.79        12.34501
439.24        12.34791
439.68        12.36504
440.13        12.38713
440.57        12.40141
441.02         12.4008
441.46        12.38292
441.91        12.31938
442.35        12.23411
442.80        12.27956
443.24        12.40639
443.69        12.39742
444.13        12.26298
444.58        12.21583
445.02        12.25914
445.47        12.27296
445.91        12.25427
446.36        12.25861
446.80        12.28212
447.24        12.30961
447.69         12.3288
448.13        12.31468
448.58        12.26755
449.02        12.19653
449.47        12.12271
449.91        12.07285
450.36        12.05737
450.80        12.06535
451.25        12.08829
451.69        12.10572
452.13        12.11152
452.58        12.10865
453.02        12.09736
453.47        12.07981
453.91        12.05772
454.36        12.03251
454.80        12.00024
455.24        11.95461
455.69        11.90074
456.13        11.83344
456.58        11.78014
457.02        11.76095
457.46        11.78329
457.91         11.8391
458.35        11.88999
458.79        11.87692
459.24        11.80245
459.68        11.67973
460.13        11.56777
460.57        11.52308
461.01        11.56652
461.46         11.6666
461.90        11.79366
462.34        11.88599
462.79         11.9184
463.23        11.91293
463.68        11.87366
464.12        11.81707
464.56         11.7529
465.01        11.69244
465.45        11.63274
465.89        11.60346
466.34        11.60705
466.78        11.63525
467.22        11.68228
467.67        11.72374
468.11        11.75682
468.55         11.7801
468.99        11.79447
469.44        11.80142
469.88        11.80307
470.32        11.79834
470.77        11.79031
471.21         11.7877
471.65        11.79171
472.10        11.80321
472.54        11.81949
472.98        11.84024
473.42        11.86414
473.87        11.89487
474.31        11.92084
474.75        11.93651
475.20        11.94388
475.64        11.93942
476.08        11.93551
476.52        11.94519
476.97        11.97118
477.41        12.01593
477.85        12.07102
478.29        12.10364
478.74        12.11982
479.18        12.15797
479.62        12.21641
480.06        12.27242
480.50         12.3268
480.95        12.37353
481.39          12.404
481.83        12.52921
482.27        12.56222
482.72        12.64893
483.16        12.72959
483.60        12.77201
484.04        12.77339
484.48        12.82094
484.93        12.94125
485.37        12.89843
485.81        13.09605
486.25        13.25528
486.69        12.89474
487.14        13.17553
487.58        14.13187
488.02        13.99066
488.46        13.65094
488.90        13.66989
489.34        13.61644
489.79        13.81588
490.23        13.95574
490.67        14.17627
491.11        14.39518
491.55         14.4504
491.99        14.38703
492.43        14.41994
492.88        14.56969
493.32        14.69669
493.76        14.79466
494.20        14.93716
494.64        15.12637
495.08        15.30509
495.52        15.46383
495.96        15.68474
496.41        15.92572
496.85        15.97148
497.29        15.85518
497.73        15.95647
498.17        16.06903
498.61        16.19395
499.05        16.24969
499.49        16.31308
499.93        16.35368
500.37        16.51262
500.82        16.74802
501.26        16.91463
501.70        16.99481
502.14        17.06562
502.58        17.15199
503.02        17.25997
503.46        17.39544
503.90        17.55207
504.34        17.70397
504.78        17.80961
505.22        17.85845
505.66         17.8637
506.10        17.84944
506.54        17.85399
506.98        17.89054
507.42        17.95122
507.86        18.02554
508.30        18.09502
508.74        18.15419
509.18        18.20931
509.62        18.26924
510.06        18.34743
510.50        18.44425
510.94        18.55049
511.38        18.65206
511.82        18.72806
512.26        18.77378
512.70        18.79779
513.14        18.80884
513.58        18.82137
514.02        18.84173
514.46        18.86497
514.90         18.8957
515.34        18.94152
515.78        18.99942
516.22         19.0645
516.66        19.11994
517.10        19.13817
517.54         19.1144
517.98        19.05994
518.42        18.98843
518.86        18.92229
519.30        18.87198
519.74        18.83305
520.18        18.81147
520.62        18.81528
521.06        18.84208
521.50        18.88824
521.93        18.93763
522.37        18.95534
522.81        18.93577
523.25        18.88697
523.69         18.8219
524.13        18.76289
524.57        18.71597
525.01        18.67215
525.45        18.63075
525.89        18.59094
526.32        18.54873
526.76        18.51187
527.20        18.46787
527.64        18.39734
528.08        18.30044
528.52        18.18486
528.96        18.07388
529.40        18.00423
529.83        17.98148
530.27        17.99277
530.71        18.01442
531.15        18.00942
531.59        17.96796
532.03        17.90287
532.46        17.82158
532.90        17.74886
533.34         17.6903
533.78        17.62921
534.22         17.5729
534.66        17.55493
535.09        17.56205
535.53         17.5499
535.97        17.51109
536.41        17.47929
536.85        17.45449
537.28        17.41263
537.72        17.37035
538.16        17.36744
538.60        17.40969
539.04        17.48679
539.47        17.57296
539.91        17.63953
540.35        17.67678
540.79        17.69541
541.22        17.71792
541.66        17.78621
542.10        17.90478
542.54        18.05825
542.97        18.21798
543.41        18.34749
543.85        18.43618
544.29        18.50063
544.72        18.55701
545.16        18.64283
545.60        18.76511
546.04        18.91586
546.47        19.09136
546.91        19.28124
547.35        19.47459
547.79        19.67073
548.22        19.85945
548.66        20.02163
549.10        20.17808
549.53        20.32398
549.97        20.46156
550.41        20.54891
550.84        20.61113
551.28        20.70773
551.72        20.83279
552.15        20.99239
552.59        21.21103
553.03        21.17349
553.46        21.50332
553.90        21.62654
554.34        21.72444
554.77        21.80251
555.21         21.8816
555.65        21.97652
556.08        22.08317
556.52        22.18588
556.96        22.27043
557.39         22.3765
557.83        22.48443
558.27        22.46964
558.70        22.37109
559.14        22.38506
559.57        22.50883
560.01        22.62116
560.45         22.6988
560.88        22.77747
561.32        22.86307
561.75        22.92341
562.19        22.97465
562.63         23.0377
563.06        23.11251
563.50        23.19433
563.93        23.26189
564.37        23.34201
564.80        23.44245
565.24        23.50394
565.68        23.47742
566.11        23.79663
566.55        23.60923
566.98        23.62849
567.42        23.66013
567.85        23.77144
568.29        23.97637
568.72        24.26529
569.16        24.60304
569.60        24.82306
570.03         25.0051
570.47         25.1026
570.90        25.16566
571.34        25.29773
571.77        25.45906
572.21        25.66917
572.64        25.86449
573.08        26.05132
573.51        26.24013
573.95         26.3072
574.38        26.30645
574.82        26.56543
575.25        26.33688
575.69        26.44679
576.12         26.6232
576.56        26.70066
576.99        26.71552
577.42         26.5364
577.86        26.64001
578.29        26.86033
578.73        26.63012
579.16        26.77274
579.60        26.47189
580.03        26.56466
580.47        26.50278
580.90        26.57774
581.33        26.57653
581.77        26.62914
582.20        25.79189
582.64        26.06193
583.07        26.12179
583.51        26.21491
583.94         26.0478
584.37        25.75599
584.81        25.43947
585.24        25.21334
585.68        25.15758
586.11        24.95555
586.54         25.0404
586.98        24.84458
587.41        24.76042
587.85        24.64052
588.28        24.39885
588.71        24.48317
589.15        24.50338
589.58        24.33073
590.01        24.55335
590.45        24.64103
590.88        24.72803
591.31        24.59296
591.75        24.36467
592.18         24.1763
592.61        23.99562
593.05        24.85619
593.48        24.64697
593.91         24.6671
594.35        24.73242
594.78        24.69333
595.21        24.71541
595.65        24.95967
596.08        25.42032
596.51        25.58165
596.94        25.40717
597.38        25.46234
597.81         25.7245
598.24        26.23683
598.68        26.50147
599.11        26.52294
599.54        26.76626
599.97        26.78912
600.41        27.51812
600.84         27.7034
601.27        28.03707
601.70        28.33945
602.14        28.71188
602.57        29.11258
603.00        29.58978
603.43        29.58275
603.87        30.22438
604.30        30.62687
604.73        31.17488
605.16        31.08031
605.60        31.56401
606.03        31.74972
606.46        31.99719
606.89        32.41446
607.32        33.23275
607.76        33.43988
608.19        33.91706
608.62        34.16156
609.05        34.52678
609.48        34.80101
609.92        35.40684
610.35        35.84387
610.78        35.72024
611.21        35.92398
611.64        36.42899
612.07        36.91529
612.50        37.16861
612.94        37.44123
613.37        37.65781
613.80        37.81366
614.23        37.61158
614.66        37.87149
615.09        38.46626
615.52        38.90524
615.96        39.09539
616.39        39.60134
616.82        39.79411
617.25         39.9884
617.68        40.06348
618.11        40.29022
618.54        40.65925
618.97        41.00491
619.40        41.26281
619.84        41.46348
620.27        41.27818
620.70        41.44353
621.13        41.80419
621.56        41.74461
621.99        41.52204
622.42        41.47946
622.85        41.69299
623.28         41.7825
623.71        41.74352
624.14        41.81856
624.57         42.0461
625.00         41.9853
625.43        42.07007
625.86        42.05602
626.29        42.10905
626.72        41.79661
627.15        41.89476
627.58        41.77719
628.01        41.63273
628.44         41.4105
628.87         41.1186
629.30         40.7232
629.73        40.29654
630.16        40.10352
630.59        40.05571
631.02        39.94291
631.45        39.70468
631.88        39.46938
632.31        39.21792
632.74        38.84662
633.17        38.37151
633.60         37.8821
634.03        37.40064
634.46        36.90602
634.89         36.4087
635.32        35.93347
635.75        35.48891
636.18        35.04067
636.61        34.60475
637.04        34.21754
637.47        33.87558
637.89        33.56171
638.32        33.23854
638.75        32.88232
639.18        32.49099
639.61        32.07702
640.04        31.67532
640.47        31.33696
640.90        31.07249
641.33         30.8697
641.76        30.70125
642.18        30.52536
642.61        30.32424
643.04        30.11796
643.47        29.93497
643.90        29.81901
644.33        29.77986
644.76        29.80314
645.18        29.86375
645.61        29.91428
646.04         29.9471
646.47        29.97967
646.90        30.03763
647.33         30.1552
647.75         30.3308
648.18        30.58217
648.61        30.90634
649.04        31.18634
649.47        31.38504
649.89         31.9942
650.32         32.1662
650.75        32.55423
651.18         32.9167
651.61        33.31764
652.03        33.75519
652.46        34.23201
652.89        34.77046
653.32        35.18488
653.74        35.42402
654.17        36.03258
654.60        36.71482
655.03        36.56929
655.46        36.22893
655.88        37.06345
656.31        38.28394
656.74         37.1776
657.16        41.13437
657.59        45.56426
658.02        41.28421
658.45        40.76212
658.87        40.82852
659.30        40.99086
659.73        41.34244
660.15        42.34009
660.58         41.9988
661.01        42.17731
661.44        42.38366
661.86        42.55621
662.29        42.67761
662.72        43.27902
663.14        43.50769
663.57        43.77706
664.00         43.9058
664.42        44.22469
664.85        44.75213
665.27        45.30827
665.70        45.77142
666.13        46.07084
666.55         46.1829
666.98        46.08329
667.41         45.8728
667.83        46.01259
668.26        46.06286
668.69        46.37914
669.11        46.76657
669.54        47.06428
669.96        47.22546
670.39        47.57668
670.82        47.64655
671.24        47.79011
671.67        47.89035
672.09        47.95754
672.52        48.03943
672.94        48.26285
673.37        48.58332
673.80        48.72998
674.22        48.72503
674.65        48.80806
675.07         48.9994
675.50        49.13583
675.92        49.20466
676.35        49.25698
676.77        49.29779
677.20        49.31252
677.62        49.33823
678.05        49.43155
678.47        49.60043
678.90          49.837
679.32        50.08606
679.75         50.2687
680.17        50.35938
680.60        50.37984
681.02        50.38586
681.45        50.45087
681.87        50.60093
682.30        50.84348
682.72        51.11744
683.15        51.21243
683.57        51.16506
684.00        51.18609
684.42        51.29531
684.85        51.52639
685.27        51.57197
685.70        51.77575
686.12        52.00223
686.54        52.14766
686.97        52.19048
687.39        52.17548
687.82        52.12325
688.24        52.07265
688.66         52.0424
689.09        52.02386
689.51        52.04131
689.94        52.10452
690.36        52.21275
690.78        52.37187
691.21        52.58129
691.63        52.75256
692.06        52.86024
692.48        53.22772
692.90        53.27677
693.33        53.38426
693.75         53.3834
694.17        53.27856
694.60        53.16636
695.02        53.21864
695.44        53.44611
695.87         53.8172
696.29        54.20916
696.71        54.20926
697.14        53.89591
697.56        53.83516
697.98        54.05899
698.41        54.16999
698.83        54.16537
699.25        54.33367
699.68        54.59925
700.10        54.74287
700.52        54.72139
700.94         54.6076
701.37        54.49107
701.79        54.53511
702.21        54.76861
702.64        55.06984
703.06        55.45383
703.48        55.69252
703.90        55.76682
704.33        55.74932
704.75        55.69804
705.17        55.62025
705.59        55.52872
706.01        55.71792
706.44        55.64417
706.86        55.81515
707.28         56.0446
707.70        56.36745
708.12        56.70813
708.55        56.85558
708.97        56.83588
709.39        56.88038
709.81        57.00188
710.23        57.04076
710.66        57.00059
711.08        57.00531
711.50        57.03861
711.92        57.03318
712.34        56.99176
712.76        56.94832
713.19        56.91427
713.61        56.93637
714.03        57.01295
714.45        57.13276
714.87        57.29374
715.29        57.49824
715.71        57.73306
716.13        57.97765
716.56        58.18987
716.98        58.37981
717.40        58.50444
717.82        58.56927
718.24        58.55365
718.66        58.42722
719.08        58.21345
719.50         57.9529
719.92        57.72799
720.34        57.65886
720.76        57.77012
721.19        58.00428
721.61        58.34216
722.03        58.70161
722.45        59.03122
722.87        59.33521
723.29        59.54374
723.71        59.55258
724.13        59.35726
724.55        58.99465
724.97        58.58756
725.39        58.34624
725.81        58.32999
726.23        58.47124
726.65        58.68542
727.07        58.95795
727.49         59.0309
727.91        59.10998
728.33         59.1709
728.75        59.28351
729.17        59.45845
729.59        59.65893
730.01        59.83549
730.43        59.92421
730.85        59.91072
731.27        59.79562
731.69        59.63361
732.10        59.56154
732.52        59.57533
732.94        59.54442
733.36        59.48094
733.78        59.39872
734.20        59.28844
734.62        59.32639
735.04        59.58759
735.46        59.12459
735.88        59.69704
736.30        59.81498
736.72        59.99307
737.13        60.26773
737.55        60.53401
737.97        60.69062
738.39        60.67533
738.81        60.37513
739.23        59.95005
739.65         59.9244
740.06        60.23038
740.48        60.44497
740.90        60.55391
741.32         60.3473
741.74         60.7935
742.16        60.91639
742.57        60.98832
742.99        61.02861
743.41        61.02217
743.83        60.90992
744.25        60.69156
744.67        60.38691
745.08        60.11676
745.50        60.05912
745.92        60.25444
746.34        60.64284
746.75        61.07166
747.17        61.27861
747.59        61.20949
748.01        60.94339
748.42        60.61164
748.84         60.4481
749.26        60.51196
749.68        60.67109
750.09        60.88111
750.51        61.10292
750.93        61.19787
751.35        61.13802
751.76        61.05323
752.18        60.26102
752.60        60.52995
753.01        60.56135
753.43        60.33712
753.85        60.31619
754.27        60.35435
754.68        60.49809
755.10        60.68158
755.52        60.71717
755.93        60.64454
756.35        60.75755
756.77         61.0638
757.18        61.25625
757.60        61.33521
758.02        61.56694
758.43        61.82656
758.85        61.63139
759.26        61.51629
759.68        60.83214
760.10        60.37048
760.51        60.70499
760.93        61.79196
761.34        61.87843
761.76        61.70581
762.18        61.60849
762.59        61.99384
763.01        61.56435
763.42        61.98724
763.84        62.01993
764.26        62.09583
764.67        61.96489
765.09        61.74054
765.50        61.61016
765.92        61.61629
766.33        61.68369
766.75        61.68549
767.16         61.5798
767.58        61.33716
768.00        60.97689
768.41        60.68887
768.83        60.89822
769.24        61.47042
769.66        61.84848
770.07        61.92762
770.49        61.71259
770.90        61.41721
771.32        61.81856
771.73        62.75601
772.15        63.08281
772.56        62.73737
772.97        62.36696
773.39        62.13313
773.80        62.00498
774.22        62.01609
774.63         62.2261
775.05         62.4922
775.46         62.6399
775.88        62.59291
776.29        62.42606
776.70        62.22895
777.12        62.17301
777.53         62.3034
777.95        62.51448
778.36        62.74734
778.77        62.87553
779.19        62.88628
779.60        62.85107
780.02        62.75177
780.43        62.67316
780.84        62.66731
781.26        62.32539
781.67        61.86436
782.09        62.51257
782.50        63.88223
782.91        63.87262
783.33        62.61757
783.74        62.16753
784.15        62.61988
784.57         62.8055
784.98        62.69719
785.39         62.7135
785.81        62.89057
786.22        63.28651
786.63        63.76721
787.04        63.95852
787.46        63.81824
787.87        63.48998
788.28        63.17625
788.70         63.0511
789.11        63.13893
789.52        63.60392
789.93        64.19663
790.35        64.05866
790.76         63.3045
791.17        63.01408
791.58        63.29717
792.00        63.31457
792.41        63.06253
792.82        63.42889
793.23        64.15103
793.65        63.69474
794.06        62.48716
794.47        62.60884
794.88        63.73435
795.29         64.8548
795.71        63.84415
796.12        63.55135
796.53        63.54908
796.94        63.60102
797.35        63.73263
797.76        64.04858
798.18        64.41515
798.59        64.59525
799.00        64.51708
799.41        64.22659
799.82        63.86632
800.23        63.69057
800.64         63.7598
801.06        63.97081
801.47        64.23079
801.88        64.29949
802.29        64.11477
802.70        63.75475
803.11        63.35366
803.52        63.12267
803.93        63.13881
804.34        63.35107
804.75        63.66317
805.17        63.95344
805.58        64.20761
805.99        64.27826
806.40        64.25946
806.81        64.67494
807.22        65.36743
807.63        65.44585
808.04        64.93626
808.45        64.63107
808.86        64.58537
809.27        64.35519
809.68         63.9775
810.09        63.75721
810.50        63.73753
810.91        63.83669
811.32        64.03432
811.73         64.2873
812.14        64.55579
812.55        64.85819
812.96        65.11554
813.37        65.13309
813.78        64.90643
814.19        64.60284
814.60        64.28741
815.01        63.95721
815.42        63.64442
815.83        63.38804
816.24        63.24441
816.65         63.2795
817.05        63.51078
817.46        63.88965
817.87        64.31638
818.28         64.5939
818.69        64.67355
819.10         64.5817
819.51        64.42511
819.92        64.41006
820.33        64.58952
820.74        64.89675
821.14        65.20683
821.55        65.31735
821.96        65.18433
822.37        64.87864
822.78        64.52325
823.19        64.31848
823.60        64.33011
824.00        64.52886
824.41        64.77714
824.82        64.93784
825.23        64.95428
825.64        64.86691
826.04         64.7629
826.45        64.74571
826.86         64.8548
827.27        65.05601
827.68        65.25208
828.08        65.31066
828.49        65.15011
828.90        64.83154
829.31        64.49651
829.72        64.37506
830.12        64.54352
830.53        64.88884
830.94        65.24702
831.35        65.28954
831.75        64.95881
832.16         64.3548
832.57        63.71386
832.97        63.38314
833.38        63.45432
833.79        63.79348
834.20        64.28282
834.60        64.73982
835.01        65.09095
835.42        65.42171
835.82        65.69332
836.23        65.76168
836.64        65.64244
837.04        65.33485
837.45        65.03761
837.86          65.145
838.26        65.74593
838.67        66.69199
839.08        67.64672
839.48        67.95667
839.89        67.45547
840.29        66.38866
840.70        65.25054
841.11        64.58243
841.51        64.53725
841.92        64.92841
842.33        65.59665
842.73        66.26254
843.14        66.69148
843.54        66.99657
843.95        67.18902
844.35        67.34159
844.76        67.45702
845.17        67.50141
845.57        67.42555
845.98        67.14149
846.38        66.68584
846.79        66.11032
847.19        65.58884
847.60        65.36568
848.00        65.49802
848.41        65.88198
848.81        66.37598
849.22        66.65556
849.62        66.66138
850.03        66.46815
850.43        66.16675
850.84        65.84731
851.24        65.60449
851.65        65.34573
852.05        65.21614
852.46        65.36582
852.86        65.79404
853.27        66.43217
853.67        67.00258
854.07        67.22456
854.48        67.02402
854.88        66.50535
855.29        65.78647
855.69        65.22344
856.10        64.89011
856.50        64.78556
856.90        64.80593
857.31        64.78725
857.71        64.72398
858.12        64.60007
858.52        64.53257
858.92        64.59624
859.33        64.78174
859.73         65.0934
860.13        65.33659
860.54        65.22358
860.94        64.75378
861.34        64.01377
861.75        63.28073
862.15        63.04837
862.55        63.40831
862.96        64.17417
863.36        65.11787
863.76         65.7589
864.17        65.91924
864.57        65.76702
864.97        65.35844
865.38        64.79701
865.78        64.18968
866.18        63.49992
866.58        62.89687
866.99        62.68943
867.39        62.96175
867.79        63.62808
868.19        64.45564
868.60        65.04852
869.00        65.32281
869.40        65.33551
869.80        65.18641
870.21        65.08858
870.61        65.16922
871.01        65.30307
871.41        65.36639
871.81         65.1911
872.22        64.74892
872.62        64.10975
873.02        63.44683
873.42         63.0391
873.82        62.96553
874.22        63.14192
874.63        63.38196
875.03        63.40624
875.43        63.13148
875.83        62.65699
876.23        62.13864
876.63         61.8107
877.03        61.74759
877.44        61.86177
877.84        62.07684
878.24        62.29234
878.64        62.41143
879.04        62.29876
879.44        62.13119
879.84        62.29941
880.24        62.81826
880.64        63.51949
881.04         64.0704
881.44        63.96478
881.84        63.12073
882.24        61.73995
882.65         60.2877
883.05        59.47358
883.45        59.48629
883.85        60.14387
884.25        61.10668
884.65        61.77861
885.05        61.96062
885.45        61.81158
885.85        61.55769
886.25        61.54721
886.65        61.86312
887.05        62.37199
887.45        62.86668
887.85        63.03263
888.25        62.79343
888.65        62.26381
889.04        61.67586
889.44        61.40354
889.84        61.51447
890.24        61.89463
890.64        62.31932
891.04        62.41856
891.44        62.11956
891.84        61.58572
892.24        61.02026
892.64        60.71233
893.04        60.74741
893.44         61.0307
893.83        61.51445
894.23        62.07203
894.63        62.64436
895.03         63.2258
895.43        63.75394
895.83        64.13511
896.23        64.32326
896.63        64.30105
897.02        64.06202
897.42        63.65026
897.82        63.11135
898.22        62.50223
898.62        61.88303
899.01        61.31262
899.41        60.84523
899.81        60.48029
900.21        60.27654
900.61        60.31474
901.00        60.58228
901.40        61.02194
901.80        61.50018
902.20        61.80313
902.59        61.88213
902.99        61.78968
903.39        61.58917
903.79        61.39775
904.18        61.25557
904.58        61.12039
904.98        61.06786
905.38        61.22187
905.77        61.58622
906.17        62.15859
906.57        62.70584
906.96        62.83144
907.36        62.45134
907.76         61.6951
908.15        60.94738
908.55        60.80338
908.95        61.39654
909.34        62.54854
909.74        63.81317
910.14        64.53031
910.53        64.47812
910.93        63.87313
911.33         62.9963
911.72        62.27276
912.12        61.90718
912.52        61.78661
912.91        61.78746
913.31        61.74574
913.70        61.61603
914.10        61.42184
914.49        61.36091
914.89        61.66619
915.29        62.37562
915.68        63.39944
916.08        64.30529
916.47        64.45454
916.87        63.75557
917.26        62.42686
917.66        61.05839
918.05        60.38701
918.45        60.57739
918.84        61.45066
919.24        62.58002
919.64        63.33029
920.03        63.48656
920.42        63.18913
920.82        62.75982
921.21        62.64675
921.61        62.94416
922.00        63.53205
922.40        64.08715
922.79        64.20454
923.19        63.76733
923.58        62.98693
923.98        62.19323
924.37         61.7865
924.77          61.873
925.16        62.27907
925.55        62.84536
925.95        63.27619
926.34        63.46614
926.74        63.48433
927.13         63.3188
927.52        62.88956
927.92        62.27724
928.31         61.5008
928.70        60.77526
929.10        60.40942
929.49        60.44717
929.89        60.76056
930.28        61.27737
930.67        61.74227
931.07        62.02747
931.46        62.27773
931.85        62.34608
932.24        62.05242
932.64        61.45441
933.03        60.57415
933.42        59.83545
933.82          59.858
934.21        60.73647
934.60        62.33997
934.99        64.12989
935.39        65.11527
935.78        65.04353
936.17        64.09063
936.56        62.82415
936.96        62.15805
937.35        62.32238
937.74         63.0481
938.13        63.83291
938.53        63.90081
938.92        63.10187
939.31        61.76841
939.70        60.38399
940.09        59.61189
940.49         59.5786
940.88        60.08829
941.27        60.87201
941.66        61.44264
942.05         61.6234
942.44        61.59041
942.84        61.45773
943.23         61.3845
943.62        61.44046
944.01        61.51098
944.40        61.65507
944.79          62.009
945.18        62.55074
945.57        63.23418
945.97        63.77234
946.36         63.7691
946.75        63.11784
947.14        62.01781
947.53        60.79745
947.92         59.9147
948.31        59.50602
948.70        59.46966
949.09        59.71916
949.48        60.09375
949.87        60.50077
950.26        60.95093
950.65        61.42668
951.04        61.89716
951.43        62.31964
951.82        62.65648
952.21        62.78602
952.60        62.55044
952.99        61.97576
953.38        61.17038
953.77        60.38013
954.16          59.982
954.55        60.05449
954.94        60.46532
955.33        61.06855
955.72        61.58059
956.11        61.86991
956.50        62.02879
956.89        61.93286
957.28        61.40126
957.66        60.46078
958.05        59.21156
958.44        58.05127
958.83         57.5558
959.22        57.81091
959.61        58.68591
960.00        59.75076
960.39        60.18641
960.78        59.75909
961.16        58.71545
961.55        57.56661
961.94        56.99063
962.33        57.15703
962.72        57.89771
963.11         58.8879
963.49        59.52763
963.88        59.53217
964.27        59.08482
964.66        58.59231
965.04        58.68424
965.43        59.43681
965.82        60.69738
966.21        61.94351
966.60        62.19179
966.98        61.17871
967.37        59.35984
967.76         57.4738
968.15        56.41991
968.53        56.38954
968.92        57.17233
969.31        58.35914
969.69        59.12928
970.08        59.11684
970.47        58.56168
970.86        58.01905
971.24        58.29908
971.63        59.55389
972.02        61.54821
972.40        63.61895
972.79        64.23381
973.17        63.05725
973.56         60.6809
973.95        58.12958
974.33        56.70647
974.72        56.67498
975.11        57.63385
975.49         59.1264
975.88        60.19025
976.26        60.47984
976.65        60.25846
977.04        59.73146
977.42        59.17902
977.81        58.69622
978.19        58.13365
978.58        57.70768
978.96        57.76204
979.35        58.32306
979.74        59.36775
980.12        60.57161
980.51         61.0906
980.89        60.83371
981.28         59.9988
981.66        59.09179
982.05        58.82786
982.43        59.37756
982.82        60.51583
983.20        62.00352
983.59        63.27428
983.97        64.15385
984.35        64.76167
984.74        65.03931
985.12        65.15674
985.51        65.10967
985.89        64.82126
986.28        64.50272
986.66        64.42327
987.04        64.68472
987.43        65.22713
987.81        65.77067
988.20        65.64641
988.58         64.7524
988.96         63.2733
989.35        61.72638
989.73        60.83035
990.12        60.71403
990.50        61.21573
990.88        61.90214
991.27        62.01317
991.65        61.35779
992.03        60.20762
992.42        59.08207
992.80         58.6612
993.18        59.10881
993.56        60.23374
993.95        61.54446
994.33        62.30791
994.71        62.15467
995.10         61.3867
995.48        60.47208
995.86        60.19096
996.24        60.71515
996.63        61.68959
997.01        62.86364
997.39        63.41143
997.77        63.02905
998.15        62.10744
998.54        60.87128
998.92        59.50573
999.30        58.22218
999.68         56.9532
1000.06        56.13189
1000.45        56.34201
1000.83        57.73244
1001.21        60.27593
1001.59        63.26357
1001.97         64.9163
1002.35        64.61545
1002.73        62.91076
1003.12        61.00404
1003.50        60.42498
1003.88         61.5916
1004.26        63.90655
1004.64        66.91267
1005.02        69.51962
1005.40        71.06359
1005.78        72.00181
1006.16        71.81325
1006.54        69.69422
1006.92        65.94713
1007.30         61.0174
1007.69        56.68287
1008.07        55.33848
1008.45        57.61773
1008.83        63.08595
1009.21        70.25123
1009.59        75.16648
1009.97        75.79609
1010.35        73.08092
1010.73        68.49376
1011.11        64.30712
1011.49        61.38991
1011.86        59.22809
1012.24        57.76563
1012.62        56.91108
1013.00         56.5305
1013.38        56.71721
1013.76        57.59704
1014.14        59.09185
1014.52        60.97491
1014.90        63.10093
1015.28        64.69169
1015.66        64.89177
1016.04        63.65705
1016.41         61.0828
1016.79        58.34367
1017.17        57.68421
1017.55        59.57616
1017.93        63.30999
1018.31        67.14398
1018.69        68.56793
1019.06        67.07696
1019.44        63.20276
1019.82        58.30005
1020.20        55.72955
1020.58         56.7679
1020.95        59.96658
1021.33        63.68937
1021.71        66.00333
1022.09        66.56682
1022.46        66.21515
1022.84        64.69546
1023.22        61.80236
1023.60        58.09598
1023.97        53.71722
1024.35        50.40639
1024.73         49.9207
