SpectraSmart Spectrum 2.9.0.0
--------- Device Information -----------
Spectrum Name :  反射率_0
Saving Time :  2024/04/26 22:05:47
Spectro-Module Model Name : SE2030-DUVN
Spectro-Module Serial Number : OS361AC55029948
Wavelength Start : 200
Wavelength End : 1025
Wavelength Unit : Wavelength(nm)
Spectrum Unit : Reflectance(%)
-----------Spectrum Setting ------------
Integration Time : 20ms
Average : 10
Boxcar : 0
Background removal :  enabled
linearity correction :  enabled
SC :  disabled
Intensity correction :  disabled
DWT denoise :  enabled
savitzky-golay :  disabled
FFT :  disabled
Running average :  disabled
Kalman :  disabled
High pass :  disabled
---------------BEGIN--------------------
Wavelength(nm)             Reflectance(%)
200.29               0
200.75        26.70702
201.21        28.62333
201.67        30.65737
202.13        31.31709
202.58        30.39826
203.04        28.33394
203.50        26.05142
203.96        26.33019
204.42        30.72405
204.88        38.47241
205.34        46.54988
205.80          49.644
206.26         46.7442
206.72        40.36856
207.18        33.63677
207.64        28.67272
208.10        25.32812
208.55         22.5836
209.01         20.5887
209.47        21.54915
209.93        25.30188
210.39        29.77946
210.85        33.43057
211.31        36.44336
211.77        39.92117
212.23        45.57549
212.69        57.56782
213.14        76.30058
213.60        71.53905
214.06        56.01138
214.52        45.91474
214.98        40.34187
215.44        36.36091
215.90        32.39149
216.36        29.30125
216.81        28.64746
217.27        31.41493
217.73        38.89751
218.19        49.22594
218.65        51.55548
219.11        43.08788
219.57        31.35127
220.02        24.35583
220.48        26.15471
220.94        36.42625
221.40        56.64836
221.86        85.65775
222.32        102.8814
222.77         92.4473
223.23        68.83694
223.69        47.57984
224.15        37.24075
224.61        35.49408
225.06        37.38483
225.52        40.96559
225.98        44.60307
226.44        47.79414
226.90        51.25718
227.36        53.98087
227.81        53.93844
228.27        51.21593
228.73        46.65516
229.19        42.14934
229.65        39.84007
230.10        39.86584
230.56         41.6154
231.02        43.92215
231.48         44.8999
231.93        44.13998
232.39        42.54521
232.85        41.11557
233.31        41.20552
233.77        42.87392
234.22        45.53848
234.68        48.25722
235.14        49.69377
235.60         49.4451
236.05        47.92775
236.51        45.56333
236.97        43.37073
237.43        41.93042
237.88        41.08195
238.34         40.8535
238.80        41.39455
239.26        42.78421
239.71        45.66634
240.17        49.64724
240.63        53.37248
241.08        55.95802
241.54        56.74623
242.00        57.30767
242.46        61.65409
242.91        72.84705
243.37        92.87232
243.83        122.7798
244.28        150.2323
244.74        155.2561
245.20        136.2852
245.66        109.1274
246.11        88.73167
246.57        76.38873
247.03        67.94593
247.48         61.3628
247.94          55.024
248.40        49.90387
248.85        46.97244
249.31        45.75531
249.77          45.138
250.22        44.64844
250.68         44.1287
251.14        43.87523
251.59        44.95303
252.05        47.58568
252.51        50.83417
252.96        52.85218
253.42         52.5313
253.88        50.31013
254.33        46.91977
254.79        44.37601
255.25        43.96276
255.70        45.52749
256.16         48.5941
256.62        51.53961
257.07        51.92327
257.53        50.33595
257.99        48.01593
258.44        46.16034
258.90        46.18192
259.35         47.3506
259.81        49.22099
260.27        50.71313
260.72        50.54821
261.18        49.00385
261.63        46.60407
262.09        44.42137
262.55        43.15522
263.00        42.70848
263.46        42.82022
263.91        42.88622
264.37        42.37921
264.83        41.25555
265.28         39.7777
265.74        38.45132
266.19        37.64727
266.65        37.45207
267.11        37.60413
267.56        37.85452
268.02        37.81808
268.47        37.38687
268.93        36.72348
269.38        35.90125
269.84        35.07573
270.30        34.29869
270.75        33.50816
271.21        32.80619
271.66        32.30373
272.12        32.00913
272.57         31.8847
273.03        31.75895
273.48        31.34358
273.94        30.62788
274.39        29.66966
274.85        28.72713
275.31        28.04507
275.76        27.64127
276.22        27.45585
276.67        27.28765
277.13        26.91736
277.58        26.27888
278.04        25.49288
278.49        24.68481
278.95        24.13174
279.40        23.83442
279.86        23.74121
280.31        23.66994
280.77        23.44886
281.22        23.01826
281.68        22.49905
282.13         21.9761
282.59        21.62365
283.04        21.44682
283.50        21.39848
283.95         21.3995
284.41        21.33806
284.86        21.18268
285.32        20.98889
285.77        20.79478
286.22        20.69829
286.68        20.71026
287.13        20.76304
287.59        20.81391
288.04        20.76631
288.50        20.61969
288.95        20.39277
289.41        20.13642
289.86        19.86947
290.32        19.64069
290.77        19.44642
291.22        19.31729
291.68        19.28724
292.13        19.35403
292.59        19.51572
293.04        19.76991
293.50        20.12489
293.95        20.55827
294.40        21.06279
294.86        21.57716
295.31        22.00415
295.77        22.33468
296.22        22.58904
296.68         22.8531
297.13        23.25372
297.58        23.82125
298.04        24.51468
298.49         25.2549
298.95        25.92835
299.40        26.49264
299.85        26.98269
300.31        27.43574
300.76        27.90312
301.21        28.40121
301.67        28.91838
302.12        29.41682
302.58        29.89524
303.03        30.32509
303.48        30.72756
303.94        31.11937
304.39        31.49392
304.84         31.8608
305.30        32.22647
305.75        32.55793
306.20        32.85728
306.66        33.13024
307.11        33.36452
307.57        33.57623
308.02        33.74524
308.47        33.88153
308.93        33.99566
309.38         34.0867
309.83        34.20047
310.29        34.34142
310.74        34.48952
311.19        34.61022
311.65        34.64076
312.10        34.56425
312.55        34.40382
313.00        34.20574
313.46        34.03773
313.91        33.90626
314.36        33.80157
314.82        33.69632
315.27        33.55667
315.72        33.37103
316.18        33.16241
316.63        32.94024
317.08        32.73221
317.53        32.54189
317.99         32.3506
318.44         32.1521
318.89        31.92827
319.35        31.67408
319.80        31.39697
320.25        31.09839
320.70        30.77907
321.16        30.44344
321.61         30.1084
322.06        29.78132
322.51        29.47734
322.97         29.1983
323.42        28.94049
323.87        28.71893
324.32        28.56068
324.78        28.45177
325.23        28.39929
325.68        28.32017
326.13        28.08674
326.59         27.6801
327.04        27.15166
327.49        26.61938
327.94        26.27136
328.39        26.14268
328.85        26.16462
329.30        26.25136
329.75        26.19525
330.20        25.93395
330.66        25.52848
331.11         25.0668
331.56        24.66652
332.01        24.37011
332.46        24.13757
332.92        23.94393
333.37        23.79018
333.82        23.65425
334.27        23.55285
334.72        23.46919
335.17        23.36581
335.63        23.23039
336.08        23.07491
336.53        22.91788
336.98        22.80592
337.43        22.74754
337.88        22.72314
338.34        22.70299
338.79        22.66103
339.24        22.57675
339.69         22.4629
340.14        22.32177
340.59        22.15838
341.05        21.98761
341.50        21.80717
341.95        21.63759
342.40        21.50852
342.85         21.4256
343.30        21.37999
343.75        21.35063
344.20        21.30493
344.66        21.23481
345.11        21.14289
345.56        21.03959
346.01        20.94339
346.46        20.86234
346.91          20.796
347.36        20.73072
347.81        20.64709
348.26         20.5432
348.72        20.42492
349.17        20.31996
349.62        20.28229
350.07        20.31736
350.52        20.40862
350.97        20.49395
351.42        20.47415
351.87        20.33246
352.32        20.10274
352.77        19.85979
353.22        19.71507
353.67        19.68795
354.13        19.73951
354.58        19.80623
355.03        19.78821
355.48        19.65938
355.93         19.4611
356.38        19.23057
356.83        19.02026
357.28        18.84557
357.73        18.68119
358.18        18.53556
358.63        18.42662
359.08        18.35228
359.53        18.31452
359.98        18.26463
360.43        18.12259
360.88        17.87877
361.33        17.55698
361.78         17.2321
362.23        17.02845
362.68        16.97352
363.13        17.02809
363.58        17.11345
364.03         17.1056
364.48        16.97137
364.93        16.74534
365.38        16.48758
365.83        16.29754
366.28        16.20336
366.73        16.17351
367.18        16.15654
367.63         16.0743
368.08        15.90912
368.53        15.68975
368.98        15.46503
369.43        15.30832
369.88        15.23707
370.33        15.22715
370.78        15.23264
371.23        15.17976
371.68         15.0494
372.13        14.86597
372.58        14.67334
373.03        14.53948
373.48        14.48119
373.93        14.47491
374.38        14.48322
374.83        14.44926
375.28        14.35565
375.72        14.21399
376.17        14.06225
376.62         13.9368
377.07         13.8485
377.52        13.78961
377.97        13.73223
378.42        13.63498
378.87        13.49383
379.32         13.3235
379.77        13.17276
380.22        13.11042
380.67        13.14338
381.11        13.25233
381.56        13.36207
382.01         13.3576
382.46        13.21537
382.91        12.98024
383.36        12.73219
383.81        12.58115
384.26        12.54835
384.71        12.59939
385.15        12.68329
385.60        12.72045
386.05        12.68476
386.50        12.60351
386.95        12.51073
387.40        12.45673
387.85        12.45302
388.29        12.47121
388.74        12.49955
389.19         12.4979
389.64        12.45849
390.09        12.39113
390.54        12.31718
390.98        12.26677
391.43        12.25483
391.88         12.2692
392.33        12.28231
392.78        12.25556
393.23        12.18491
393.67        12.07921
394.12        11.98392
394.57        11.93976
395.02        11.95441
395.47         12.0116
395.91        12.07941
396.36        12.09536
396.81         12.0525
397.26        11.97187
397.71        11.88655
398.15        11.85161
398.60        11.88981
399.05         11.9304
399.50        11.95783
399.95        12.04121
400.39        12.13424
400.84        12.03146
401.29        11.78102
401.74        11.64907
402.18        11.66404
402.63        11.68629
403.08        11.69352
403.53        11.70369
403.97        11.70767
404.42        11.70626
404.87        11.69512
405.32        11.66404
405.76        11.61224
406.21        11.54553
406.66        11.48765
407.11        11.47945
407.55        11.53047
408.00        11.62517
408.45        11.72512
408.90        11.75444
409.34        11.69402
409.79         11.5702
410.24        11.43565
410.68        11.36117
411.13        11.36693
411.58        11.43342
412.03        11.52198
412.47        11.56505
412.92        11.53889
413.37        11.46783
413.81        11.39295
414.26        11.38232
414.71        11.44357
415.15        11.55741
415.60        11.67468
416.05        11.71812
416.49        11.66831
416.94        11.55258
417.39        11.42055
417.83        11.34715
418.28        11.35063
418.73        11.40439
419.17        11.48246
419.62        11.54294
420.07        11.56941
420.51        11.57323
420.96        11.55523
421.41        11.51313
421.85        11.44854
422.30         11.3609
422.74        11.26342
423.19        11.22891
423.64        11.24549
424.08        11.23982
424.53        11.20794
424.98        11.23006
425.42        11.31235
425.87        11.37789
426.31        11.41918
426.76        11.51105
427.21        11.61575
427.65        11.57092
428.10        11.42359
428.54        11.36996
428.99        11.43019
429.44        11.54401
429.88        11.65562
430.33        11.63391
430.77        11.50666
431.22        11.50194
431.66         11.6181
432.11        11.64824
432.56        11.59427
433.00        11.61486
433.45        11.66103
433.89        11.56406
434.34        11.41014
434.78         11.1455
435.23        11.40566
435.67        11.46404
436.12         11.4771
436.57        11.46977
437.01        11.45306
437.46        11.45047
437.90        11.45815
438.35        11.44089
438.79        11.39562
439.24        11.35559
439.68        11.32658
440.13        11.29929
440.57        11.28894
441.02        11.33252
441.46        11.42602
441.91        11.51793
442.35         11.5799
442.80        11.69097
443.24        11.79501
443.69        11.70635
444.13        11.46947
444.58        11.34018
445.02        11.33955
445.47        11.34324
445.91        11.33794
446.36        11.35686
446.80        11.38983
447.24        11.43031
447.69        11.46972
448.13        11.48639
448.58        11.47932
449.02        11.45224
449.47        11.41731
449.91        11.39048
450.36         11.3801
450.80        11.37946
451.25        11.38938
451.69        11.40451
452.13        11.42233
452.58        11.44151
453.02        11.45604
453.47        11.45752
453.91         11.4443
454.36        11.42121
454.80        11.38677
455.24        11.33839
455.69        11.28253
456.13        11.21273
456.58        11.15604
457.02        11.13341
457.46        11.15188
457.91        11.20353
458.35        11.25032
458.79        11.23272
459.24        11.15354
459.68        11.02792
460.13          10.913
460.57         10.8641
461.01        10.90105
461.46        10.99083
461.90        11.10894
462.34        11.20277
462.79        11.24809
463.23         11.2649
463.68        11.24263
464.12        11.17387
464.56        11.06729
465.01        10.94456
465.45         10.8267
465.89        10.77267
466.34        10.78822
466.78         10.8554
467.22        10.94997
467.67        11.01556
468.11        11.03923
468.55        11.02998
468.99        11.00284
469.44        10.98243
469.88         10.9775
470.32        10.97824
470.77        10.98141
471.21         10.9861
471.65        10.98972
472.10        10.99767
472.54        11.00572
472.98        11.01017
473.42        11.01064
473.87        11.01126
474.31          11.009
474.75        11.01085
475.20        11.02108
475.64        11.03395
476.08        11.05115
476.52        11.06926
476.97        11.08722
477.41        11.11004
477.85        11.14144
478.29        11.17045
478.74        11.20528
479.18        11.27394
479.62        11.35757
480.06        11.40869
480.50        11.42409
480.95        11.40818
481.39        11.37176
481.83         11.4464
482.27        11.46663
482.72        11.55135
483.16        11.63728
483.60        11.68998
484.04        11.70596
484.48        11.75258
484.93        11.83792
485.37         11.8172
485.81        12.02378
486.25        12.06664
486.69        11.44649
487.14        11.87582
487.58        12.86796
488.02        12.89538
488.46        12.51049
488.90        12.49772
489.34        12.48639
489.79        12.69967
490.23        12.85254
490.67        13.05942
491.11        13.24981
491.55        13.31258
491.99        13.29074
492.43        13.35005
492.88        13.50361
493.32        13.63804
493.76        13.73379
494.20        13.83065
494.64         13.9319
495.08        13.99842
495.52        14.04747
495.96        14.20125
496.41        14.43467
496.85        14.52016
497.29        14.47762
497.73        14.68078
498.17        14.91341
498.61        15.08277
499.05        15.11426
499.49        15.17309
499.93        15.23605
500.37        15.37434
500.82        15.55809
501.26          15.697
501.70        15.77923
502.14        15.86622
502.58        15.96621
503.02         16.0582
503.46        16.14392
503.90        16.23095
504.34        16.31265
504.78        16.37757
505.22        16.42512
505.66        16.45856
506.10        16.49367
506.54        16.55627
506.98        16.65033
507.42        16.76663
507.86        16.88644
508.30        16.97816
508.74        17.03387
509.18        17.06493
509.62        17.08294
510.06          17.108
510.50        17.14694
510.94        17.19076
511.38        17.24364
511.82        17.31185
512.26        17.39364
512.70        17.49044
513.14        17.57933
513.58        17.62255
514.02        17.61416
514.46        17.56269
514.90        17.50683
515.34         17.5099
515.78        17.58443
516.22        17.71209
516.66        17.84465
517.10        17.90423
517.54        17.87352
517.98        17.77683
518.42        17.66267
518.86        17.60875
519.30        17.63296
519.74        17.70823
520.18        17.79306
520.62        17.82298
521.06         17.7823
521.50        17.69536
521.93        17.59162
522.37        17.51128
522.81        17.47192
523.25        17.45821
523.69         17.4603
524.13        17.46434
524.57         17.4621
525.01        17.45639
525.45          17.442
525.89        17.40947
526.32        17.35536
526.76        17.28543
527.20        17.20247
527.64         17.1143
528.08        17.02602
528.52         16.9388
528.96        16.85942
529.40        16.79656
529.83        16.75127
530.27        16.72226
530.71        16.70007
531.15        16.67107
531.59        16.63006
532.03        16.57678
532.46        16.51517
532.90        16.46367
533.34        16.42374
533.78        16.38579
534.22        16.33773
534.66        16.28134
535.09        16.20422
535.53        16.07383
535.97        15.92887
536.41         15.8704
536.85         15.9093
537.28        16.00267
537.72        16.10639
538.16        16.15981
538.60        16.14688
539.04        16.08932
539.47        16.02286
539.91        16.01331
540.35        16.07273
540.79        16.17984
541.22         16.3108
541.66        16.43403
542.10        16.53568
542.54        16.62855
542.97        16.71428
543.41        16.80127
543.85         16.8917
544.29        16.98244
544.72        17.07888
545.16        17.20362
545.60        17.35693
546.04          17.538
546.47        17.73408
546.91         17.9185
547.35        18.08051
547.79        18.22402
548.22        18.36107
548.66        18.50816
549.10         18.6907
549.53        18.89445
549.97        19.09952
550.41        19.22942
550.84        19.29834
551.28        19.37467
551.72        19.47028
552.15        19.61886
552.59        19.85062
553.03        19.85894
553.46        20.21989
553.90        20.38286
554.34        20.51412
554.77        20.62558
555.21        20.73393
555.65        20.84735
556.08        20.96188
556.52        21.06126
556.96        21.14579
557.39        21.27587
557.83        21.43514
558.27        21.49799
558.70        21.47599
559.14         21.5173
559.57        21.61362
560.01        21.66393
560.45        21.67617
560.88        21.72965
561.32         21.8406
561.75        21.96434
562.19        22.09508
562.63        22.21966
563.06         22.3275
563.50        22.42271
563.93        22.49649
564.37        22.59278
564.80         22.7231
565.24        22.82288
565.68        22.83199
566.11        23.15527
566.55        22.96174
566.98        22.95313
567.42        22.95606
567.85        23.05911
568.29        23.27804
568.72        23.59517
569.16        23.96846
569.60        24.19311
570.03        24.32964
570.47        24.41589
570.90        24.52019
571.34        24.46549
571.77        24.57565
572.21        24.88358
572.64        24.90676
573.08        25.10154
573.51        25.33415
573.95        25.43815
574.38        25.42566
574.82        25.89027
575.25        25.54063
575.69        25.73572
576.12        25.73948
576.56        25.82312
576.99        25.92247
577.42        25.73899
577.86        25.75226
578.29        26.03053
578.73        25.79001
579.16         25.8936
579.60        25.65859
580.03        25.68162
580.47        25.48104
580.90        25.50381
581.33        25.55873
581.77         25.1637
582.20        24.78907
582.64         24.7482
583.07         24.8544
583.51        24.89058
583.94        24.78366
584.37        24.69838
584.81        24.63154
585.24        24.31028
585.68        23.89896
586.11        23.80137
586.54        23.94304
586.98         23.8762
587.41        23.73805
587.85        23.51463
588.28        23.29622
588.71        23.51214
589.15        23.40288
589.58        23.37071
590.01        23.59401
590.45         23.6453
590.88         23.6379
591.31        23.46449
591.75        23.25432
592.18         23.2491
592.61        23.39225
593.05        23.70938
593.48        23.83235
593.91        23.46185
594.35        23.67274
594.78        23.66332
595.21        23.78395
595.65        23.97209
596.08        24.28232
596.51        24.45125
596.94        24.56125
597.38        24.74674
597.81        25.02619
598.24        25.29372
598.68        25.57698
599.11        25.78027
599.54        26.11761
599.97        26.25555
600.41        26.93466
600.84         27.1521
601.27        27.52374
601.70        27.82701
602.14        28.16395
602.57        28.57021
603.00        29.09725
603.43        29.15345
603.87        29.88863
604.30        30.41155
604.73         31.0714
605.16        31.31843
605.60        31.77773
606.03        32.05606
606.46        32.37235
606.89        32.75107
607.32        33.67516
607.76        34.04977
608.19        34.46548
608.62        34.78088
609.05        35.22552
609.48        35.55408
609.92        36.22783
610.35        36.56418
610.78        36.62839
611.21        36.91311
611.64        37.34311
612.07        37.78446
612.50        38.00925
612.94        38.33056
613.37        38.67906
613.80         38.9052
614.23        39.09444
614.66        39.16779
615.09         39.9006
615.52        40.20203
615.96        40.30093
616.39        40.57225
616.82        41.05307
617.25        41.16512
617.68        41.59499
618.11        41.80532
618.54        42.00121
618.97        42.30208
619.40         42.7136
619.84        42.74765
620.27         42.7911
620.70        43.05046
621.13        43.55468
621.56        43.41872
621.99        43.13965
622.42         43.0394
622.85        43.30085
623.28        43.28698
623.71        43.40882
624.14        43.37621
624.57        44.03753
625.00        43.59428
625.43        43.74142
625.86         43.4661
626.29        43.33119
626.72        42.70004
627.15        42.85302
627.58        42.74132
628.01         42.6428
628.44        42.47065
628.87        42.21437
629.30        41.80879
629.73        41.27927
630.16        41.15066
630.59         40.7148
631.02        40.51613
631.45        40.29435
631.88        40.00106
632.31        39.60825
632.74        39.14337
633.17        38.63311
633.60         38.0989
634.03         37.5605
634.46        37.01631
634.89        36.46989
635.32        35.93471
635.75        35.42005
636.18        34.89241
636.61        34.38474
637.04        33.96309
637.47        33.62738
637.89        33.34846
638.32        33.06882
638.75        32.73061
639.18        32.32236
639.61        31.86956
640.04        31.41646
640.47        31.02884
640.90        30.72559
641.33        30.49027
641.76        30.30777
642.18        30.15658
642.61        30.01937
643.04        29.90879
643.47        29.82874
643.90        29.78211
644.33        29.76907
644.76        29.78682
645.18        29.82668
645.61        29.87188
646.04        29.92297
646.47        29.98371
646.90        30.08239
647.33        30.25509
647.75        30.50226
648.18        30.85531
648.61        31.28195
649.04        31.62368
649.47        31.84157
649.89        32.41052
650.32        32.54569
650.75        33.10196
651.18        33.80029
651.61        34.51524
652.03        35.19188
652.46        35.77253
652.89        36.29842
653.32        36.84282
653.74        37.39901
654.17        37.98288
654.60        38.85478
655.03        39.10777
655.46        38.93127
655.88        39.77865
656.31        40.85179
656.74        38.78219
657.16        42.65273
657.59        47.47085
658.02        44.38716
658.45        44.50248
658.87        44.51324
659.30        44.88987
659.73         44.8587
660.15        46.31211
660.58        45.99537
661.01        46.39764
661.44        46.71654
661.86         46.8671
662.29        46.90644
662.72        47.68591
663.14        48.22686
663.57        48.56723
664.00        48.51317
664.42        48.77568
664.85        49.39037
665.27        49.97186
665.70        50.40497
666.13        50.72675
666.55        50.91658
666.98        50.91869
667.41        50.79634
667.83        50.98238
668.26        50.98476
668.69        51.21048
669.11        51.48203
669.54         51.7622
669.96        52.03538
670.39        52.31002
670.82        52.58305
671.24        52.83295
671.67        53.05102
672.09         53.1902
672.52        53.27644
672.94        53.40941
673.37        53.56474
673.80         53.5437
674.22        53.41558
674.65         53.4402
675.07        53.65626
675.50        53.91632
675.92        54.16465
676.35        54.35119
676.77        54.44897
677.20        54.48619
677.62        54.50594
678.05        54.52951
678.47        54.56355
678.90        54.78791
679.32        54.87993
679.75         55.0209
680.17        55.08605
680.60        55.24994
681.02        55.55652
681.45        55.29641
681.87        55.65821
682.30        55.80939
682.72        56.06012
683.15        56.11363
683.57        56.02435
684.00        56.08142
684.42        56.28439
684.85        56.43344
685.27        56.51618
685.70         56.6691
686.12        56.84907
686.54         56.9421
686.97        56.94006
687.39         56.8654
687.82        56.75486
688.24        56.74631
688.66        56.87409
689.09         56.8617
689.51        57.11739
689.94         57.2273
690.36        57.30722
690.78        57.34831
691.21        57.39139
691.63        57.48504
692.06        57.63763
692.48         57.8463
692.90        58.03721
693.33        58.09945
693.75        58.01262
694.17        57.78539
694.60         57.5544
695.02        57.53784
695.44        57.75217
695.87        58.16626
696.29        58.60512
696.71        58.57886
697.14        58.18768
697.56        58.02595
697.98        58.12122
698.41        58.48106
698.83        58.28339
699.25        58.52476
699.68        58.85964
700.10        59.02691
700.52        58.96556
700.94         58.7663
701.37        58.54563
701.79        58.56349
702.21        58.71281
702.64        59.02905
703.06        59.37973
703.48        59.61161
703.90        59.67485
704.33        59.62374
704.75        59.50222
705.17         59.3686
705.59        59.26228
706.01        59.16803
706.44         59.1179
706.86        59.19574
707.28        59.39832
707.70        59.66213
708.12        59.93969
708.55        60.23555
708.97        60.47971
709.39        60.46745
709.81        60.25605
710.23        60.16878
710.66        60.24562
711.08        60.33435
711.50        60.37819
711.92        60.37185
712.34         60.3079
712.76        60.20897
713.19        60.10235
713.61        60.06271
714.03        60.09776
714.45        60.19088
714.87        60.34002
715.29        60.54521
715.71        60.78973
716.13        61.05402
716.56        61.28198
716.98         61.4661
717.40         61.5578
717.82          61.554
718.24        61.45153
718.66        61.26907
719.08        61.06386
719.50        60.72101
719.92        60.36282
720.34        60.24223
720.76        60.39271
721.19        60.68723
721.61        61.07933
722.03        61.47176
722.45        61.79796
722.87        62.05603
723.29        62.20385
723.71         62.1849
724.13        62.00524
724.55        61.69501
724.97        61.32685
725.39        61.03181
725.81        60.86198
726.23        60.77796
726.65        60.78164
727.07         60.9994
727.49        61.19387
727.91         61.5348
728.33        61.89462
728.75        62.17246
729.17        62.32732
729.59        62.36753
730.01        62.32888
730.43        62.28089
730.85        62.24924
731.27        62.21388
731.69        62.15438
732.10         62.0773
732.52        62.00195
732.94        61.84945
733.36        61.63179
733.78        61.72137
734.20        61.65323
734.62        61.40601
735.04        62.04296
735.46        61.54785
735.88        61.98328
736.30        62.14925
736.72        62.51903
737.13        62.80646
737.55        62.88014
737.97         62.9071
738.39         62.8503
738.81         62.4045
739.23        61.77711
739.65        61.82696
740.06        62.43233
740.48        62.72195
740.90        62.62572
741.32        62.65673
741.74        62.84294
742.16        62.96177
742.57        63.01081
742.99        63.03713
743.41        63.03065
743.83        62.96409
744.25        62.84609
744.67         62.6697
745.08        62.52753
745.50        62.56165
745.92        62.78857
746.34         63.1263
746.75         63.4508
747.17        63.57317
747.59        63.45936
748.01        63.16925
748.42        62.80414
748.84        62.57579
749.26        62.54659
749.68        62.53394
750.09        62.53719
750.51        62.82418
750.93        63.22531
751.35        63.18622
751.76         62.7713
752.18         62.5015
752.60        62.38304
753.01        62.54243
753.43        62.17706
753.85        62.17461
754.27        62.30072
754.68        62.59044
755.10        62.93015
755.52        62.98585
755.93        62.79825
756.35        62.77108
756.77        62.95518
757.18        63.02286
757.60        62.99771
758.02        63.18483
758.43         63.4735
758.85        63.14041
759.26        63.40973
759.68        62.48663
760.10        62.20425
760.51        62.54938
760.93        63.12798
761.34        63.08262
761.76        63.81233
762.18        63.74845
762.59        63.51186
763.01        63.50569
763.42        63.81551
763.84        63.89566
764.26        63.73176
764.67        63.65428
765.09        63.69149
765.50        63.58435
765.92        63.41158
766.33        63.36676
766.75        63.37945
767.16        63.37428
767.58        63.29638
768.00        63.10443
768.41        62.93463
768.83        63.14802
769.24        63.60439
769.66        63.86115
770.07        63.83477
770.49        63.38179
770.90        62.80367
771.32        63.24115
771.73        64.47554
772.15        64.93063
772.56        64.50479
772.97        64.07138
773.39        63.83435
773.80        63.73098
774.22        63.80542
774.63        64.11947
775.05        64.49313
775.46        64.69824
775.88         64.6431
776.29        64.41483
776.70        64.14101
777.12        64.05582
777.53        64.22006
777.95        64.51033
778.36        64.82336
778.77        64.95754
779.19        64.87885
779.60        64.68271
780.02        64.40569
780.43        64.19284
780.84        64.12768
781.26        63.83089
781.67        63.44427
782.09         64.0145
782.50         65.2717
782.91        64.96833
783.33        64.34763
783.74        64.01748
784.15         64.3785
784.57        64.56277
784.98        64.54709
785.39        64.50407
785.81        64.50363
786.22        64.87296
786.63         65.4556
787.04         65.6468
787.46        65.40082
787.87        64.99852
788.28        64.65455
788.70          64.505
789.11        64.57762
789.52        65.04117
789.93        65.66373
790.35        65.61572
790.76        65.01563
791.17        64.92726
791.58        65.39877
792.00        65.53606
792.41        65.30443
792.82        65.49039
793.23          65.951
793.65        65.46014
794.06        64.37274
794.47        64.54452
794.88        65.73374
795.29        66.14994
795.71         65.6888
796.12        65.37097
796.53        65.33046
796.94        65.32301
797.35        65.38347
797.76         65.5796
798.18        65.81437
798.59        65.97745
799.00        66.01279
799.41        65.93994
799.82        65.82446
800.23        65.78818
800.64        65.85828
801.06        65.96609
801.47        66.08622
801.88        66.09652
802.29        65.95764
802.70        65.69475
803.11        65.39406
803.52        65.16592
803.93        65.06889
804.34        65.18234
804.75         65.3942
805.17        65.41909
805.58        65.36662
805.99        65.32899
806.40        65.42574
806.81        66.30946
807.22        67.55999
807.63        67.39619
808.04        66.02217
808.45        65.39793
808.86        65.67563
809.27        65.74625
809.68        65.50928
810.09        65.37238
810.50         65.3336
810.91        65.26405
811.32        65.27216
811.73        65.53632
812.14        66.04869
812.55         66.7655
812.96        67.44489
813.37         67.5556
813.78        67.05563
814.19        66.36276
814.60        65.70842
815.01        65.19118
815.42         64.8923
815.83        64.86728
816.24        65.06681
816.65        65.30403
817.05        65.51492
817.46        65.72873
817.87        65.93538
818.28        66.06969
818.69        66.12295
819.10        66.07529
819.51        65.98756
819.92        65.99753
820.33        66.13438
820.74        66.35105
821.14        66.56114
821.55         66.6348
821.96        66.53208
822.37        66.26133
822.78        65.91723
823.19        65.69734
823.60        65.65865
824.00        65.76173
824.41        65.90336
824.82        66.01951
825.23        66.07156
825.64        66.07993
826.04        66.09446
826.45        66.15772
826.86        66.29105
827.27        66.47505
827.68        66.64302
828.08        66.71356
828.49        66.61844
828.90        66.40457
829.31         66.1769
829.72         66.1086
830.12        66.26105
830.53        66.52982
830.94        66.79645
831.35        66.81139
831.75        66.53157
832.16        66.02809
832.57        65.46873
832.97        65.09131
833.38        64.97177
833.79        65.02692
834.20        65.21102
834.60        65.44889
835.01        65.70252
835.42         66.0288
835.82        66.37068
836.23        66.54995
836.64        66.55636
837.04         66.3879
837.45        66.22104
837.86        66.41693
838.26        67.05366
838.67        67.98263
839.08        68.86027
839.48        69.03622
839.89        68.36071
840.29         67.0898
840.70         65.7674
841.11        64.99454
841.51         64.9295
841.92        65.37629
842.33        66.12267
842.73         66.7856
843.14        67.11027
843.54        67.25301
843.95        67.29202
844.35          67.409
844.76        67.62923
845.17        67.86327
845.57        68.03274
845.98        68.00455
846.38        67.77706
846.79        67.40887
847.19        67.00037
847.60        66.67966
848.00        66.49967
848.41        66.39875
848.81        66.37394
849.22        66.33535
849.62         66.2944
850.03        66.27621
850.43        66.26378
850.84        66.15824
851.24         65.9931
851.65         65.7225
852.05        65.55048
852.46        65.72964
852.86         66.2838
853.27        67.09326
853.67         67.8224
854.07        68.12576
854.48        67.91976
854.88        67.33357
855.29        66.53213
855.69        65.95425
856.10        65.68996
856.50        65.70423
856.90        65.83965
857.31        65.83989
857.71        65.68273
858.12        65.40591
858.52        65.14708
858.92        65.01391
859.33        65.02317
859.73        65.15247
860.13        65.30547
860.54        65.35629
860.94        65.31001
861.34        65.20435
861.75        65.07311
862.15         65.0123
862.55        65.02892
862.96        65.04364
863.36        65.12267
863.76         65.3014
864.17        65.55019
864.57        65.88968
864.97        66.11991
865.38        65.93463
865.78          65.327
866.18        64.38843
866.58        63.43729
866.99        63.04016
867.39        63.36503
867.79        64.22101
868.19        65.28239
868.60        66.03181
869.00        66.34659
869.40        66.33432
869.80         66.1181
870.21         65.9427
870.61        65.96144
871.01        66.03925
871.41        66.06371
871.81        65.88689
872.22        65.48262
872.62        64.91904
873.02        64.36198
873.42        64.07036
873.82        64.10735
874.22        64.38278
874.63        64.69671
875.03        64.75318
875.43        64.46647
875.83        63.94167
876.23        63.34463
876.63        62.92641
877.03        62.77097
877.44        62.79253
877.84        62.93256
878.24        63.11325
878.64        63.24734
879.04        63.20347
879.44        63.12802
879.84        63.36459
880.24        63.91197
880.64        64.59534
881.04        65.12487
881.44        65.06583
881.84        64.34555
882.24        63.15429
882.65        61.84918
883.05        60.97019
883.45        60.68752
883.85        60.87294
884.25        61.37744
884.65        61.92325
885.05        62.37525
885.45        62.78162
885.85        63.14005
886.25        63.45195
886.65        63.71867
887.05        63.91147
887.45        63.98098
887.85        63.88143
888.25         63.6212
888.65        63.22827
889.04        62.84131
889.44        62.69176
889.84        62.80715
890.24        63.13369
890.64        63.48545
891.04        63.54885
891.44         63.2619
891.84        62.73955
892.24        62.18164
892.64        61.88198
893.04         61.9185
893.44        62.21397
893.83        62.65794
894.23        63.01368
894.63        63.22537
895.03        63.33646
895.43        63.44229
895.83        63.70551
896.23        64.13126
896.63         64.6122
897.02        64.97792
897.42        65.00055
897.82        64.64014
898.22        64.03365
898.62         63.3028
899.01        62.60702
899.41        62.04604
899.81        61.58059
900.21         61.3084
900.61        61.38258
901.00        61.79196
901.40        62.46274
901.80        63.17607
902.20        63.56931
902.59        63.56001
902.99         63.2447
903.39         62.7566
903.79        62.33528
904.18        62.06491
904.58        61.87099
904.98         61.8145
905.38        61.99171
905.77        62.39605
906.17        63.04737
906.57        63.68861
906.96        63.87931
907.36        63.52007
907.76        62.72528
908.15        61.93418
908.55        61.83909
908.95        62.58326
909.34        63.96478
909.74        65.41087
910.14         66.0504
910.53         65.6345
910.93        64.46767
911.33         63.0251
911.72        62.03017
912.12         61.7471
912.52        61.95592
912.91        62.38277
913.31        62.63381
913.70        62.59789
914.10        62.37456
914.49         62.2059
914.89        62.39822
915.29        63.03068
915.68        63.98082
916.08        64.85281
916.47        65.08201
916.87        64.56812
917.26        63.48824
917.66        62.35719
918.05        61.79704
918.45        61.94938
918.84         62.6823
919.24        63.57727
919.64        64.02328
920.03        63.85454
920.42        63.23088
920.82        62.57409
921.21        62.47989
921.61        63.05978
922.00        64.14133
922.40        65.28537
922.79        65.86292
923.19        65.65704
923.58        64.91985
923.98        64.00558
924.37        63.36401
924.77        63.13541
925.16        63.13061
925.55        63.26144
925.95        63.36547
926.34        63.38258
926.74        63.37568
927.13        63.26304
927.52        62.82801
927.92          62.126
928.31        61.22995
928.70        60.41853
929.10         60.0976
929.49         60.3357
929.89        60.96084
930.28        61.86658
930.67        62.74414
931.07        63.41405
931.46        63.99967
931.85         64.3148
932.24        64.12841
932.64        63.48817
933.03        62.43876
933.42         61.4134
933.82        61.04216
934.21        61.44746
934.60        62.51781
934.99        63.81187
935.39        64.50905
935.78        64.40788
936.17        63.64617
936.56        62.68276
936.96        62.24216
937.35        62.49395
937.74        63.21579
938.13         63.9446
938.53        63.97661
938.92        63.19246
939.31        61.89573
939.70        60.57963
940.09        59.93357
940.49         60.0825
940.88        60.82336
941.27        61.86017
941.66        62.64516
942.05        62.96967
942.44          63.016
942.84        62.89113
943.23        62.75017
943.62        62.67833
944.01        62.57597
944.40        62.54158
944.79        62.77692
945.18        63.27713
945.57        63.97291
945.97        64.57441
946.36        64.67055
946.75        64.13242
947.14        63.16281
947.53        62.01638
947.92        61.04586
948.31        60.37792
948.70        59.93179
949.09        59.75269
949.48        59.90976
949.87        60.37859
950.26        61.13361
950.65        61.98946
951.04        62.62363
951.43        62.92309
951.82        62.92568
952.21        62.72902
952.60        62.53009
952.99         62.4166
953.38        62.36532
953.77        62.35452
954.16        62.35252
954.55         62.3408
954.94        62.30524
955.33        62.33008
955.72        62.53997
956.11        62.93227
956.50        63.47609
956.89        63.86233
957.28        63.59035
957.66        62.59404
958.05        61.10584
958.44        59.63864
958.83        58.91825
959.22        59.07965
959.61        59.93011
960.00        61.04631
960.39        61.63081
960.78        61.42407
961.16        60.65672
961.55        59.76023
961.94        59.29285
962.33        59.40794
962.72        59.96886
963.11        60.70226
963.49        61.13077
963.88        61.01816
964.27        60.50455
964.66        60.00041
965.04        60.13531
965.43        60.96664
965.82        62.36026
966.21        63.69057
966.60        63.77521
966.98        62.34415
967.37        59.95968
967.76         57.5555
968.15        56.27921
968.53         56.3447
968.92         57.4422
969.31        59.07129
969.69         60.2049
970.08        60.36643
970.47        59.86895
970.86        59.21396
971.24        59.12963
971.63        59.77862
972.02        60.91071
972.40        62.12091
972.79        62.42661
973.17        61.64479
973.56         60.1966
973.95        58.66917
974.33        57.77204
974.72        57.66282
975.11        58.08384
975.49        58.87605
975.88         59.6646
976.26        60.28412
976.65         60.7887
977.04        61.05958
977.42        60.88132
977.81        60.23639
978.19        59.17317
978.58        58.10928
978.96        57.70742
979.35        58.09263
979.74        59.09211
980.12        60.39187
980.51        61.16109
980.89        61.26431
981.28        60.95168
981.66        60.44199
982.05        60.01573
982.43         59.7979
982.82        59.61819
983.20        59.76783
983.59        60.70996
983.97        62.52998
984.35        65.05882
984.74        67.41563
985.12        68.33401
985.51         67.4607
985.89        65.23955
986.28         62.6411
986.66        61.05808
987.04        60.92296
987.43        61.83268
987.81        63.34013
988.20        64.43568
988.58        64.72172
988.96        64.42593
989.35        63.79856
989.73        63.17921
990.12        62.66991
990.50        62.18394
990.88        61.54858
991.27        60.57396
991.65        59.33107
992.03        58.00689
992.42        57.04934
992.80         57.0076
993.18        57.96012
993.56        59.73439
993.95        61.76245
994.33        63.09393
994.71        63.25297
995.10        62.59194
995.48        61.52124
995.86        60.77095
996.24        60.54648
996.63        60.46706
997.01        60.68172
997.39          61.172
997.77        61.81902
998.15        62.73173
998.54        63.37939
998.92        62.82252
999.30        61.09708
999.68        58.54438
1000.06        56.16333
1000.45        55.36356
1000.83        56.51288
1001.21        59.31313
1001.59        62.93116
1001.97         65.2803
1002.35        65.50629
1002.73        64.26915
1003.12        62.59851
1003.50        61.74983
1003.88        62.14968
1004.26         63.2414
1004.64        64.89889
1005.02        66.80842
1005.40        68.58845
1005.78        70.43008
1006.16        71.51424
1006.54        70.54408
1006.92        67.57762
1007.30        63.15901
1007.69        58.89991
1008.07        56.92589
1008.45         57.8441
1008.83        61.22366
1009.21        65.93251
1009.59        69.05103
1009.97        69.12715
1010.35        66.94883
1010.73        63.66291
1011.11        60.95695
1011.49        59.40022
1011.86        58.51638
1012.24        58.11116
1012.62        57.94991
1013.00        57.91925
1013.38        58.13405
1013.76        58.72593
1014.14        59.75747
1014.52        61.08776
1014.90        62.50832
1015.28          63.492
1015.66        63.45826
1016.04          62.377
1016.41        60.40913
1016.79        58.15864
1017.17        56.84782
1017.55        56.83575
1017.93        57.76376
1018.31        59.00829
1018.69        59.62872
1019.06        59.41563
1019.44        58.68265
1019.82        57.64569
1020.20        56.88564
1020.58        56.66445
1020.95        56.54907
1021.33        56.75385
1021.71        57.51682
1022.09        58.85843
1022.46        61.08681
1022.84        63.21545
1023.22        62.90931
1023.60         59.6172
1023.97         54.1287
1024.35        49.26093
1024.73        48.14851
