SpectraSmart Spectrum 2.9.0.0
--------- Device Information -----------
Spectrum Name :  反射率_0
Saving Time :  2024/04/26 22:08:12
Spectro-Module Model Name : SE2030-DUVN
Spectro-Module Serial Number : OS361AC55029948
Wavelength Start : 200
Wavelength End : 1025
Wavelength Unit : Wavelength(nm)
Spectrum Unit : Reflectance(%)
-----------Spectrum Setting ------------
Integration Time : 20ms
Average : 10
Boxcar : 0
Background removal :  enabled
linearity correction :  enabled
SC :  disabled
Intensity correction :  disabled
DWT denoise :  enabled
savitzky-golay :  disabled
FFT :  disabled
Running average :  disabled
Kalman :  disabled
High pass :  disabled
---------------BEGIN--------------------
Wavelength(nm)             Reflectance(%)
200.29               0
200.75        21.96066
201.21        24.07084
201.67        27.35157
202.13        29.68285
202.58        30.78051
203.04         31.8929
203.50        33.69352
203.96        37.00357
204.42        41.88894
204.88        47.13076
205.34        51.45662
205.80         53.6079
206.26        53.26595
206.72        51.14428
207.18        47.97823
207.64        43.86456
208.10        38.44603
208.55        30.79829
209.01        21.32257
209.47        17.37199
209.93        22.35386
210.39        31.24205
210.85        38.83067
211.31        43.57062
211.77        46.95024
212.23        50.93719
212.69        60.09467
213.14        85.14842
213.60        100.9439
214.06        96.06893
214.52        88.20236
214.98        83.41664
215.44        80.10017
215.90        75.98768
216.36        71.85598
216.81          69.045
217.27        67.95429
217.73        69.33994
218.19        70.07784
218.65        61.55944
219.11        46.78844
219.57        34.31891
220.02        28.43478
220.48        30.13856
220.94        38.85964
221.40        56.12647
221.86         82.8373
222.32        105.4547
222.77        107.9626
223.23        97.05058
223.69        82.77689
224.15        71.93533
224.61         64.7095
225.06        58.91277
225.52        54.70835
225.98        51.98526
226.44        50.38192
226.90        49.86124
227.36         49.7994
227.81          49.117
228.27        47.79119
228.73        46.08188
229.19        44.67505
229.65        44.34286
230.10         45.0846
230.56        46.68391
231.02        48.34643
231.48         48.8559
231.93        48.00954
232.39        46.46706
232.85        45.19453
233.31        45.53449
233.77         47.5339
234.22        50.70135
234.68        53.98508
235.14        55.82129
235.60        55.75622
236.05        54.20799
236.51        51.81778
236.97        50.08287
237.43        49.70297
237.88        50.40493
238.34        51.70576
238.80         52.9668
239.26        54.02005
239.71        55.52109
240.17        57.45048
240.63        60.04164
241.08        63.39516
241.54        66.63535
242.00        70.40397
242.46        76.63333
242.91        87.41595
243.37        104.6882
243.83        128.3651
244.28        146.1715
244.74        141.4931
245.20        115.2548
245.66        86.82097
246.11        72.43298
246.57        71.81703
247.03        80.23675
247.48        89.67218
247.94        86.82242
248.40         73.7072
248.85        58.83413
249.31         47.9976
249.77        44.15399
250.22        46.42476
250.68         53.4906
251.14        64.24039
251.59         72.8489
252.05        74.86474
252.51        72.57465
252.96        67.35269
253.42        61.19352
253.88        55.09366
254.33        48.78224
254.79        44.60819
255.25        44.25665
255.70         47.1645
256.16        52.47776
256.62        57.47589
257.07        58.00867
257.53         55.0092
257.99        50.87876
258.44        47.50937
258.90         46.7382
259.35        47.71655
259.81        49.70199
260.27        51.58501
260.72        52.06426
261.18        51.27238
261.63        49.63578
262.09        48.04836
262.55        47.00134
263.00        46.43935
263.46        46.24356
263.91        45.94069
264.37        45.20156
264.83        44.01578
265.28        42.56957
265.74        41.34577
266.19        40.67817
266.65        40.63191
267.11        40.94635
267.56        41.32973
268.02         41.3217
268.47        40.80263
268.93        39.97091
269.38        38.93575
269.84         37.9136
270.30        36.98906
270.75        36.09479
271.21        35.36276
271.66        34.94661
272.12        34.83967
272.57        34.95898
273.03        35.07827
273.48        34.81453
273.94        34.13197
274.39        33.13223
274.85        32.05317
275.31        31.10314
275.76        30.33393
276.22         29.7189
276.67        29.20798
277.13        28.80671
277.58        28.45323
278.04        28.17245
278.49        27.88522
278.95        27.57247
279.40        27.17695
279.86        26.76122
280.31        26.28369
280.77        25.78416
281.22        25.25044
281.68         24.7374
282.13        24.26689
282.59         23.9373
283.04         23.7308
283.50        23.63459
283.95         23.5914
284.41        23.51967
284.86        23.39065
285.32        23.23989
285.77        23.08301
286.22        22.99488
286.68        22.98601
287.13        23.00534
287.59        23.02064
288.04        22.94674
288.50        22.79072
288.95         22.5579
289.41        22.31718
289.86        22.11306
290.32        21.98433
290.77        21.90282
291.22        21.85079
291.68        21.78664
292.13        21.70201
292.59        21.63956
293.04         21.6334
293.50        21.75328
293.95        22.00473
294.40        22.35895
294.86        22.79661
295.31         23.2812
295.77        23.79461
296.22        24.33412
296.68        24.86353
297.13        25.31709
297.58        25.69409
298.04        26.01143
298.49        26.33319
298.95        26.78046
299.40        27.36365
299.85        28.04022
300.31        28.72852
300.76        29.29437
301.21        29.70758
301.67        30.02402
302.12        30.27631
302.58        30.56672
303.03        30.90065
303.48        31.26783
303.94        31.65877
304.39        32.03118
304.84        32.38491
305.30        32.74083
305.75        33.08432
306.20        33.44135
306.66         33.8148
307.11        34.17162
307.57        34.49204
308.02          34.707
308.47        34.81428
308.93         34.8366
309.38        34.80372
309.83         34.8081
310.29        34.87053
310.74        34.96962
311.19        35.04505
311.65        34.99187
312.10        34.79091
312.55        34.48051
313.00        34.16543
313.46        33.99851
313.91        33.99321
314.36        34.10868
314.82         34.2281
315.27        34.17119
315.72        33.89577
316.18        33.47553
316.63        33.01544
317.08        32.69181
317.53        32.54729
317.99        32.51904
318.44        32.54103
318.89        32.49588
319.35        32.34376
319.80         32.1199
320.25        31.85391
320.70        31.59045
321.16        31.34505
321.61        31.11378
322.06        30.87899
322.51        30.62103
322.97        30.33481
323.42         30.0337
323.87         29.7599
324.32        29.58202
324.78        29.49631
325.23         29.4954
325.68        29.47854
326.13        29.28633
326.59        28.88793
327.04        28.34846
327.49         27.7837
327.94        27.37765
328.39        27.16967
328.85        27.08966
329.30        27.08363
329.75        26.99963
330.20         26.7905
330.66        26.50644
331.11        26.18721
331.56        25.87051
332.01        25.57598
332.46         25.2753
332.92        24.99248
333.37        24.81886
333.82        24.75387
334.27        24.79015
334.72        24.84117
335.17        24.75372
335.63         24.4955
336.08        24.12509
336.53        23.74942
336.98        23.55977
337.43        23.60166
337.88         23.8032
338.34        24.06983
338.79         24.2643
339.24        24.31771
339.69        24.27385
340.14        24.12601
340.59        23.86968
341.05        23.53649
341.50        23.12737
341.95        22.73373
342.40        22.49718
342.85        22.44403
343.30        22.54144
343.75        22.69322
344.20        22.73312
344.66        22.62121
345.11        22.40431
345.56        22.15951
346.01          22.012
346.46        21.99682
346.91        22.07151
347.36        22.18295
347.81          22.255
348.26        22.26262
348.72        22.22722
349.17         22.1781
349.62        22.17018
350.07         22.2137
350.52        22.29117
350.97        22.34576
351.42        22.29233
351.87         22.1193
352.32        21.85719
352.77        21.59286
353.22        21.45125
353.67        21.45325
354.13        21.56392
354.58        21.68633
355.03        21.66353
355.48         21.4621
355.93        21.13838
356.38        20.79847
356.83        20.59892
357.28        20.57162
357.73        20.66187
358.18        20.78556
358.63        20.80767
359.08        20.68983
359.53        20.47758
359.98        20.22798
360.43        20.02253
360.88        19.88325
361.33        19.78249
361.78        19.69055
362.23        19.56554
362.68          19.399
363.13        19.21129
363.58        19.02963
364.03        18.88947
364.48        18.79842
364.93        18.74454
365.38         18.7025
365.83        18.63349
366.28        18.52832
366.73        18.39741
367.18        18.26626
367.63        18.17564
368.08        18.13033
368.53        18.11185
368.98        18.09021
369.43        18.01817
369.88        17.88544
370.33         17.7124
370.78        17.51946
371.23        17.34112
371.68        17.19479
372.13        17.07271
372.58        16.98469
373.03         16.9444
373.48        16.94589
373.93        16.97996
374.38        17.01391
374.83         16.9953
375.28        16.91014
375.72        16.76704
376.17        16.59969
376.62        16.43969
377.07        16.30161
377.52        16.18129
377.97        16.07723
378.42        15.98873
378.87        15.91417
379.32        15.85104
379.77        15.80634
380.22        15.78639
380.67         15.7875
381.11         15.8134
381.56        15.81855
382.01        15.74623
382.46        15.59292
382.91        15.38145
383.36        15.18329
383.81        15.09784
384.26        15.13638
384.71         15.2675
385.15         15.4138
385.60         15.4491
386.05        15.34108
386.50        15.13207
386.95        14.89548
387.40        14.74537
387.85        14.70734
388.29        14.73091
388.74        14.78109
389.19          14.777
389.64        14.70133
390.09        14.57927
390.54        14.43896
390.98        14.32183
391.43        14.25172
391.88        14.21117
392.33        14.18299
392.78        14.14367
393.23         14.0883
393.67        14.02074
394.12        13.96598
394.57        13.93062
395.02        13.91502
395.47        13.90724
395.91        13.90235
396.36        13.88465
396.81        13.85807
397.26        13.83026
397.71         13.7935
398.15        13.74457
398.60        13.70224
399.05        13.61115
399.50        13.50597
399.95        13.53564
400.39        13.66075
400.84         13.6306
401.29        13.44986
401.74        13.33846
402.18        13.30913
402.63        13.22837
403.08        13.12251
403.53        13.09224
403.97         13.1429
404.42        13.24284
404.87        13.34523
405.32        13.37345
405.76         13.3082
406.21        13.18214
406.66        13.03709
407.11        12.93982
407.55        12.91204
408.00        12.92708
408.45        12.96311
408.90          12.975
409.34        12.94719
409.79        12.89901
410.24        12.84465
410.68         12.7968
411.13        12.76415
411.58         12.7389
412.03        12.71728
412.47        12.69832
412.92        12.67697
413.37        12.65745
413.81        12.64191
414.26        12.64281
414.71        12.65646
415.15        12.68293
415.60          12.705
416.05        12.70319
416.49        12.67449
416.94        12.62393
417.39        12.57116
417.83        12.54573
418.28         12.5526
418.73        12.58081
419.17        12.61555
419.62        12.63247
420.07         12.6244
420.51        12.59671
420.96        12.55652
421.41        12.51253
421.85        12.46434
422.30        12.40563
422.74        12.33667
423.19        12.31462
423.64        12.32127
424.08        12.28243
424.53        12.19799
424.98        12.16457
425.42        12.19441
425.87        12.20185
426.31        12.19009
426.76         12.2544
427.21        12.35646
427.65        12.32293
428.10        12.18455
428.54        12.11815
428.99        12.14078
429.44        12.19847
429.88        12.25675
430.33        12.21596
430.77        12.11051
431.22        12.16512
431.66        12.35641
432.11        12.42976
432.56        12.37564
433.00         12.3729
433.45        12.38116
433.89        12.24673
434.34         12.0704
434.78        11.78581
435.23        12.05884
435.67        12.11204
436.12        12.10933
436.57        12.08558
437.01        12.04985
437.46        12.02199
437.90        11.99893
438.35        11.94149
438.79        11.86479
439.24        11.83167
439.68        11.84922
440.13        11.89988
440.57        11.96222
441.02        12.01168
441.46        12.03627
441.91        12.01036
442.35        11.95431
442.80        12.01499
443.24        12.14465
443.69        12.12878
444.13        11.98215
444.58        11.92169
445.02         11.9536
445.47        11.96232
445.91        11.93996
446.36        11.93119
446.80        11.93245
447.24        11.93327
447.69        11.93506
448.13        11.93369
448.58        11.93128
449.02        11.92772
449.47        11.92503
449.91        11.92053
450.36        11.91707
450.80        11.91286
451.25        11.91246
451.69        11.91626
452.13        11.92509
452.58        11.93632
453.02        11.94563
453.47        11.94828
453.91        11.94264
454.36        11.93154
454.80        11.91283
455.24        11.88208
455.69        11.84378
456.13        11.79144
456.58        11.74566
457.02        11.71719
457.46        11.71381
457.91        11.73196
458.35        11.74649
458.79        11.71885
459.24        11.65549
459.68        11.56291
460.13        11.48626
460.57        11.46235
461.01        11.50685
461.46        11.59233
461.90        11.69893
462.34        11.78156
462.79        11.81962
463.23        11.83102
463.68        11.80646
464.12        11.74139
464.56        11.64355
465.01         11.5334
465.45        11.42845
465.89        11.38431
466.34        11.40584
466.78        11.47634
467.22        11.57038
467.67        11.62889
468.11        11.64076
468.55        11.61748
468.99        11.58022
469.44        11.56326
469.88        11.57718
470.32        11.60776
470.77        11.64821
471.21        11.69163
471.65        11.73119
472.10        11.77281
472.54        11.80492
472.98        11.81342
473.42        11.79769
473.87        11.76553
474.31        11.72688
474.75        11.70988
475.20        11.72308
475.64        11.75477
476.08         11.7955
476.52        11.82264
476.97        11.83226
477.41         11.8392
477.85        11.85514
478.29         11.8811
478.74          11.929
479.18        12.02015
479.62        12.13846
480.06        12.23885
480.50         12.3153
480.95        12.37341
481.39        12.39847
481.83        12.49307
482.27        12.47104
482.72        12.47423
483.16        12.48064
483.60        12.50848
484.04        12.55424
484.48        12.73734
484.93        13.02418
485.37        12.96189
485.81        12.93035
486.25        13.14469
486.69        12.55296
487.14        12.84851
487.58        13.86383
488.02        13.76695
488.46        13.38679
488.90        13.40042
489.34        13.39215
489.79        13.58987
490.23        13.68459
490.67        13.86224
491.11         14.0466
491.55        14.06396
491.99         13.9752
492.43        14.02068
492.88        14.22186
493.32        14.43301
493.76        14.61486
494.20        14.78431
494.64        14.93404
495.08        15.02758
495.52        15.08569
495.96         15.2443
496.41        15.47963
496.85        15.54605
497.29        15.46895
497.73        15.65347
498.17        15.86999
498.61        16.02059
499.05         16.0279
499.49         16.0676
499.93        16.11561
500.37        16.24909
500.82        16.43308
501.26        16.56627
501.70         16.6357
502.14        16.70723
502.58        16.79642
503.02        16.89322
503.46        16.99957
503.90        17.11637
504.34        17.22605
504.78         17.2993
505.22        17.33122
505.66        17.33324
506.10        17.32517
506.54        17.33917
506.98        17.38458
507.42        17.45089
507.86        17.53268
508.30        17.61977
508.74        17.70574
509.18        17.79471
509.62         17.8746
510.06        17.92618
510.50        17.94779
510.94        17.94334
511.38        17.93682
511.82        17.96774
512.26         18.0446
512.70        18.15741
513.14        18.27792
513.58        18.35945
514.02        18.38988
514.46        18.38083
514.90        18.35979
515.34        18.37197
515.78        18.42646
516.22        18.50671
516.66         18.5828
517.10        18.60782
517.54        18.57232
517.98        18.49575
518.42        18.40514
518.86        18.34206
519.30        18.31967
519.74        18.32502
520.18        18.34717
520.62        18.36869
521.06        18.38202
521.50        18.39264
521.93        18.39885
522.37        18.38994
522.81        18.36725
523.25        18.32992
523.69        18.28421
524.13        18.24225
524.57        18.20549
525.01        18.16916
525.45        18.12812
525.89        18.07366
526.32        18.00287
526.76        17.92648
527.20        17.84419
527.64        17.75614
528.08        17.66598
528.52        17.57485
528.96        17.49546
529.40        17.44738
529.83         17.4311
530.27        17.43904
530.71        17.45028
531.15        17.43298
531.59        17.37946
532.03         17.2994
532.46        17.20467
532.90        17.12675
533.34        17.07268
533.78        17.02711
534.22        16.98743
534.66        16.97028
535.09        16.96109
535.53         16.9212
535.97        16.86101
536.41        16.84011
536.85        16.86251
537.28         16.8959
537.72        16.93122
538.16        16.96726
538.60        16.99948
539.04        17.02789
539.47        17.05373
539.91           17.09
540.35        17.13658
540.79        17.19326
541.22        17.25511
541.66        17.32033
542.10        17.38629
542.54        17.45416
542.97        17.52989
543.41        17.62946
543.85        17.75204
544.29        17.89425
544.72         18.0377
545.16         18.1678
545.60        18.27836
546.04          18.377
546.47        18.48357
546.91         18.6262
547.35        18.80655
547.79        19.01338
548.22        19.22098
548.66        19.38721
549.10        19.52739
549.53        19.64567
549.97        19.76016
550.41        19.85464
550.84        19.95627
551.28        20.11065
551.72        20.29216
552.15        20.47655
552.59        20.68061
553.03        20.60894
553.46        20.88278
553.90        20.96443
554.34        21.03872
554.77        21.10634
555.21        21.18752
555.65        21.29654
556.08        21.42639
556.52        21.55981
556.96        21.67842
557.39        21.81317
557.83        21.94226
558.27        21.94601
558.70        21.85677
559.14         21.8592
559.57        21.95184
560.01        22.01885
560.45          22.055
560.88        22.11987
561.32        22.22192
561.75        22.32568
562.19        22.42468
562.63        22.49406
563.06         22.5321
563.50          22.569
563.93        22.59799
564.37        22.64904
564.80        22.73614
565.24        22.80423
565.68        22.80305
566.11        23.14495
566.55         22.9974
566.98        23.05751
567.42        23.12461
567.85        23.24568
568.29        23.42876
568.72         23.6708
569.16        23.97281
569.60        24.16142
570.03        24.30991
570.47        24.49084
570.90        24.74524
571.34         24.5698
571.77        24.89478
572.21         24.9521
572.64        25.01998
573.08        25.18227
573.51        25.43013
573.95        25.55031
574.38        25.60422
574.82        25.67977
575.25        25.58479
575.69        25.75333
576.12        26.10695
576.56        25.99216
576.99        26.00543
577.42        26.05632
577.86        25.83794
578.29        26.02358
578.73        25.84192
579.16         25.9772
579.60        25.81363
580.03        25.76729
580.47        25.56833
580.90        25.73417
581.33        25.64333
581.77          25.355
582.20        24.93364
582.64        25.13678
583.07         25.2376
583.51        25.24886
583.94        24.99425
584.37        24.76514
584.81        24.63811
585.24        24.49413
585.68        24.41158
586.11        24.22419
586.54        24.37329
586.98        24.23856
587.41        24.00064
587.85        23.78587
588.28        23.65648
588.71        23.76625
589.15        23.65349
589.58        23.59809
590.01        23.98036
590.45        23.78069
590.88        23.90791
591.31         23.7518
591.75        23.65771
592.18        23.57966
592.61        23.47832
593.05        24.02141
593.48        24.14073
593.91        23.76548
594.35        24.26067
594.78        24.12796
595.21        23.93632
595.65        24.07392
596.08        24.57775
596.51        24.79593
596.94        24.63061
597.38        24.72936
597.81        25.07858
598.24        25.32757
598.68        25.51297
599.11        25.81553
599.54        26.17168
599.97        26.36518
600.41        26.70916
600.84        26.82686
601.27        27.21282
601.70        27.54568
602.14        27.88308
602.57        28.15567
603.00        28.46319
603.43        28.46206
603.87        29.24095
604.30        29.71241
604.73        30.22134
605.16        30.15303
605.60        30.48779
606.03        30.65011
606.46        30.95626
606.89        31.17715
607.32        32.01887
607.76        32.25539
608.19        32.64983
608.62        32.91751
609.05        33.26592
609.48        33.49335
609.92        34.02498
610.35          34.169
610.78        34.39315
611.21         34.2729
611.64        34.82817
612.07        35.15915
612.50         35.3279
612.94         35.5773
613.37        35.84222
613.80        35.93722
614.23        35.94351
614.66         36.0752
615.09        36.60625
615.52        36.96342
615.96        37.17305
616.39        37.40489
616.82        37.65979
617.25        37.74109
617.68          37.718
618.11        37.97921
618.54        38.46466
618.97        38.68914
619.40        38.64832
619.84        38.79963
620.27        38.80329
620.70        39.01247
621.13        39.29147
621.56        38.94672
621.99        38.88768
622.42        38.82838
622.85        39.01823
623.28         39.1638
623.71        39.26244
624.14        39.16873
624.57        39.45166
625.00        39.34782
625.43        39.27787
625.86        39.15121
626.29        39.13095
626.72        38.65014
627.15        38.84718
627.58        38.79331
628.01        38.76318
628.44        38.64022
628.87        38.41185
629.30         38.0989
629.73        37.75096
630.16        37.47575
630.59         37.2921
631.02        37.16167
631.45        37.03767
631.88        36.84729
632.31        36.56577
632.74        36.21483
633.17        35.81479
633.60        35.39924
634.03        34.98584
634.46        34.56593
634.89         34.1442
635.32        33.73685
635.75        33.34988
636.18        32.94968
636.61         32.5537
637.04        32.20282
637.47        31.89664
637.89        31.61871
638.32        31.33432
638.75        31.02146
639.18        30.67807
639.61        30.31548
640.04        29.96852
640.47          29.688
640.90        29.48375
641.33         29.3435
641.76        29.23349
642.18        29.10163
642.61        28.92776
643.04        28.73221
643.47        28.55382
643.90        28.45448
644.33        28.44702
644.76        28.51126
645.18         28.6071
645.61        28.66405
646.04        28.67089
646.47        28.65321
646.90        28.65477
647.33        28.74743
647.75        28.94309
648.18        29.22525
648.61         29.5765
649.04         29.9355
649.47         30.2323
649.89        30.76568
650.32        30.77178
650.75        31.18081
651.18        31.72407
651.61        32.15695
652.03        32.48852
652.46        32.86972
652.89        33.33495
653.32        33.86435
653.74        34.34745
654.17        34.71542
654.60        34.96034
655.03        35.10088
655.46        34.49445
655.88         35.6978
656.31        36.56335
656.74        35.59083
657.16        39.01881
657.59         43.3674
658.02        39.61035
658.45        39.00784
658.87        38.78655
659.30        39.42544
659.73        39.33036
660.15        40.32011
660.58        39.94756
661.01        40.21479
661.44        40.54754
661.86        40.58105
662.29        40.36481
662.72        40.70377
663.14        40.84793
663.57        41.09577
664.00        41.23765
664.42        41.51355
664.85        41.92551
665.27        42.36229
665.70        42.72831
666.13        42.95386
666.55        43.02165
666.98         42.9073
667.41        42.69271
667.83        42.79199
668.26        42.79729
668.69        43.02672
669.11        43.29771
669.54        43.52232
669.96        43.67623
670.39        43.80318
670.82        43.91428
671.24        44.00206
671.67        44.09243
672.09        44.15102
672.52        44.21497
672.94        44.44855
673.37        44.76998
673.80        44.78608
674.22        44.56204
674.65        44.53775
675.07        44.75528
675.50        44.94749
675.92        45.07376
676.35        45.17769
676.77        45.24877
677.20        45.27947
677.62        45.29213
678.05        45.32127
678.47         45.3744
678.90        45.44402
679.32        45.53019
679.75        45.62691
680.17        45.72491
680.60        45.86818
681.02        46.02796
681.45        46.06588
681.87        46.02888
682.30        46.11104
682.72        46.30988
683.15        46.45985
683.57        46.53323
684.00        46.51335
684.42        46.45494
684.85        46.51112
685.27        46.68897
685.70        46.90283
686.12        47.09314
686.54        47.21646
686.97        47.25154
687.39        47.21761
687.82        47.14199
688.24        47.08459
688.66        47.06688
689.09        47.07614
689.51        47.12292
689.94         47.2016
690.36        47.31353
690.78        47.43957
691.21         47.5814
691.63        47.75323
692.06        47.93874
692.48        48.09365
692.90        48.18678
693.33        48.21788
693.75        48.18184
694.17        48.04362
694.60        47.88684
695.02         47.8561
695.44        47.95664
695.87        48.18839
696.29        48.44143
696.71        48.34304
697.14        48.00618
697.56        47.95734
697.98        48.16525
698.41        48.56123
698.83        48.35204
699.25        48.49296
699.68        48.70734
700.10        48.82048
700.52         48.7946
700.94        48.70232
701.37        48.61258
701.79        48.62122
702.21        48.74788
702.64        48.94712
703.06        49.16657
703.48        49.31039
703.90        49.35082
704.33        49.31907
704.75         49.2497
705.17        49.19267
705.59        49.17357
706.01        49.17703
706.44        49.20852
706.86        49.30245
707.28        49.44896
707.70        49.60595
708.12         49.7558
708.55        49.93634
708.97        50.10008
709.39        50.07078
709.81        49.89151
710.23        49.82033
710.66        49.88663
711.08        49.96879
711.50        50.01933
711.92        50.03146
712.34        49.99758
712.76         49.9336
713.19        49.85976
713.61         49.8368
714.03        49.86949
714.45        49.94328
714.87        50.05844
715.29        50.21679
715.71        50.40689
716.13        50.61797
716.56        50.80022
716.98        50.93815
717.40        50.99102
717.82        50.96712
718.24        50.88253
718.66        50.76586
719.08        50.64414
719.50        50.53418
719.92        50.45265
720.34        50.41878
720.76        50.43697
721.19          50.482
721.61        50.59439
722.03        50.80159
722.45        51.08567
722.87        51.42004
723.29        51.69554
723.71         51.7386
724.13        51.52526
724.55        51.12456
724.97         50.6715
725.39        50.39104
725.81        50.34932
726.23        50.46435
726.65        50.67637
727.07        50.99707
727.49        51.19751
727.91        51.45066
728.33        51.66985
728.75        51.80363
729.17        51.83963
729.59        51.77844
730.01        51.67088
730.43        51.61043
730.85        51.62038
731.27         51.6745
731.69        51.73847
732.10        51.75293
732.52        51.70242
732.94        51.62534
733.36        51.55195
733.78        51.42567
734.20        51.25418
734.62        51.24265
735.04        51.46492
735.46        51.08073
735.88        51.60022
736.30        51.76739
736.72        52.01815
737.13        52.25212
737.55        52.39336
737.97        52.64193
738.39        52.86533
738.81        52.43875
739.23        51.58124
739.65        51.47672
740.06        52.05963
740.48         52.3021
740.90          52.151
741.32        52.22255
741.74        52.52851
742.16        52.73419
742.57        52.80556
742.99        52.86703
743.41         52.8926
743.83        52.70822
744.25        52.38293
744.67        52.19966
745.08        52.19845
745.50        52.18178
745.92        52.15553
746.34         52.2551
746.75         52.4335
747.17        52.50311
747.59        52.43742
748.01        52.34424
748.42        52.25122
748.84        52.07621
749.26        51.90319
749.68        51.99232
750.09        52.27737
750.51        52.42538
750.93        52.38522
751.35         52.2921
751.76         52.1711
752.18        52.04716
752.60         51.9339
753.01        51.81886
753.43        51.70613
753.85        51.64449
754.27        51.65036
754.68        51.72447
755.10        51.84873
755.52        51.99092
755.93        52.12062
756.35        52.22061
756.77        52.34569
757.18        52.45906
757.60        52.54802
758.02        52.89503
758.43        53.37888
758.85        52.77402
759.26        52.51942
759.68        52.11933
760.10        52.09193
760.51        52.37524
760.93        52.73261
761.34        52.99704
761.76        53.05746
762.18        53.02378
762.59        52.99092
763.01        52.98246
763.42        53.05077
763.84        53.19843
764.26        53.34336
764.67        53.09186
765.09        52.60497
765.50        52.46632
765.92        52.66578
766.33        52.66323
766.75        52.40022
767.16        52.25137
767.58        52.22269
768.00        52.21067
768.41        52.26078
768.83        52.39609
769.24        52.53838
769.66        52.74432
770.07         52.9189
770.49         52.5288
770.90        51.85218
771.32        52.19643
771.73        53.36458
772.15        53.77907
772.56        53.34177
772.97        52.89822
773.39        52.64388
773.80        52.54245
774.22        52.62718
774.63        52.88946
775.05        53.17538
775.46        53.34492
775.88        53.32067
776.29        53.14063
776.70        52.90906
777.12         52.8379
777.53        52.97733
777.95        53.21788
778.36        53.47665
778.77        53.59493
779.19         53.5502
779.60        53.42462
780.02        53.23847
780.43         53.1158
780.84        53.11216
781.26        52.87246
781.67        52.55467
782.09        53.13493
782.50        54.28285
782.91        54.28539
783.33        53.25181
783.74        52.87468
784.15        53.23928
784.57        53.35303
784.98        53.21401
785.39        53.26634
785.81        53.51316
786.22        53.84172
786.63        54.14226
787.04        54.27087
787.46        54.20623
787.87        53.92332
788.28        53.56583
788.70        53.59988
789.11          53.576
789.52         53.9382
789.93        54.36245
790.35         54.3728
790.76        53.99177
791.17        53.67427
791.58        53.59033
792.00        53.61752
792.41        53.72438
792.82        54.12823
793.23        54.61461
793.65        54.18372
794.06        53.16683
794.47        53.29807
794.88        54.37341
795.29        54.71291
795.71        54.23484
796.12        53.92327
796.53        53.90616
796.94        53.92603
797.35        54.00721
797.76        54.22514
798.18        54.47262
798.59          54.606
799.00        54.57176
799.41        54.40567
799.82        54.18433
800.23        54.05051
800.64        54.04088
801.06        54.07895
801.47        54.16804
801.88        54.24238
802.29        54.27409
802.70        54.28727
803.11        54.26181
803.52        54.15907
803.93         53.9948
804.34        53.78865
804.75        53.61066
805.17        53.61215
805.58        53.85329
805.99         54.1296
806.40        54.39084
806.81        54.89482
807.22         55.4297
807.63        55.22941
808.04        54.45617
808.45         54.0744
808.86        54.18686
809.27        54.29955
809.68        54.31803
810.09        54.31039
810.50        54.24962
810.91        54.12848
811.32        54.03768
811.73        54.11452
812.14        54.37842
812.55        54.78072
812.96        55.19059
813.37        55.36404
813.78        55.23262
814.19        54.88992
814.60        54.46214
815.01        54.11652
815.42        53.90263
815.83        53.77611
816.24        53.73673
816.65        53.78378
817.05        53.90659
817.46        54.08246
817.87        54.28144
818.28        54.41322
818.69        54.45672
819.10        54.42203
819.51        54.34337
819.92        54.29837
820.33        54.30867
820.74        54.34289
821.14        54.38969
821.55        54.42433
821.96        54.43991
822.37        54.46447
822.78        54.46955
823.19         54.4016
823.60        54.26003
824.00        54.06868
824.41        53.89142
824.82        53.92352
825.23        54.18898
825.64         54.6229
826.04        55.07199
826.45        55.25601
826.86        55.12197
827.27        54.76675
827.68        54.31014
828.08        53.98243
828.49        53.82507
828.90        53.78161
829.31        53.86462
829.72        54.09419
830.12        54.45979
830.53        54.91727
830.94        55.31451
831.35        55.34387
831.75        54.96387
832.16        54.25769
832.57         53.4815
832.97        53.03424
833.38        53.02456
833.79        53.32002
834.20        53.80008
834.60         54.2662
835.01        54.63589
835.42        54.99324
835.82        55.28354
836.23        55.34906
836.64        55.19421
837.04        54.82021
837.45        54.43164
837.86        54.42434
838.26          54.895
838.67        55.71706
839.08        56.57426
839.48        56.85311
839.89        56.39805
840.29         55.4273
840.70        54.41843
841.11        53.91521
841.51         54.0537
841.92        54.64965
842.33        55.46714
842.73         56.0863
843.14        56.26361
843.54        56.15757
843.95        55.91342
844.35        55.81077
844.76        55.90392
845.17        56.08926
845.57        56.23895
845.98        56.13053
846.38        55.74534
846.79        55.19068
847.19        54.61082
847.60        54.20589
848.00        54.04669
848.41        54.03875
848.81        54.17435
849.22        54.37285
849.62        54.61521
850.03        54.91332
850.43        55.16616
850.84        55.15636
851.24        54.88598
851.65        54.35208
852.05        53.83208
852.46        53.74781
852.86         54.1858
853.27        54.98531
853.67        55.78848
854.07        56.18454
854.48         56.0749
854.88        55.61237
855.29         54.9487
855.69         54.4632
856.10        54.24517
856.50        54.24608
856.90        54.36327
857.31        54.44122
857.71        54.46428
858.12        54.44003
858.52        54.42304
858.92        54.39768
859.33         54.3519
859.73        54.30794
860.13        54.22091
860.54        54.05054
860.94        53.83419
861.34        53.58434
861.75        53.37357
862.15        53.34748
862.55        53.51559
862.96        53.80487
863.36         54.1576
863.76        54.40955
864.17        54.48886
864.57        54.46078
864.97        54.30488
865.38        54.00512
865.78         53.6085
866.18         53.1191
866.58        52.66067
866.99        52.45211
867.39        52.56577
867.79        52.94445
868.19        53.44538
868.60        53.82325
869.00        54.02942
869.40        54.08812
869.80        54.07266
870.21        54.12499
870.61        54.32545
871.01        54.58046
871.41         54.7432
871.81        54.61565
872.22        54.17529
872.62        53.48664
873.02        52.77818
873.42        52.43209
873.82        52.54792
874.22        53.01469
874.63        53.55531
875.03        53.74439
875.43        53.46494
875.83        52.85028
876.23         52.1513
876.63        51.75807
877.03        51.77103
877.44        52.04074
877.84        52.38199
878.24         52.5393
878.64        52.37887
879.04        51.81802
879.44        51.13761
879.84        50.90237
880.24         51.1794
880.64        51.74824
881.04        52.27975
881.44        52.28046
881.84        51.65257
882.24        50.58598
882.65        49.49675
883.05        49.02111
883.45        49.31268
883.85        50.17672
884.25        51.27299
884.65        52.02084
885.05        52.22529
885.45        52.04472
885.85        51.69271
886.25        51.49958
886.65        51.55695
887.05        51.74855
887.45         51.9351
887.85        51.90796
888.25        51.61909
888.65        51.16573
889.04        50.69557
889.44        50.43716
889.84        50.43433
890.24        50.62048
890.64        50.86189
891.04         50.9441
891.44        50.81432
891.84        50.54565
892.24        50.26194
892.64        50.14352
893.04        50.23417
893.44        50.48106
893.83        50.79871
894.23        51.00387
894.63        51.06264
895.03        51.01236
895.43        50.94993
895.83        51.03769
896.23         51.2953
896.63        51.64253
897.02        51.93623
897.42        51.97969
897.82        51.73226
898.22        51.30203
898.62        50.79205
899.01        50.34256
899.41        50.02531
899.81        49.79583
900.21        49.70265
900.61        49.82438
901.00        50.14216
901.40        50.61308
901.80        51.09082
902.20        51.33101
902.59        51.28869
902.99        51.04038
903.39        50.68534
903.79        50.39907
904.18        50.24154
904.58        50.14901
904.98        50.18254
905.38        50.44236
905.77        50.91143
906.17        51.58016
906.57        52.19162
906.96        52.31055
907.36        51.84827
907.76        50.94828
908.15        50.00379
908.55         49.6298
908.95        49.97699
909.34        50.86934
909.74        51.92046
910.14        52.54818
910.53        52.54892
910.93        52.12265
911.33        51.46998
911.72        50.89157
912.12        50.55121
912.52        50.35744
912.91        50.26483
913.31        50.22578
913.70        50.21847
914.10        50.23627
914.49        50.36995
914.89        50.68637
915.29         51.1888
915.68        51.85146
916.08        52.39791
916.47        52.43309
916.87        51.91707
917.26        50.97084
917.66        50.04323
918.05        49.69529
918.45         50.0357
918.84         50.9388
919.24        51.99677
919.64        52.59237
920.03         52.5417
920.42        51.99302
920.82        51.32306
921.21        51.06958
921.61        51.35086
922.00        52.01911
922.40        52.73022
922.79        53.00205
923.19        52.67691
923.58        51.97142
923.98        51.18273
924.37        50.68008
924.77        50.57306
925.16        50.71317
925.55        50.98808
925.95        51.19608
926.34        51.26688
926.74        51.25177
927.13        51.16164
927.52        50.94193
927.92        50.65088
928.31        50.29768
928.70        49.98285
929.10        49.84848
929.49        49.90805
929.89        50.06944
930.28        50.38255
930.67        50.83438
931.07        51.35033
931.46        51.97614
931.85        52.41749
932.24         52.2454
932.64        51.45539
933.03        50.18192
933.42        48.93067
933.82        48.43392
934.21        48.83786
934.60        49.97279
934.99         51.3823
935.39        52.22742
935.78        52.27256
936.17        51.67838
936.56        50.84047
936.96        50.38488
937.35        50.47322
937.74        50.90514
938.13        51.34835
938.53        51.31359
938.92        50.71653
939.31        49.78016
939.70        48.83276
940.09        48.31651
940.49        48.30722
940.88        48.67303
941.27        49.23063
941.66        49.64529
942.05        49.78782
942.44        49.77168
942.84         49.6556
943.23        49.51455
943.62        49.39899
944.01        49.25214
944.40        49.14561
944.79        49.22172
945.18        49.48531
945.57        49.89391
945.97         50.2593
946.36        50.33321
946.75        50.02929
947.14        49.47791
947.53        48.84563
947.92        48.36573
948.31         48.1162
948.70        48.03274
949.09        48.12738
949.48        48.41739
949.87        48.86507
950.26        49.44409
950.65        50.02301
951.04        50.38324
951.43        50.45438
951.82        50.27464
952.21        49.92036
952.60        49.53704
952.99        49.20865
953.38        48.94386
953.77        48.76497
954.16        48.69679
954.55        48.73729
954.94        48.86272
955.33        49.10832
955.72        49.51603
956.11        50.05035
956.50        50.67656
956.89        51.15131
957.28        51.09024
957.66        50.43456
958.05        49.35526
958.44        48.22343
958.83        47.57208
959.22        47.50719
959.61        47.88998
960.00        48.46162
960.39        48.72937
960.78        48.53914
961.16        48.05895
961.55        47.51768
961.94        47.19486
962.33        47.17628
962.72        47.37722
963.11        47.71598
963.49        48.07115
963.88        48.31141
964.27         48.4459
964.66        48.55969
965.04        48.80762
965.43        49.17004
965.82        49.65099
966.21        49.97152
966.60         49.6452
966.98        48.60529
967.37        47.10943
967.76        45.72918
968.15        45.16787
968.53        45.54046
968.92        46.70905
969.31        48.17328
969.69        48.90778
970.08        48.53862
970.47        47.39081
970.86        46.21223
971.24        46.08355
971.63        47.21641
972.02        49.30529
972.40        51.67485
972.79        52.76532
973.17        52.12814
973.56         50.3138
973.95        48.17393
974.33        46.78838
974.72        46.40723
975.11        46.68997
975.49        47.34275
975.88        47.79898
976.26        47.85907
976.65        47.69374
977.04        47.43095
977.42        47.20614
977.81         47.0388
978.19         46.8312
978.58        46.67566
978.96        46.70294
979.35         46.9092
979.74        47.27967
980.12        47.72774
980.51         47.8853
980.89         47.7872
981.28        47.53222
981.66        47.29018
982.05        47.26374
982.43        47.51981
982.82        47.93956
983.20        48.64157
983.59         49.7661
983.97        51.31102
984.35        53.21769
984.74        54.84831
985.12         55.3865
985.51        54.59817
985.89        52.72181
986.28        50.64994
986.66        49.65976
987.04        50.09975
987.43        51.68356
987.81        53.58946
988.20        54.15622
988.58        52.92653
988.96        50.39762
989.35        47.67205
989.73        46.32298
990.12         46.6446
990.50        48.20384
990.88        50.03655
991.27         50.4549
991.65        49.04897
992.03        46.48811
992.42        43.88935
992.80        42.76023
993.18        43.42834
993.56        45.45111
993.95        48.03552
994.33        49.76432
994.71        49.98658
995.10        49.19331
995.48        48.01599
995.86        47.46608
996.24        47.80467
996.63        48.58739
997.01         49.5814
997.39        50.10991
997.77        49.89916
998.15        49.33199
998.54        48.51403
998.92        47.42963
999.30        46.27099
999.68        45.07391
1000.06        44.32098
1000.45         44.7025
1000.83        46.39098
1001.21        49.24918
1001.59        52.69743
1001.97        55.17501
1002.35        55.96168
1002.73        55.45522
1003.12        54.31175
1003.50        53.33222
1003.88        52.86378
1004.26        52.52946
1004.64        52.52834
1005.02        53.23515
1005.40        54.62484
1005.78        56.74401
1006.16        58.59946
1006.54        58.57783
1006.92        56.55494
1007.30        53.09578
1007.69        49.72388
1008.07         48.4819
1008.45        49.95522
1008.83        53.66907
1009.21        58.44411
1009.59        61.33317
1009.97        60.91965
1010.35        58.08933
1010.73        54.10461
1011.11        50.77323
1011.49        48.71508
1011.86         47.4616
1012.24        46.85439
1012.62        46.71756
1013.00        46.95543
1013.38        47.75493
1013.76        49.08478
1014.14        50.59178
1014.52        51.94273
1014.90        52.90868
1015.28        53.48902
1015.66        53.91365
1016.04        54.25198
1016.41        54.47441
1016.79        54.30254
1017.17        53.35427
1017.55         51.6636
1017.93        49.45924
1018.31         47.4151
1018.69        46.37174
1019.06        46.47807
1019.44        47.70574
1019.82        49.33401
1020.20        49.70224
1020.58        48.28308
1020.95        45.60711
1021.33        43.12988
1021.71        42.49188
1022.09        43.93378
1022.46        47.24666
1022.84        51.28078
1023.22        52.99444
1023.60        51.22501
1023.97        46.91058
1024.35        42.68202
1024.73        41.51265
