SpectraSmart Spectrum 2.9.0.0
--------- Device Information -----------
Spectrum Name :  反射率_0
Saving Time :  2024/04/26 22:09:30
Spectro-Module Model Name : SE2030-DUVN
Spectro-Module Serial Number : OS361AC55029948
Wavelength Start : 200
Wavelength End : 1025
Wavelength Unit : Wavelength(nm)
Spectrum Unit : Reflectance(%)
-----------Spectrum Setting ------------
Integration Time : 20ms
Average : 10
Boxcar : 0
Background removal :  enabled
linearity correction :  enabled
SC :  disabled
Intensity correction :  disabled
DWT denoise :  enabled
savitzky-golay :  disabled
FFT :  disabled
Running average :  disabled
Kalman :  disabled
High pass :  disabled
---------------BEGIN--------------------
Wavelength(nm)             Reflectance(%)
200.29               0
200.75        35.30645
201.21        40.15117
201.67        44.98461
202.13        47.88324
202.58        48.76878
203.04        48.52268
203.50        47.87749
203.96        48.50145
204.42        51.33467
204.88        55.81028
205.34        59.91163
205.80        60.54224
206.26        57.25299
206.72        51.54556
207.18         46.1572
207.64        42.99938
208.10        41.95037
208.55        42.99915
209.01        44.55882
209.47        42.69466
209.93        37.57817
210.39          32.738
210.85        30.54579
211.31        32.29732
211.77        39.13242
212.23        56.06706
212.69        100.4635
213.14         181.633
213.60        190.4231
214.06        142.1192
214.52        106.3189
214.98        89.65411
215.44        82.13034
215.90        76.87528
216.36        73.31032
216.81        71.61646
217.27        72.11669
217.73        77.06654
218.19        85.04482
218.65        86.62118
219.11        79.66711
219.57        69.99605
220.02        64.85437
220.48        69.09088
220.94        82.72802
221.40        107.9272
221.86        143.1905
222.32        163.4063
222.77        149.2979
223.23        118.7979
223.69        91.18182
224.15        76.85951
224.61        73.00218
225.06        73.76242
225.52        76.73444
225.98        79.48005
226.44        81.43425
226.90        83.53809
227.36        85.18332
227.81        85.00845
228.27        83.18518
228.73        80.07677
229.19        77.05193
229.65        75.77187
230.10        76.23012
230.56        77.90483
231.02        79.75406
231.48        80.12962
231.93        78.72913
232.39        76.64532
232.85         74.5311
233.31        73.29386
233.77        73.02493
234.22        73.26119
234.68        73.89819
235.14        74.94852
235.60         76.3005
236.05        78.17354
236.51        79.70708
236.97        79.27342
237.43        76.46716
237.88        71.75774
238.34        66.81128
238.80        64.70618
239.26          66.562
239.71        72.75086
240.17        82.19824
240.63        90.99597
241.08        96.18793
241.54        96.93246
242.00        95.26018
242.46        96.47965
242.91        104.2148
243.37        119.0444
243.83        140.6095
244.28        156.2622
244.74        149.7366
245.20        124.5431
245.66        98.36415
246.11        84.79836
246.57        83.42393
247.03        89.06632
247.48        96.12844
247.94        95.48697
248.40        87.70525
248.85        78.47839
249.31        70.80647
249.77        65.08472
250.22        60.33665
250.68        55.05927
251.14        49.88082
251.59        48.26883
252.05        51.99084
252.51        59.46326
252.96        66.06104
253.42        67.96496
253.88        65.74878
254.33         61.0735
254.79        57.48009
255.25        57.71845
255.70        61.49751
256.16         67.6355
256.62        73.13531
257.07        73.56238
257.53        70.07945
257.99        65.36435
258.44        61.56275
258.90        60.77863
259.35        62.00005
259.81        64.45967
260.27        66.75998
260.72        67.24094
261.18         66.1495
261.63        64.04549
262.09         62.1685
262.55         61.2734
263.00        61.22731
263.46        61.76266
263.91        62.14439
264.37         61.8077
264.83        60.68862
265.28        59.09162
265.74        57.63837
266.19        56.73948
266.65        56.52791
267.11        56.70136
267.56        56.99499
268.02        57.01236
268.47        56.62011
268.93        55.98666
269.38        55.15694
269.84         54.2663
270.30        53.35696
270.75        52.37461
271.21         51.4388
271.66        50.66469
272.12        50.07874
272.57        49.63552
273.03        49.20815
273.48        48.56157
273.94        47.71152
274.39        46.68811
274.85        45.70954
275.31          44.913
275.76        44.29575
276.22        43.85303
276.67        43.43092
277.13        42.93279
277.58        42.27834
278.04        41.54961
278.49        40.78618
278.95        40.18572
279.40         39.7113
279.86        39.37628
280.31        39.00274
280.77         38.4755
281.22        37.73422
281.68        36.91508
282.13        36.10889
282.59        35.54645
283.04        35.20963
283.50         35.0446
283.95        34.91684
284.41        34.64458
284.86        34.18434
285.32        33.63864
285.77        33.07951
286.22        32.67248
286.68        32.44258
287.13         32.2897
287.59         32.1706
288.04         31.9709
288.50        31.68987
288.95         31.3405
289.41        30.95886
289.86        30.51732
290.32        30.06974
290.77        29.61135
291.22        29.21408
291.68        28.96848
292.13        28.87785
292.59        28.93248
293.04        29.08538
293.50        29.28216
293.95        29.48717
294.40         29.7125
294.86        29.95859
295.31        30.21882
295.77        30.50123
296.22        30.79405
296.68        31.10298
297.13        31.42548
297.58        31.76843
298.04        32.13071
298.49        32.52395
298.95        32.98197
299.40         33.4936
299.85        34.04903
300.31        34.59563
300.76        35.04164
301.21        35.37468
301.67        35.63123
302.12        35.85418
302.58        36.17311
303.03        36.57911
303.48        37.04782
303.94        37.51895
304.39        37.86538
304.84        38.07883
305.30        38.21348
305.75        38.30184
306.20        38.45013
306.66        38.68964
307.11         38.9673
307.57        39.25441
308.02         39.4572
308.47        39.56639
308.93        39.61529
309.38        39.62592
309.83         39.6827
310.29        39.80146
310.74        39.95156
311.19        40.07565
311.65        40.07738
312.10        39.93438
312.55         39.6809
313.00        39.40614
313.46        39.23968
313.91        39.19451
314.36        39.24374
314.82        39.29609
315.27        39.21517
315.72        38.96731
316.18         38.6087
316.63         38.2262
317.08        37.97019
317.53        37.87195
317.99        37.87763
318.44        37.90873
318.89        37.82538
319.35        37.59258
319.80        37.25799
320.25        36.89006
320.70        36.59742
321.16        36.40686
321.61        36.29061
322.06        36.19992
322.51        36.06203
322.97        35.84726
323.42        35.58239
323.87        35.29922
324.32        35.05196
324.78        34.84341
325.23         34.6805
325.68        34.50319
326.13        34.22681
326.59        33.84526
327.04        33.40746
327.49        33.00585
327.94        32.78514
328.39        32.76814
328.85        32.89153
329.30        33.08295
329.75        33.14556
330.20        33.01336
330.66          32.726
331.11        32.36779
331.56        32.05298
332.01        31.82158
332.46        31.63824
332.92        31.45467
333.37         31.2434
333.82        30.98001
334.27        30.69805
334.72        30.43868
335.17        30.25489
335.63        30.15889
336.08        30.15075
336.53        30.18824
336.98        30.21525
337.43        30.20927
337.88        30.16804
338.34         30.1205
338.79        30.15268
339.24        30.26107
339.69        30.41717
340.14        30.52966
340.59        30.45699
341.05        30.18933
341.50        29.78287
341.95        29.36017
342.40        29.10419
342.85        29.06006
343.30        29.16967
343.75        29.35711
344.20         29.4964
344.66        29.54437
345.11        29.53504
345.56        29.48077
346.01         29.4027
346.46        29.31763
346.91         29.2162
347.36         29.1171
347.81        29.05804
348.26        29.04414
348.72        29.06648
349.17        29.10497
349.62        29.13635
350.07        29.14954
350.52        29.15392
350.97        29.12866
351.42        29.04303
351.87        28.90012
352.32        28.71155
352.77        28.53184
353.22        28.44062
353.67        28.44973
354.13         28.5372
354.58        28.64086
355.03        28.65677
355.48         28.5581
355.93        28.37564
356.38        28.17084
356.83        28.03733
357.28        27.99185
357.73         27.9973
358.18        27.99964
358.63        27.91531
359.08        27.72392
359.53        27.45905
359.98        27.15972
360.43          26.878
360.88        26.63085
361.33        26.40564
361.78        26.19388
362.23        25.98422
362.68        25.77747
363.13        25.58561
363.58        25.41744
364.03        25.28015
364.48        25.17338
364.93        25.09093
365.38        25.02465
365.83        24.96436
366.28        24.90406
366.73        24.84074
367.18        24.77323
367.63        24.70257
368.08        24.62546
368.53        24.53709
368.98        24.43111
369.43        24.29819
369.88        24.13822
370.33        23.95872
370.78        23.76664
371.23        23.57386
371.68        23.38998
372.13        23.21663
372.58        23.06529
373.03        22.95108
373.48        22.87124
373.93        22.81546
374.38        22.76304
374.83        22.68132
375.28        22.56129
375.72        22.40866
376.17        22.24308
376.62        22.06675
377.07        21.88986
377.52        21.71573
377.97        21.56504
378.42        21.47461
378.87        21.44565
379.32        21.45506
379.77        21.48152
380.22        21.49133
380.67        21.47075
381.11        21.43944
381.56         21.3573
382.01        21.18687
382.46        20.94128
382.91        20.64515
383.36          20.385
383.81        20.27955
384.26        20.33843
384.71        20.52179
385.15        20.73557
385.60        20.82024
386.05        20.73281
386.50        20.52497
386.95        20.26694
387.40        20.07252
387.85        19.97202
388.29        19.90871
388.74        19.88278
389.19        19.84892
389.64        19.79239
390.09        19.73191
390.54        19.64949
390.98        19.50789
391.43        19.32688
391.88        19.12245
392.33        18.94753
392.78        18.87704
393.23        18.91804
393.67        19.03166
394.12        19.18619
394.57        19.29967
395.02        19.34743
395.47        19.33549
395.91        19.29062
396.36        19.24946
396.81        19.23343
397.26        19.23579
397.71        19.21261
398.15        19.11268
398.60        18.96273
399.05        18.71479
399.50        18.46421
399.95        18.47834
400.39        18.71356
400.84        18.80293
401.29         18.7101
401.74        18.67091
402.18        18.67974
402.63        18.56594
403.08        18.37838
403.53        18.27961
403.97        18.29032
404.42        18.36341
404.87        18.44799
405.32        18.46199
405.76         18.3839
406.21        18.25397
406.66        18.11762
407.11        18.04493
407.55        18.05746
408.00        18.12171
408.45        18.20464
408.90        18.23986
409.34        18.20547
409.79        18.12888
410.24        18.03575
410.68         17.9547
411.13        17.90054
411.58         17.8604
412.03        17.83152
412.47        17.81444
412.92         17.8014
413.37         17.7997
413.81        17.80166
414.26        17.80991
414.71         17.8183
415.15        17.83152
415.60        17.84131
416.05        17.85218
416.49        17.86455
416.94        17.87003
417.39        17.87389
417.83        17.88355
418.28        17.89721
418.73         17.9115
419.17        17.91151
419.62        17.87386
420.07        17.79843
420.51        17.69295
420.96        17.58603
421.41        17.51693
421.85        17.48777
422.30        17.48021
422.74        17.46962
423.19        17.49859
423.64        17.53288
424.08        17.47347
424.53        17.33904
424.98          17.298
425.42        17.37601
425.87         17.4418
426.31        17.47802
426.76         17.5874
427.21        17.70828
427.65        17.60177
428.10        17.34192
428.54         17.2251
428.99        17.28278
429.44         17.4246
429.88        17.56871
430.33        17.52069
430.77        17.32258
431.22        17.31632
431.66        17.49853
432.11        17.56119
432.56        17.50506
433.00        17.56996
433.45        17.67108
433.89        17.53714
434.34        17.29113
434.78        16.85611
435.23        17.20956
435.67        17.27652
436.12        17.29949
436.57        17.31484
437.01        17.31634
437.46        17.30156
437.90        17.25791
438.35        17.14177
438.79        16.99169
439.24        16.92312
439.68        16.95116
440.13         17.0413
440.57        17.15336
441.02        17.23631
441.46        17.26852
441.91        17.22304
442.35        17.13017
442.80        17.20151
443.24        17.37123
443.69        17.33113
444.13        17.11507
444.58        17.05131
445.02         17.1499
445.47        17.23562
445.91        17.27665
446.36        17.30617
446.80         17.3116
447.24        17.28841
447.69        17.24921
448.13         17.2066
448.58          17.172
449.02        17.14081
449.47         17.1221
449.91        17.12047
450.36        17.13968
450.80        17.17383
451.25        17.21593
451.69        17.24305
452.13        17.25118
452.58        17.24117
453.02        17.21887
453.47        17.19779
453.91        17.18229
454.36        17.17365
454.80        17.15933
455.24        17.11806
455.69        17.05481
456.13        16.96743
456.58        16.89922
457.02        16.88693
457.46         16.9414
457.91         17.0451
458.35        17.14365
458.79        17.15573
459.24        17.08194
459.68        16.94235
460.13        16.80565
460.57        16.73132
461.01        16.74795
461.46         16.8186
461.90        16.92854
462.34        17.03839
462.79        17.12374
463.23        17.20181
463.68        17.24485
464.12        17.21834
464.56        17.12181
465.01         16.9915
465.45        16.85088
465.89        16.78014
466.34        16.78959
466.78        16.85272
467.22        16.94921
467.67        17.02369
468.11          17.066
468.55        17.08541
468.99        17.08458
469.44        17.06622
469.88        17.03733
470.32        16.99334
470.77        16.95492
471.21        16.96064
471.65        17.01412
472.10         17.1074
472.54        17.20601
472.98        17.25986
473.42        17.25821
473.87        17.22351
474.31        17.17223
474.75        17.14651
475.20        17.16181
475.64        17.19904
476.08        17.25269
476.52        17.30413
476.97        17.34727
477.41         17.3978
477.85        17.45675
478.29        17.49789
478.74        17.53346
479.18        17.60724
479.62        17.70635
480.06        17.78094
480.50         17.8318
480.95        17.86573
481.39        17.86885
481.83        17.99724
482.27         17.9793
482.72         18.0148
483.16        18.05382
483.60        18.08571
484.04        18.10152
484.48        18.28234
484.93        18.56385
485.37        18.34252
485.81        18.27526
486.25         18.3692
486.69        17.79911
487.14         18.4682
487.58        19.33266
488.02        19.13757
488.46        18.87503
488.90        19.06327
489.34        19.04199
489.79        19.36943
490.23        19.58969
490.67        19.68012
491.11        19.64694
491.55        19.72165
491.99        19.91555
492.43        20.03266
492.88        20.06796
493.32        20.12137
493.76        20.21243
494.20        20.33267
494.64        20.48925
495.08        20.67693
495.52        20.85623
495.96         21.0127
496.41        21.13106
496.85        21.10921
497.29        20.99916
497.73        21.20304
498.17        21.41294
498.61        21.58977
499.05        21.62628
499.49        21.70055
499.93        21.77276
500.37        21.96654
500.82         22.2248
501.26        22.39373
501.70        22.45434
502.14        22.49475
502.58         22.5582
503.02        22.67052
503.46        22.84033
503.90        23.05713
504.34        23.26411
504.78        23.36693
505.22        23.34663
505.66        23.23642
506.10        23.09986
506.54        23.03741
506.98        23.07766
507.42        23.19236
507.86         23.3455
508.30        23.47643
508.74        23.56354
509.18        23.62519
509.62        23.67421
510.06         23.7299
510.50         23.7987
510.94         23.8701
511.38        23.93714
511.82         23.9933
512.26        24.03628
512.70        24.06877
513.14        24.09921
513.58        24.13905
514.02        24.19049
514.46        24.25119
514.90        24.30609
515.34        24.33142
515.78        24.32323
516.22        24.28807
516.66        24.24924
517.10        24.24392
517.54        24.27918
517.98        24.34344
518.42        24.40843
518.86        24.42883
519.30        24.39515
519.74        24.32274
520.18        24.23938
520.62        24.18817
521.06        24.18002
521.50        24.20136
521.93        24.23449
522.37         24.2414
522.81        24.21641
523.25        24.17282
523.69        24.12232
524.13        24.08267
524.57        24.05679
525.01        24.03156
525.45        24.00647
525.89        23.98252
526.32        23.95413
526.76        23.93063
527.20        23.88963
527.64        23.79752
528.08        23.65556
528.52        23.47826
528.96        23.31198
529.40        23.22836
529.83        23.23919
530.27        23.32202
530.71        23.42599
531.15        23.47095
531.59        23.43474
532.03        23.33957
532.46        23.21541
532.90        23.12687
533.34        23.08759
533.78        23.06661
534.22        23.04584
534.66        23.02776
535.09        22.98929
535.53        22.88724
535.97        22.75123
536.41        22.68389
536.85        22.69762
537.28        22.74501
537.72        22.80435
538.16        22.85774
538.60        22.89572
539.04        22.92404
539.47        22.95457
539.91         23.0206
540.35        23.12224
540.79        23.24848
541.22        23.37926
541.66        23.49223
542.10        23.57754
542.54        23.64322
542.97        23.69962
543.41        23.77319
543.85        23.86776
544.29        23.97923
544.72        24.09429
545.16        24.20897
545.60         24.3181
546.04        24.42986
546.47        24.55712
546.91        24.71439
547.35        24.89897
547.79        25.10128
548.22         25.3033
548.66        25.47401
549.10        25.63646
549.53        25.78746
549.97        25.93097
550.41        26.01464
550.84         26.0703
551.28        26.17194
551.72        26.30725
552.15        26.47759
552.59        26.71313
553.03        26.61875
553.46        26.98722
553.90        27.11009
554.34        27.21638
554.77        27.30825
555.21        27.40041
555.65        27.49327
556.08         27.5792
556.52          27.647
556.96        27.69025
557.39        27.77452
557.83        27.88004
558.27        27.84743
558.70        27.72295
559.14         27.7461
559.57        27.91057
560.01        28.06673
560.45        28.17962
560.88        28.28471
561.32        28.38677
561.75        28.44509
562.19        28.48713
562.63        28.55208
563.06        28.64188
563.50        28.74734
563.93        28.83014
564.37        28.90526
564.80        28.98092
565.24        28.99206
565.68        28.89841
566.11        29.25853
566.55        29.02847
566.98        29.07583
567.42        29.15083
567.85        29.25705
568.29        29.56514
568.72         29.7949
569.16        30.02162
569.60        30.19022
570.03        30.40265
570.47        30.60647
570.90        30.82732
571.34        30.73119
571.77        31.01603
572.21        31.12321
572.64        31.05649
573.08         31.3607
573.51         31.5336
573.95        31.44097
574.38        31.45623
574.82        31.82229
575.25        31.61331
575.69        31.76518
576.12        31.92276
576.56        31.96115
576.99        31.96289
577.42        31.68319
577.86        31.98366
578.29        32.10452
578.73        31.91706
579.16        31.84211
579.60        31.68987
580.03        31.79149
580.47        31.71429
580.90        31.61835
581.33        31.62301
581.77        31.69826
582.20         30.8941
582.64         30.9496
583.07         31.1706
583.51        31.23145
583.94        31.01848
584.37        31.13837
584.81        30.89392
585.24        30.70362
585.68        30.48368
586.11         30.1714
586.54        30.27867
586.98        30.19512
587.41        30.08571
587.85        30.12353
588.28        29.79366
588.71         30.1037
589.15        29.89212
589.58        29.86049
590.01        30.00479
590.45        29.87227
590.88        30.05748
591.31        30.01182
591.75        29.95867
592.18        29.81883
592.61        29.58145
593.05        30.17096
593.48        30.05681
593.91        30.04261
594.35        29.99323
594.78        30.01142
595.21        30.19587
595.65        30.43971
596.08        30.79584
596.51        31.01989
596.94        30.99904
597.38        31.15152
597.81        31.45792
598.24        31.64601
598.68        31.76642
599.11        32.08266
599.54        32.53053
599.97         32.5029
600.41        32.98736
600.84        33.04338
601.27        33.45334
601.70        33.76365
602.14        34.07271
602.57        34.38825
603.00        34.78426
603.43        34.77617
603.87         35.5479
604.30        35.94284
604.73        36.39074
605.16        36.30959
605.60        36.98848
606.03        37.19452
606.46        37.25858
606.89        37.79194
607.32        38.57699
607.76        38.46592
608.19        39.17542
608.62        39.41674
609.05        39.78599
609.48        40.00159
609.92        40.62408
610.35        40.66112
610.78        40.83353
611.21        40.83018
611.64         41.2971
612.07        41.65106
612.50        41.77894
612.94        42.13541
613.37        42.38972
613.80        42.52547
614.23        42.47321
614.66        42.73916
615.09        43.26473
615.52        43.59423
615.96        43.70228
616.39        43.89679
616.82        44.18535
617.25        44.35335
617.68        44.43787
618.11         44.6498
618.54        44.97144
618.97        45.24942
619.40        45.45049
619.84        45.55851
620.27        45.57019
620.70          45.679
621.13        45.85908
621.56        45.82071
621.99        45.58893
622.42        45.58524
622.85        45.86012
623.28        45.66951
623.71        45.77584
624.14        45.98538
624.57        46.25401
625.00        46.04509
625.43        46.21788
625.86        46.11324
626.29         46.0578
626.72        45.72677
627.15        45.78195
627.58        45.68463
628.01        45.56316
628.44        45.37148
628.87        45.11422
629.30        44.73246
629.73         44.2813
630.16        44.27181
630.59        44.06627
631.02         44.1429
631.45         44.2114
631.88        44.13495
632.31        43.86123
632.74        43.43423
633.17        42.92311
633.60        42.42738
634.03        41.98846
634.46        41.58142
634.89         41.1785
635.32        40.74366
635.75        40.27483
636.18        39.75536
636.61        39.24556
637.04         38.8545
637.47        38.59374
637.89        38.41842
638.32        38.25275
638.75        38.01473
639.18        37.68121
639.61         37.2827
640.04         36.8689
640.47        36.51449
640.90         36.2426
641.33        36.03575
641.76        35.87351
642.18        35.72748
642.61        35.57919
643.04        35.44525
643.47        35.34612
643.90        35.31074
644.33        35.34016
644.76        35.41912
645.18        35.51301
645.61        35.56036
646.04        35.55463
646.47        35.51969
646.90        35.49885
647.33        35.55708
647.75        35.70251
648.18        35.94669
648.61        36.28302
649.04        36.58778
649.47        36.80529
649.89        37.45991
650.32        37.56867
650.75        37.97462
651.18        38.37954
651.61        38.77735
652.03        39.17785
652.46        39.59215
652.89        40.04409
653.32        40.51147
653.74          40.915
654.17         41.3176
654.60        41.79996
655.03        41.88761
655.46        41.38068
655.88        42.19884
656.31        43.01041
656.74         40.8009
657.16        44.52736
657.59         48.9789
658.02        45.84753
658.45        45.53654
658.87        45.57695
659.30         45.6888
659.73        45.98004
660.15        47.16049
660.58        46.64068
661.01        46.83137
661.44        47.05886
661.86        47.10501
662.29        47.00051
662.72        47.56209
663.14        47.84969
663.57        48.11449
664.00        48.14155
664.42        48.39776
664.85        48.89904
665.27        49.39461
665.70        49.76706
666.13        49.98867
666.55        50.04176
666.98        49.88847
667.41        49.62171
667.83        49.71577
668.26        49.69712
668.69        49.94102
669.11        50.24248
669.54        50.50887
669.96        50.70925
670.39         50.8856
670.82         51.0448
671.24        51.15069
671.67        51.22066
672.09        51.28148
672.52        51.36983
672.94        51.50578
673.37        51.68044
673.80        51.82327
674.22        51.93203
674.65        52.03312
675.07        52.13366
675.50        52.18927
675.92        52.20859
676.35        52.22193
676.77        52.23892
677.20        52.24784
677.62        52.26844
678.05        52.33134
678.47        52.43807
678.90        52.58731
679.32        52.74133
679.75        52.84754
680.17        52.89378
680.60        52.89933
681.02        52.90673
681.45        52.98812
681.87        53.16827
682.30        53.39141
682.72        53.62959
683.15        53.85545
683.57        54.03379
684.00        54.05676
684.42        53.98121
684.85        54.01159
685.27         54.1672
685.70        54.35017
686.12        54.50837
686.54        54.63847
686.97        54.73004
687.39        54.69054
687.82        54.69806
688.24         54.7335
688.66        54.83378
689.09        54.83815
689.51        54.77977
689.94        54.84946
690.36        55.01729
690.78        55.06625
691.21        55.02547
691.63        55.03611
692.06        55.09578
692.48        55.39647
692.90        55.39978
693.33        55.49058
693.75         55.5116
694.17         55.4559
694.60        55.39888
695.02        55.48959
695.44        55.73224
695.87        56.06046
696.29        56.37729
696.71        56.40903
697.14        56.20056
697.56        56.09452
697.98        56.15921
698.41        56.22858
698.83        56.30703
699.25        56.55925
699.68        56.87391
700.10        57.02779
700.52        56.96394
700.94        56.76423
701.37        56.54599
701.79        56.50402
702.21        56.67796
702.64        56.98936
703.06        57.34944
703.48        57.59933
703.90        57.68909
704.33        57.67135
704.75        57.58776
705.17        57.49669
705.59        57.43502
706.01        57.38619
706.44          57.375
706.86        57.47381
707.28        57.67767
707.70        57.92717
708.12        58.18674
708.55        58.47679
708.97        58.73383
709.39         58.7575
709.81        58.59145
710.23        58.52829
710.66        58.60178
711.08        58.66897
711.50        58.69353
711.92        58.70031
712.34        58.68653
712.76         58.6639
713.19        58.63367
713.61        58.62583
714.03        58.63953
714.45        58.67665
714.87        58.76026
715.29        58.92834
715.71        59.17488
716.13        59.46766
716.56        59.74586
716.98        59.98649
717.40         60.1322
717.82        60.19897
718.24         60.1636
718.66        59.99328
719.08        59.71671
719.50        59.37424
719.92        59.07241
720.34        58.96908
720.76        59.09155
721.19        59.37744
721.61        59.79343
722.03        60.14864
722.45         60.3609
722.87        60.60973
723.29        60.89581
723.71        60.41166
724.13        60.46454
724.55        60.04226
724.97        59.64021
725.39        59.41482
725.81        59.42701
726.23        59.60344
726.65        59.85307
727.07        60.18768
727.49        60.33955
727.91        60.50423
728.33        60.64364
728.75        60.80098
729.17        60.97652
729.59         61.1665
730.01        61.31791
730.43        61.29454
730.85        61.11636
731.27        60.94828
731.69        60.83654
732.10        60.72994
732.52        60.64701
732.94        60.66131
733.36        60.75141
733.78        60.72905
734.20        60.56933
734.62        60.50399
735.04        60.73708
735.46        60.26233
735.88        60.90212
736.30        61.15422
736.72        61.50258
737.13        61.79057
737.55          61.923
737.97        62.12654
738.39        62.29492
738.81        61.84069
739.23        60.99787
739.65        60.95341
740.06        61.61346
740.48        61.90825
740.90        61.77541
741.32        61.84961
741.74         62.1526
742.16        62.37949
742.57        62.50753
742.99        62.59909
743.41        62.62949
743.83        62.55019
744.25        62.37108
744.67        62.09658
745.08        61.83785
745.50        61.76487
745.92         61.9154
746.34        62.22046
746.75        62.56323
747.17        62.74853
747.59         62.7313
748.01         62.5697
748.42        62.34321
748.84        62.20061
749.26        62.19112
749.68        62.21174
750.09        62.24141
750.51        62.39286
750.93         62.5725
751.35        62.47672
751.76        62.15041
752.18        61.95996
752.60        61.92907
753.01         61.8652
753.43        61.76793
753.85        61.75304
754.27        61.82729
754.68        61.99331
755.10        62.20412
755.52        62.31449
755.93        62.32383
756.35        62.39258
756.77        62.56796
757.18        62.65693
757.60        62.65697
758.02        62.90595
758.43        63.33118
758.85        62.70876
759.26        63.01035
759.68        62.37168
760.10        61.60686
760.51        62.15942
760.93        62.85987
761.34        63.31239
761.76        63.13127
762.18        63.02211
762.59        63.12031
763.01        63.25816
763.42        63.46227
763.84        63.66624
764.26        63.76835
764.67        63.44535
765.09        62.91659
765.50        62.72979
765.92        62.93354
766.33        63.17353
766.75        63.28433
767.16        63.26897
767.58        63.10562
768.00        62.88147
768.41        62.77311
768.83         63.0382
769.24        63.66796
769.66        63.85682
770.07        63.61935
770.49        63.13918
770.90        62.69289
771.32        63.07574
771.73        64.09573
772.15        64.48794
772.56        64.17281
772.97        63.85064
773.39        63.68726
773.80        63.68228
774.22        63.83361
774.63         64.0532
775.05        64.22414
775.46        64.36031
775.88        64.40043
776.29        64.31927
776.70        64.17498
777.12        64.12843
777.53         64.2191
777.95        64.35489
778.36        64.49922
778.77        64.55904
779.19        64.52477
779.60        64.45043
780.02         64.3288
780.43        64.21372
780.84         64.1503
781.26        63.87152
781.67        63.51897
782.09        63.90286
782.50        64.80383
782.91        64.68649
783.33        64.05946
783.74        63.80152
784.15        64.08626
784.57        64.26701
784.98        64.31893
785.39        64.30036
785.81        64.30135
786.22        64.74095
786.63        65.46191
787.04        65.77124
787.46        65.62194
787.87        65.35358
788.28        65.11388
788.70        64.97543
789.11         64.9734
789.52        65.11998
789.93        65.33313
790.35        65.46581
790.76        65.47179
791.17        65.36394
791.58        65.24308
792.00         65.1484
792.41        65.10546
792.82        65.40767
793.23         65.8092
793.65        65.28674
794.06        64.22908
794.47        64.19922
794.88        64.94135
795.29        66.19659
795.71        65.21535
796.12        65.24464
796.53        65.55359
796.94        65.59595
797.35        65.42281
797.76        65.62334
798.18        66.12856
798.59        66.37269
799.00        66.29362
799.41        66.17277
799.82        66.08232
800.23        66.03025
800.64        66.04271
801.06        66.08359
801.47         66.1526
801.88        66.16402
802.29        66.09095
802.70        65.94883
803.11        65.76712
803.52        65.59409
803.93        65.46553
804.34        65.38632
804.75        65.33781
805.17        65.34705
805.58        65.45733
805.99        65.41876
806.40        65.31532
806.81        65.83466
807.22        66.71555
807.63        66.68165
808.04        65.80128
808.45        65.49071
808.86        65.82676
809.27        66.06232
809.68        66.09412
810.09        66.11813
810.50        66.10925
810.91        66.01076
811.32        65.92552
811.73        65.98482
812.14        66.20316
812.55         66.6453
812.96        67.14715
813.37        67.13326
813.78        66.65038
814.19        66.39674
814.60        66.39944
815.01        66.20067
815.42        65.81998
815.83        65.54917
816.24        65.43892
816.65         65.4155
817.05         65.4978
817.46        65.69196
817.87        65.94756
818.28        66.13563
818.69        66.22192
819.10        66.20333
819.51        66.16545
819.92        66.27464
820.33        66.55643
820.74        66.95278
821.14        67.30135
821.55        67.34258
821.96        67.03436
822.37        66.46601
822.78        65.84303
823.19        65.51199
823.60         65.5731
824.00        65.95016
824.41        66.43121
824.82        66.74489
825.23        66.78448
825.64        66.63627
826.04        66.39217
826.45        66.16249
826.86         66.0163
827.27        65.92519
827.68        65.88042
828.08        65.90186
828.49        65.93695
828.90        65.99947
829.31        66.12762
829.72        66.37502
830.12         66.7542
830.53        67.18232
830.94        67.51587
831.35         67.4761
831.75        67.03429
832.16        66.27362
832.57        65.45888
832.97        64.98672
833.38        64.96357
833.79         65.2587
834.20        65.73682
834.60        66.17303
835.01        66.48396
835.42        66.77117
835.82        67.00455
836.23        67.05341
836.64         66.9415
837.04        66.65914
837.45        66.41071
837.86        66.60751
838.26        67.33184
838.67        68.41471
839.08          69.493
839.48         69.8644
839.89        69.34682
840.29        68.21169
840.70        66.95129
841.11        66.09637
841.51        65.80962
841.92        65.90406
842.33        66.30319
842.73         66.8783
843.14        67.43298
843.54        68.04736
843.95        68.59264
844.35         68.9147
844.76        68.96059
845.17        68.74841
845.57        68.37154
845.98        67.98402
846.38        67.67918
846.79        67.43002
847.19        67.25854
847.60        67.16691
848.00        67.15636
848.41         67.2066
848.81        67.31667
849.22        67.38979
849.62        67.43659
850.03        67.46253
850.43        67.45557
850.84        67.34235
851.24        67.16195
851.65        66.86098
852.05        66.64534
852.46        66.76482
852.86         67.2491
853.27        67.99715
853.67        68.66202
854.07        68.87392
854.48        68.55227
854.88        67.83768
855.29        66.94344
855.69        66.39445
856.10        66.30045
856.50        66.59721
856.90        67.05939
857.31        67.32108
857.71        67.31403
858.12        67.07784
858.52         66.7835
858.92        66.60238
859.33        66.57364
859.73        66.67133
860.13        66.74194
860.54        66.57076
860.94          66.157
861.34        65.56844
861.75        64.98783
862.15         64.7402
862.55        64.88271
862.96        65.29325
863.36        65.82004
863.76        66.12013
864.17        66.07991
864.57        65.82972
864.97        65.45937
865.38        65.12212
865.78        64.90615
866.18        64.75473
866.58        64.69527
866.99        64.78024
867.39        65.02032
867.79        65.38842
868.19        65.80304
868.60        66.10739
869.00        66.28683
869.40        66.34919
869.80        66.31859
870.21         66.2578
870.61        66.25481
871.01        66.25153
871.41        66.20985
871.81        66.07194
872.22        65.82852
872.62        65.50307
873.02        65.19328
873.42        65.05192
873.82        65.10937
874.22        65.30939
874.63        65.51794
875.03        65.54307
875.43        65.32626
875.83         64.9382
876.23        64.49289
876.63        64.16447
877.03        64.01318
877.44         63.9721
877.84        64.01633
878.24         64.1226
878.64        64.21996
879.04        64.16547
879.44        64.06786
879.84        64.20631
880.24        64.58325
880.64        65.07069
881.04        65.43282
881.44        65.32268
881.84        64.68872
882.24        63.66945
882.65        62.61536
883.05        62.06085
883.45        62.14431
883.85        62.73002
884.25        63.54243
884.65        64.09702
885.05        64.23724
885.45        64.09225
885.85        63.85791
886.25        63.84048
886.65         64.1074
887.05        64.53448
887.45        64.94829
887.85        65.08183
888.25        64.86734
888.65        64.41396
889.04        63.87727
889.44        63.51193
889.84        63.37814
890.24        63.40683
890.64         63.5126
891.04          63.556
891.44        63.49733
891.84        63.39595
892.24        63.29963
892.64        63.26722
893.04        63.32284
893.44        63.45004
893.83        63.64882
894.23        63.87263
894.63        64.11974
895.03        64.37363
895.43        64.64743
895.83        64.96907
896.23        65.31259
896.63        65.63286
897.02        65.82195
897.42        65.74606
897.82        65.38881
898.22        64.83549
898.62        64.19292
899.01        63.60361
899.41        63.14821
899.81        62.79982
900.21        62.58968
900.61        62.56073
901.00        62.69701
901.40        62.96382
901.80        63.27806
902.20        63.49686
902.59        63.58626
902.99         63.5806
903.39         63.4846
903.79         63.3141
904.18        63.09559
904.58        62.83495
904.98        62.67007
905.38        62.82132
905.77        63.31229
906.17        64.09039
906.57        64.90577
906.96        65.33375
907.36        65.25403
907.76        64.79577
908.15        64.25828
908.55        64.10686
908.95        64.45572
909.34        65.15407
909.74        65.89575
910.14        66.26937
910.53        66.12762
910.93        65.63972
911.33        64.94075
911.72        64.21597
912.12        63.62179
912.52        63.12338
912.91        62.75499
913.31        62.58413
913.70        62.61951
914.10        62.83002
914.49        63.24623
914.89        63.81595
915.29        64.50476
915.68        65.29147
916.08        65.96706
916.47        66.27234
916.87        66.16055
917.26         65.6655
917.66        65.08347
918.05        64.74239
918.45        64.73191
918.84        65.02708
919.24        65.37505
919.64         65.4556
920.03        65.20824
920.42        64.71427
920.82        64.28285
921.21        64.33442
921.61        64.91954
922.00        65.91076
922.40        66.93242
922.79        67.46101
923.19        67.31025
923.58        66.70319
923.98        65.89423
924.37        65.19169
924.77        64.72524
925.16        64.35251
925.55        64.15909
925.95        64.27322
926.34        64.69093
926.74        65.36982
927.13        65.98794
927.52        65.95094
927.92        65.22176
928.31         63.9824
928.70        62.70044
929.10        62.07698
929.49        62.25708
929.89         62.9749
930.28        64.01283
930.67        64.86816
931.07        65.31094
931.46        65.56332
931.85        65.52118
932.24        65.07279
932.64         64.3132
933.03        63.23603
933.42        62.27972
933.82        62.09153
934.21        62.77372
934.60        64.20995
934.99        65.86253
935.39        66.72737
935.78        66.56308
936.17        65.56364
936.56        64.30716
936.96        63.72171
937.35        64.03127
937.74        64.93472
938.13        65.92714
938.53        66.23567
938.92        65.68162
939.31        64.57735
939.70        63.33572
940.09        62.51642
940.49        62.24334
940.88         62.3741
941.27        62.73703
941.66         63.0244
942.05        63.13185
942.44        63.19086
942.84          63.293
943.23        63.54969
943.62        63.98805
944.01        64.49414
944.40         65.0344
944.79        65.59908
945.18        66.12901
945.57         66.5947
945.97        66.81084
946.36        66.58168
946.75        65.86457
947.14         64.8193
947.53        63.68205
947.92        62.76506
948.31         62.1726
948.70        61.84707
949.09        61.80119
949.48        62.03344
949.87        62.50167
950.26        63.18869
950.65        63.94104
951.04        64.50571
951.43        64.78625
951.82        64.78857
952.21        64.60036
952.60        64.40363
952.99         64.2722
953.38        64.19508
953.77        64.11367
954.16        63.92871
954.55        63.62612
954.94        63.23087
955.33        62.91063
955.72        62.93738
956.11        63.35843
956.50        64.09659
956.89         64.8085
957.28        64.92342
957.66        64.30636
958.05        63.17095
958.44        61.95193
958.83        61.27451
959.22        61.26832
959.61        61.77521
960.00        62.44449
960.39        62.63701
960.78        62.17629
961.16        61.27164
961.55        60.35651
961.94        59.97693
962.33         60.2595
962.72        61.06513
963.11         62.0559
963.49        62.61529
963.88         62.4641
964.27         61.7957
964.66        61.06507
965.04        60.97269
965.43        61.61095
965.82        62.81862
966.21        64.07408
966.60        64.37941
966.98         63.4535
967.37        61.74788
967.76        59.96181
968.15        58.95303
968.53        58.89754
968.92        59.56322
969.31        60.57133
969.69        61.17904
970.08        61.04905
970.47        60.43323
970.86        59.79347
971.24        59.77739
971.63        60.52519
972.02        61.85696
972.40        63.32173
972.79        63.81562
973.17        63.10332
973.56        61.56837
973.95        59.95729
974.33        59.23252
974.72        59.58053
975.11        60.70784
975.49        62.14446
975.88        62.90983
976.26        62.71796
976.65        61.84273
977.04        60.71602
977.42        59.97031
977.81        59.75786
978.19        59.84171
978.58        60.17259
978.96        60.64376
979.35        61.13819
979.74        61.72928
980.12        62.27681
980.51        62.28129
980.89        61.80574
981.28        61.00033
981.66        60.21077
982.05        59.91834
982.43        60.24202
982.82        60.98661
983.20        62.19358
983.59        63.79011
983.97        65.68486
984.35        67.83495
984.74        69.56145
985.12        70.00394
985.51        68.95423
985.89        66.70572
986.28        64.24016
986.66         62.9715
987.04        63.29756
987.43        64.86508
987.81        66.96591
988.20        68.05487
988.58        67.64018
988.96        66.12446
989.35        64.25877
989.73        63.10952
990.12        62.90922
990.50        63.35343
990.88        63.88434
991.27         63.5873
991.65        62.29094
992.03        60.42533
992.42        58.70651
992.80        58.03783
993.18        58.61561
993.56        60.16461
993.95        62.10014
994.33        63.46693
994.71        63.77078
995.10        63.37399
995.48        62.68723
995.86        62.43804
996.24        62.82171
996.63        63.44027
997.01        64.29099
997.39        65.04496
997.77        65.48798
998.15        65.83195
998.54        65.80654
998.92         64.8595
999.30        63.11521
999.68        60.80106
1000.06        58.78743
1000.45        58.27972
1000.83        59.60393
1001.21        62.57121
1001.59        66.34447
1001.97        68.80941
1002.35        69.09704
1002.73        67.78041
1003.12         66.0675
1003.50        65.50734
1003.88        66.55287
1004.26        68.60744
1004.64        71.11124
1005.02        72.87028
1005.40        73.28815
1005.78        72.88612
1006.16        71.59478
1006.54        69.27209
1006.92        66.22255
1007.30        62.60944
1007.69        59.50554
1008.07        58.22912
1008.45        59.15054
1008.83        62.07767
1009.21        65.98486
1009.59         68.2627
1009.97        67.71408
1010.35        65.02033
1010.73        61.52071
1011.11        59.18183
1011.49        58.48465
1011.86        58.79622
1012.24         59.5549
1012.62        60.02959
1013.00        60.03311
1013.38        59.82337
1013.76        59.68639
1014.14        60.11272
1014.52        61.23111
1014.90        62.73962
1015.28        64.11102
1015.66        64.76732
1016.04        64.61581
1016.41        63.79599
1016.79        62.69855
1017.17        62.10935
1017.55        62.23256
1017.93        62.82985
1018.31         63.4145
1018.69        63.24094
1019.06        62.16339
1019.44        60.39956
1019.82         58.3351
1020.20        56.98994
1020.58        56.81436
1020.95         57.3063
1021.33         58.2613
1021.71        59.37416
1022.09        60.58685
1022.46        62.30085
1022.84        63.81187
1023.22        63.49826
1023.60        61.02861
1023.97        56.84906
1024.35        53.29494
1024.73        53.01526
