SpectraSmart Spectrum 2.9.0.0
--------- Device Information -----------
Spectrum Name :  反射率_0
Saving Time :  2024/04/26 22:13:11
Spectro-Module Model Name : SE2030-DUVN
Spectro-Module Serial Number : OS361AC55029948
Wavelength Start : 200
Wavelength End : 1025
Wavelength Unit : Wavelength(nm)
Spectrum Unit : Reflectance(%)
-----------Spectrum Setting ------------
Integration Time : 20ms
Average : 10
Boxcar : 0
Background removal :  enabled
linearity correction :  enabled
SC :  disabled
Intensity correction :  disabled
DWT denoise :  enabled
savitzky-golay :  disabled
FFT :  disabled
Running average :  disabled
Kalman :  disabled
High pass :  disabled
---------------BEGIN--------------------
Wavelength(nm)             Reflectance(%)
200.29               0
200.75        61.35825
201.21        56.54107
201.67        52.38691
202.13        50.89753
202.58        52.16484
203.04        56.12056
203.50        62.73829
203.96        70.10125
204.42        76.22263
204.88        81.02398
205.34        83.67227
205.80        83.97283
206.26        82.35941
206.72        78.69762
207.18         75.1385
207.64         73.6051
208.10         74.2259
208.55        77.91357
209.01        82.91427
209.47        83.05176
209.93        77.16058
210.39         70.0329
210.85        66.01186
211.31         67.5825
211.77         75.9486
212.23        96.98409
212.69        150.5093
213.14        239.5363
213.60        233.5826
214.06        169.6043
214.52         126.447
214.98        106.2675
215.44         96.5256
215.90        89.68427
216.36        85.55833
216.81        85.38189
217.27        89.86985
217.73        101.7633
218.19        119.2139
218.65        126.0952
219.11        116.8641
219.57        101.9988
220.02        92.45602
220.48        94.85214
220.94        108.7153
221.40        135.3558
221.86        175.1107
222.32        205.1165
222.77         202.039
223.23        180.1738
223.69        155.1402
224.15        136.0783
224.61        123.1021
225.06        112.8767
225.52        106.6654
225.98        105.2549
226.44        107.8918
226.90         114.018
227.36        121.1276
227.81        124.6088
228.27        123.7464
228.73        119.8943
229.19        116.0068
229.65         115.658
230.10        118.9289
230.56        124.5475
231.02        129.9034
231.48          130.98
231.93        127.2386
232.39        121.1602
232.85        115.0781
233.31        111.9518
233.77        112.1068
234.22        114.3128
234.68        117.5258
235.14        120.2344
235.60        121.8006
236.05        122.8586
236.51        122.8443
236.97        121.0264
237.43        117.3858
237.88        112.1197
238.34        106.4706
238.80        102.8966
239.26        102.1821
239.71        104.8309
240.17        109.8294
240.63        114.5129
241.08        117.1901
241.54        117.3245
242.00        116.8278
242.46        120.0183
242.91        130.2675
243.37        148.4429
243.83        175.2771
244.28        199.3496
244.74        201.5975
245.20         181.294
245.66        153.8352
246.11        132.7765
246.57        118.9998
247.03        108.4946
247.48        98.83221
247.94        88.64287
248.40         80.0825
248.85        74.51976
249.31        71.40405
249.77        69.02428
250.22         66.5108
250.68        63.23254
251.14        60.32275
251.59        61.46185
252.05        67.88305
252.51        77.54768
252.96        85.09443
253.42        86.57674
253.88        83.16661
254.33         76.9509
254.79        72.98138
255.25        75.46091
255.70        83.82439
256.16        96.16979
256.62        107.3831
257.07        109.5738
257.53         104.493
257.99        96.98266
258.44        90.77491
258.90        89.31052
259.35        91.13349
259.81        94.89988
260.27        98.68507
260.72        100.1939
261.18        99.63095
261.63        97.64084
262.09        95.70103
262.55        94.53706
263.00        94.03261
263.46        94.06203
263.91        93.85088
264.37        93.01874
264.83        91.50376
265.28        89.56641
265.74        87.93034
266.19        86.97423
266.65        86.84473
267.11        87.17214
267.56        87.62054
268.02        87.69379
268.47        87.22069
268.93        86.44131
269.38        85.37043
269.84         84.1426
270.30        82.82192
270.75        81.34578
271.21        80.01688
271.66         79.1944
272.12        78.91884
272.57         79.0237
273.03        79.10572
273.48        78.45798
273.94        77.05443
274.39        75.10625
274.85        73.12153
275.31        71.55926
275.76        70.48213
276.22        69.78554
276.67        69.25095
277.13        68.77973
277.58        68.19242
278.04        67.58417
278.49        66.81761
278.95        65.89214
279.40         64.7412
279.86        63.52916
280.31        62.21741
280.77        60.97284
281.22        59.76912
281.68        58.70234
282.13        57.78886
282.59         57.2276
283.04         56.9325
283.50        56.86922
283.95         56.8266
284.41        56.52671
284.86         55.8887
285.32        55.04484
285.77        54.10867
286.22        53.35543
286.68        52.83575
287.13        52.41483
287.59        52.02256
288.04         51.4696
288.50        50.77397
288.95        49.97484
289.41        49.18805
289.86        48.45327
290.32        47.85159
290.77        47.32585
291.22         46.9011
291.68         46.5919
292.13        46.36372
292.59        46.22638
293.04        46.14752
293.50         46.1128
293.95        46.09468
294.40        46.09818
294.86        46.10723
295.31        46.08366
295.77        46.04305
296.22        45.99058
296.68        45.98092
297.13        46.06817
297.58        46.27404
298.04        46.57989
298.49        46.94638
298.95        47.33669
299.40        47.71119
299.85        48.06815
300.31        48.39666
300.76        48.66234
301.21        48.86176
301.67        49.01154
302.12        49.08686
302.58        49.13456
303.03        49.13839
303.48        49.13394
303.94        49.14804
304.39        49.16152
304.84        49.19594
305.30        49.26321
305.75        49.35327
306.20        49.51978
306.66        49.76874
307.11        50.05354
307.57        50.32148
308.02        50.42569
308.47        50.36133
308.93         50.1785
309.38        49.94996
309.83        49.85561
310.29        49.92806
310.74        50.10381
311.19        50.27992
311.65        50.28217
312.10        50.06384
312.55        49.68756
313.00        49.26236
313.46        48.94393
313.91        48.75688
314.36        48.67157
314.82        48.60856
315.27        48.45765
315.72        48.18799
316.18         47.8482
316.63        47.51134
317.08         47.3079
317.53        47.25755
317.99        47.30713
318.44        47.36077
318.89        47.25149
319.35        46.94247
319.80        46.48965
320.25        45.99702
320.70        45.63208
321.16        45.43568
321.61        45.37061
322.06        45.35645
322.51        45.26327
322.97         45.0487
323.42        44.76426
323.87        44.46875
324.32        44.26317
324.78        44.15636
325.23        44.13263
325.68        44.11551
326.13        43.99663
326.59        43.74816
327.04        43.42331
327.49        43.07707
327.94        42.80194
328.39        42.61837
328.85        42.47421
329.30         42.3793
329.75         42.2655
330.20        42.11712
330.66        41.95527
331.11        41.79954
331.56        41.64315
332.01         41.4893
332.46         41.3214
332.92        41.15026
333.37        41.06661
333.82         41.0597
334.27        41.12008
334.72         41.1739
335.17         41.0938
335.63        40.85556
336.08        40.52634
336.53        40.20789
336.98        40.08345
337.43        40.19963
337.88        40.49128
338.34        40.86765
338.79        41.21516
339.24        41.45475
339.69         41.6123
340.14        41.66447
340.59        41.58321
341.05        41.39281
341.50        41.10163
341.95        40.79145
342.40        40.59012
342.85        40.53473
343.30        40.60252
343.75        40.74905
344.20        40.89165
344.66        41.00122
345.11        41.09038
345.56         41.1661
346.01        41.24312
346.46        41.32547
346.91        41.40286
347.36        41.45724
347.81        41.47008
348.26        41.44105
348.72        41.37901
349.17        41.31643
349.62         41.3208
350.07        41.39977
350.52        41.53312
350.97        41.65042
351.42        41.63848
351.87        41.47675
352.32        41.20564
352.77        40.90749
353.22        40.70033
353.67        40.61102
354.13        40.60615
354.58        40.62725
355.03        40.57483
355.48         40.4226
355.93        40.20209
356.38        39.97449
356.83        39.82862
357.28        39.77622
357.73        39.77886
358.18        39.76763
358.63         39.6368
359.08        39.36594
359.53        38.99925
359.98        38.60041
360.43        38.25815
360.88        37.99654
361.33        37.79005
361.78        37.61338
362.23        37.42812
362.68        37.22313
363.13        37.01433
363.58        36.81007
364.03        36.61792
364.48        36.43769
364.93        36.26059
365.38        36.08128
365.83        35.89696
366.28        35.70841
366.73         35.5188
367.18        35.33061
367.63         35.1466
368.08        34.96587
368.53        34.78522
368.98        34.60442
369.43        34.42192
369.88        34.23681
370.33        34.05218
370.78        33.85984
371.23        33.64862
371.68        33.41985
372.13        33.17607
372.58        32.94319
373.03        32.76113
373.48        32.63256
373.93        32.54189
374.38        32.44687
374.83        32.28138
375.28        32.03315
375.72        31.71969
376.17        31.40211
376.62         31.1317
377.07         30.9299
377.52        30.78975
377.97        30.69311
378.42        30.61313
378.87        30.53864
379.32        30.46434
379.77         30.4182
380.22        30.44217
380.67        30.53052
381.11        30.67335
381.56        30.76314
382.01        30.65659
382.46         30.3408
382.91        29.88697
383.36        29.43225
383.81        29.16308
384.26        29.11034
384.71        29.21218
385.15        29.38496
385.60        29.48452
386.05        29.46043
386.50        29.35555
386.95        29.19348
387.40        29.01328
387.85        28.83687
388.29        28.63368
388.74        28.45597
389.19        28.30922
389.64        28.19285
390.09        28.10429
390.54        28.02783
390.98        27.92767
391.43        27.81539
391.88        27.69934
392.33        27.59364
392.78        27.51755
393.23         27.4737
393.67        27.43962
394.12        27.43294
394.57        27.42834
395.02        27.41686
395.47        27.39019
395.91        27.35631
396.36        27.31492
396.81        27.28249
397.26        27.26768
397.71        27.24079
398.15         27.1751
398.60        27.10518
399.05        26.93043
399.50         26.7384
399.95        26.85277
400.39        27.19867
400.84        27.26433
401.29         27.0298
401.74        26.89221
402.18        26.86465
402.63        26.68774
403.08        26.42578
403.53        26.29951
403.97        26.33193
404.42        26.46325
404.87        26.61494
405.32        26.65778
405.76        26.55815
406.21         26.3728
406.66        26.17235
407.11        26.06803
407.55        26.09391
408.00        26.20072
408.45        26.33658
408.90        26.39822
409.34        26.35112
409.79        26.23595
410.24         26.0979
410.68        25.99047
411.13        25.93649
411.58        25.91671
412.03        25.91054
412.47        25.88921
412.92         25.8374
413.37         25.7763
413.81        25.72358
414.26         25.7272
414.71        25.78193
415.15        25.87703
415.60        25.97122
416.05        26.01985
416.49        26.01054
416.94        25.95794
417.39        25.88124
417.83        25.80705
418.28        25.74745
418.73         25.6911
419.17        25.65925
419.62        25.68608
420.07        25.77118
420.51         25.8969
420.96        26.01671
421.41        26.05118
421.85        25.97871
422.30        25.81648
422.74        25.61228
423.19        25.55119
423.64        25.61332
424.08        25.61879
424.53        25.54717
424.98        25.56009
425.42        25.66932
425.87        25.71196
426.31        25.69854
426.76        25.83173
427.21        26.03623
427.65        25.93927
428.10        25.62502
428.54        25.49766
428.99          25.594
429.44         25.7935
429.88        25.98769
430.33        25.90413
430.77        25.61113
431.22        25.61142
431.66        25.89359
432.11        25.99775
432.56        25.92126
433.00        26.01901
433.45        26.17318
433.89        25.99764
434.34        25.67185
434.78        25.07611
435.23        25.63983
435.67        25.72872
436.12        25.70118
436.57        25.62446
437.01        25.52727
437.46        25.46915
437.90        25.44633
438.35        25.37429
438.79        25.26774
439.24        25.23587
439.68         25.2837
440.13        25.37847
440.57        25.48653
441.02        25.56385
441.46         25.5894
441.91        25.54955
442.35        25.46499
442.80        25.53527
443.24        25.69905
443.69        25.70129
444.13        25.55698
444.58        25.52388
445.02        25.60549
445.47        25.66493
445.91        25.67908
446.36        25.68495
446.80        25.67328
447.24         25.6366
447.69        25.59522
448.13        25.57071
448.58         25.5748
449.02         25.5991
449.47        25.63011
449.91        25.63107
450.36        25.60438
450.80        25.55581
451.25        25.51693
451.69        25.51869
452.13        25.56874
452.58        25.64583
453.02        25.72512
453.47        25.77125
453.91        25.77416
454.36        25.75506
454.80         25.7074
455.24        25.62061
455.69        25.51132
456.13        25.36751
456.58        25.26217
457.02        25.26549
457.46        25.39289
457.91        25.61707
458.35         25.8337
458.79        25.88504
459.24        25.76497
459.68        25.51499
460.13        25.26424
460.57        25.14393
461.01        25.20326
461.46         25.3755
461.90         25.6115
462.34        25.80892
462.79        25.91951
463.23        25.98256
463.68        25.98227
464.12        25.90897
464.56        25.77261
465.01        25.61159
465.45        25.44135
465.89        25.35569
466.34        25.36533
466.78        25.44073
467.22        25.56075
467.67        25.65798
468.11         25.7218
468.55        25.75749
468.99        25.76631
469.44        25.74836
469.88        25.71338
470.32        25.66044
470.77        25.61037
471.21        25.60318
471.65        25.64426
472.10        25.72355
472.54        25.82002
472.98        25.90705
473.42        25.97096
473.87        26.02397
474.31        26.04358
474.75        26.02037
475.20        25.96631
475.64        25.88241
476.08        25.80037
476.52         25.7564
476.97        25.75956
477.41        25.80896
477.85        25.90463
478.29        26.00439
478.74        26.11695
479.18        26.31183
479.62         26.5284
480.06        26.62837
480.50        26.60339
480.95        26.47437
481.39        26.29379
481.83        26.40575
482.27        26.43566
482.72        26.64597
483.16        26.86813
483.60        26.97392
484.04        26.93649
484.48        26.93249
484.93         26.9643
485.37        26.71845
485.81        27.10208
486.25        27.06808
486.69        25.86143
487.14         27.2122
487.58        28.41838
488.02        28.11347
488.46        27.37292
488.90        27.42038
489.34        27.82279
489.79         28.1947
490.23        28.09588
490.67        28.25657
491.11        28.57435
491.55        28.56057
491.99        28.30786
492.43        28.28032
492.88        28.52168
493.32        28.79907
493.76        29.04585
494.20        29.26729
494.64        29.44659
495.08        29.52709
495.52        29.54089
495.96        29.72197
496.41        30.01917
496.85        29.99726
497.29        29.71579
497.73        29.89261
498.17        30.11926
498.61        30.36099
499.05        30.44512
499.49        30.51857
499.93        30.51863
500.37        30.68997
500.82        30.97895
501.26        31.17491
501.70        31.25663
502.14        31.34871
502.58         31.4746
503.02        31.60757
503.46         31.7501
503.90        31.90947
504.34        32.05119
504.78         32.1189
505.22         32.1056
505.66        32.03072
506.10        31.94875
506.54        31.94687
506.98        32.04406
507.42        32.21262
507.86        32.40646
508.30        32.54813
508.74         32.6146
509.18        32.63137
509.62        32.62124
510.06         32.6218
510.50         32.6474
510.94        32.68292
511.38        32.73257
511.82         32.8045
512.26        32.89688
512.70        33.01213
513.14         33.1268
513.58        33.20033
514.02        33.22431
514.46        33.20547
514.90        33.17717
515.34        33.19617
515.78        33.27215
516.22        33.38577
516.66        33.49446
517.10        33.52976
517.54         33.4784
517.98        33.36734
518.42         33.2366
518.86        33.14927
519.30        33.12387
519.74        33.13926
520.18        33.17843
520.62         33.2141
521.06        33.23528
521.50        33.25341
521.93        33.26321
522.37        33.24316
522.81        33.19755
523.25        33.12796
523.69        33.05761
524.13        33.02601
524.57        33.03687
525.01        33.07355
525.45        33.10906
525.89        33.09827
526.32        33.02751
526.76        32.92499
527.20        32.79984
527.64        32.66945
528.08        32.54578
528.52        32.42321
528.96        32.32746
529.40        32.29842
529.83        32.33566
530.27        32.42842
530.71        32.52252
531.15        32.53342
531.59        32.44372
532.03        32.27774
532.46        32.08381
532.90        31.96278
533.34        31.93287
533.78        31.94761
534.22         31.9714
534.66         31.9879
535.09        31.96096
535.53        31.83899
535.97        31.66027
536.41        31.56569
536.85        31.57354
537.28        31.61119
537.72        31.67191
538.16        31.77009
538.60        31.89319
539.04        32.03588
539.47        32.16022
539.91        32.22818
540.35        32.22965
540.79        32.18164
541.22        32.12436
541.66        32.13512
542.10         32.2269
542.54        32.37522
542.97        32.54636
543.41        32.69967
543.85        32.81719
544.29        32.92098
544.72         33.0073
545.16         33.0909
545.60        33.17471
546.04        33.25819
546.47        33.37277
546.91        33.56528
547.35        33.83364
547.79        34.15833
548.22        34.48429
548.66        34.71979
549.10        34.88742
549.53        34.99832
549.97        35.08709
550.41        35.13335
550.84        35.19298
551.28        35.34721
551.72         35.5602
552.15        35.80315
552.59        36.10679
553.03        35.95012
553.46        36.40596
553.90        36.51858
554.34        36.60249
554.77        36.66074
555.21        36.72816
555.65        36.83128
556.08        36.96312
556.52        37.09866
556.96        37.21083
557.39        37.35776
557.83        37.50509
558.27        37.44819
558.70        37.25347
559.14        37.25111
559.57        37.43552
560.01        37.60043
560.45        37.71189
560.88        37.82896
561.32        37.95802
561.75        38.06774
562.19        38.16571
562.63        38.20335
563.06        38.20556
563.50        38.29162
563.93        38.41771
564.37        38.52523
564.80        38.61541
565.24        38.62168
565.68        38.48112
566.11        38.93572
566.55        38.59526
566.98        38.59888
567.42        38.61755
567.85        38.77117
568.29        39.06753
568.72        39.45842
569.16        39.91542
569.60        40.18655
570.03        40.31446
570.47        40.45739
570.90        40.68332
571.34        40.37952
571.77        40.61128
572.21        41.03434
572.64         40.8035
573.08        41.39153
573.51        41.30052
573.95        41.29446
574.38        41.44618
574.82        41.82854
575.25        41.35035
575.69        41.47081
576.12        41.80163
576.56        41.83868
576.99        41.67374
577.42           41.59
577.86        41.92447
578.29        41.98009
578.73         41.5672
579.16        41.82555
579.60        41.55039
580.03        41.62398
580.47        41.45053
580.90        41.52023
581.33        41.47701
581.77        41.43731
582.20        40.46273
582.64        40.84885
583.07        40.98599
583.51        41.08158
583.94        40.92176
584.37        40.77171
584.81        40.67002
585.24        40.42028
585.68        40.15136
586.11        40.07117
586.54        40.12607
586.98        40.07417
587.41        39.95301
587.85        39.75372
588.28        39.51064
588.71        39.79615
589.15        39.58238
589.58        39.55535
590.01        39.74567
590.45        39.76049
590.88        39.84243
591.31        39.74269
591.75        39.63371
592.18        39.49941
592.61        39.31441
593.05        40.04405
593.48        40.17277
593.91        39.84543
594.35        40.23092
594.78        40.08313
595.21         39.9616
595.65        40.14428
596.08        40.71654
596.51        41.06916
596.94        41.03947
597.38        41.17534
597.81        41.39777
598.24        41.92891
598.68         41.9815
599.11        42.06752
599.54        42.47711
599.97        42.50256
600.41        43.11168
600.84        43.20662
601.27        43.71323
601.70         43.8247
602.14        44.36771
602.57        44.69589
603.00        45.12926
603.43        44.98052
603.87        46.00181
604.30        46.50713
604.73        47.03991
605.16         47.0274
605.60        47.60747
606.03        47.67963
606.46        47.58284
606.89         48.2261
607.32        49.00481
607.76        49.07752
608.19        49.65664
608.62        49.88466
609.05        50.27096
609.48        50.57272
609.92        51.45466
610.35        51.66675
610.78        51.34254
611.21        51.85004
611.64        52.10109
612.07         52.6381
612.50        52.81675
612.94        53.08761
613.37        53.34045
613.80        53.42712
614.23        53.29004
614.66         53.3973
615.09         53.9051
615.52        54.34104
615.96        54.61759
616.39        55.10452
616.82        55.58237
617.25        55.09761
617.68        55.52173
618.11        55.71243
618.54        56.15925
618.97        56.48529
619.40        56.70664
619.84        56.57733
620.27         56.8555
620.70        56.99907
621.13        57.15307
621.56        57.00379
621.99         56.6397
622.42        56.44601
622.85         56.4773
623.28        56.64104
623.71        56.89839
624.14        56.92658
624.57        57.16493
625.00        57.22354
625.43        57.21772
625.86        57.21153
626.29        57.28503
626.72        56.61227
627.15        56.85921
627.58        56.65705
628.01        56.46021
628.44        56.28956
628.87        55.98744
629.30        55.66861
629.73         55.3349
630.16        55.17532
630.59        55.16547
631.02        55.11436
631.45        54.96724
631.88         54.7677
632.31        54.49318
632.74        54.08467
633.17        53.57683
633.60        53.07385
634.03        52.60717
634.46        52.15065
634.89        51.70807
635.32        51.29525
635.75        50.91485
636.18        50.51657
636.61        50.11554
637.04        49.75804
637.47        49.44163
637.89        49.14418
638.32        48.82594
638.75        48.47688
639.18        48.09847
639.61        47.70162
640.04        47.32452
640.47        47.02217
640.90        46.80584
641.33        46.66432
641.76        46.56174
642.18        46.44353
642.61        46.28228
643.04        46.10013
643.47         45.9378
643.90        45.86073
644.33        45.88089
644.76        45.97587
645.18        46.09841
645.61        46.16117
646.04        46.15207
646.47        46.10323
646.90        46.06988
647.33        46.13279
647.75        46.29715
648.18        46.57911
648.61        46.96514
649.04        47.26916
649.47        47.42904
649.89        48.17848
650.32        48.24804
650.75        48.65502
651.18        49.04244
651.61        49.48357
652.03        50.00142
652.46        50.58925
652.89        51.22854
653.32        51.79916
653.74        52.22961
654.17        52.52349
654.60         53.1438
655.03        53.02565
655.46        52.73029
655.88        53.03912
656.31        54.64717
656.74        51.34114
657.16        56.18781
657.59        62.36511
658.02        57.52159
658.45        57.62345
658.87        56.72576
659.30        57.42073
659.73        57.68946
660.15         59.1112
660.58        58.26946
661.01        58.48806
661.44        58.96477
661.86        58.93345
662.29        58.48863
662.72        59.10469
663.14        59.57918
663.57        59.78524
664.00        59.50148
664.42        59.68715
664.85        60.37569
665.27        61.06866
665.70        61.57942
666.13         61.8778
666.55        61.92493
666.98        61.68129
667.41        61.27115
667.83        61.29526
668.26        61.17921
668.69        61.37954
669.11        61.67625
669.54        61.99886
669.96        62.31378
670.39        62.68398
670.82        63.04992
671.24        63.20805
671.67        63.18644
672.09        63.13743
672.52         63.1468
672.94        63.28742
673.37         63.5167
673.80        63.58237
674.22        63.50285
674.65        63.51108
675.07        63.63157
675.50         63.6919
675.92        63.69798
676.35        63.73624
676.77        63.81381
677.20        63.89591
677.62        63.99475
678.05        64.13346
678.47        64.30576
678.90        64.51007
679.32        64.70258
679.75        64.82486
680.17        64.86529
680.60        64.84775
681.02        64.82359
681.45        64.88181
681.87        65.05628
682.30        65.27534
682.72        65.51431
683.15         65.7736
683.57        66.00392
684.00        66.02256
684.42        65.90495
684.85         65.9519
685.27        66.18246
685.70        66.44878
686.12         66.6732
686.54         66.8381
686.97        66.92467
687.39        66.89952
687.82        66.77273
688.24        66.87964
688.66        66.79374
689.09        66.79894
689.51        66.88427
689.94        67.00189
690.36        67.18014
690.78        67.34219
691.21        67.49044
691.63        67.71062
692.06        67.95473
692.48        68.03059
692.90        67.94942
693.33        67.90714
693.75        67.91838
694.17        67.87185
694.60        67.83665
695.02        67.90375
695.44        68.09726
695.87        68.57347
696.29        69.16882
696.71        69.20696
697.14        68.77034
697.56        68.61456
697.98        68.82632
698.41        68.95343
698.83        69.00281
699.25        69.30463
699.68        69.71309
700.10        69.91212
700.52        69.83631
700.94        69.53973
701.37        69.16758
701.79        69.28699
702.21        69.43209
702.64        69.90965
703.06        70.43435
703.48        70.79075
703.90        70.90352
704.33        70.85072
704.75        70.70243
705.17        70.54736
705.59        70.43954
706.01        70.35359
706.44        70.31563
706.86        70.40594
707.28        70.61805
707.70        70.89033
708.12        71.18324
708.55        71.51505
708.97        71.81351
709.39        71.85362
709.81        71.68275
710.23        71.62759
710.66        71.72449
711.08        71.81483
711.50        71.85497
711.92        71.87027
712.34        71.86014
712.76        71.84212
713.19        71.82185
713.61        71.84315
714.03        71.90422
714.45        71.99953
714.87        72.15691
715.29         72.4231
715.71        72.78839
716.13        73.21519
716.56        73.60859
716.98        73.90659
717.40         74.0349
717.82        74.02365
718.24        73.88657
718.66         73.6538
719.08        73.37582
719.50        73.06927
719.92        72.81602
720.34        72.76449
720.76        72.94112
721.19         73.1599
721.61        73.60822
722.03        73.98757
722.45        74.30061
722.87        74.54923
723.29        74.68699
723.71        74.64619
724.13        74.43472
724.55        74.09067
724.97        73.71176
725.39        73.47174
725.81        73.42471
726.23        73.50414
726.65        73.67362
727.07        74.02827
727.49        74.26595
727.91        74.61176
728.33        74.93468
728.75        75.15562
729.17        75.24881
729.59        75.21944
730.01        75.12851
730.43        75.08496
730.85        75.11523
731.27        75.18617
731.69        75.25114
732.10        75.23335
732.52        75.11804
732.94        74.95549
733.36        74.79821
733.78        74.61245
734.20        74.42925
734.62        74.44402
735.04        74.72171
735.46        74.33689
735.88        75.19862
736.30        75.10368
736.72        75.68602
737.13        76.00684
737.55        76.28423
737.97        76.54137
738.39        76.68136
738.81        76.33916
739.23        75.68255
739.65        75.56326
740.06        75.95255
740.48        76.16622
740.90        76.15982
741.32        76.38464
741.74        76.79851
742.16        77.06469
742.57        77.13734
742.99         77.0949
743.41        76.97036
743.83        76.79472
744.25        76.60235
744.67        76.37863
745.08        76.21088
745.50        76.21675
745.92           76.41
746.34         76.7366
746.75        77.08807
747.17        77.23064
747.59         77.1216
748.01        76.95564
748.42        76.77068
748.84        76.40164
749.26        76.03773
749.68        76.11898
750.09        76.58556
750.51        77.14231
750.93        77.55075
751.35         77.4035
751.76        76.82968
752.18        76.52611
752.60        76.57307
753.01        76.56748
753.43        76.50316
753.85        76.37006
754.27        76.13237
754.68        76.70267
755.10        76.46343
755.52        76.63599
755.93        76.72344
756.35        76.78202
756.77        76.89765
757.18        77.07052
757.60        77.34327
758.02        77.93957
758.43        78.52968
758.85        77.98426
759.26        78.07754
759.68        76.55759
760.10        76.15893
760.51        77.94851
760.93        77.76105
761.34         77.5742
761.76        78.16828
762.18        78.17123
762.59        78.30193
763.01        78.42773
763.42        78.62322
763.84        78.79723
764.26        78.87521
764.67        78.47309
765.09        77.86074
765.50        77.84046
765.92        78.33982
766.33        78.49722
766.75        78.17638
767.16        77.87282
767.58        77.66111
768.00        77.53629
768.41        77.59231
768.83        77.93158
769.24        78.37057
769.66        78.54869
770.07        78.43673
770.49        78.05807
770.90        77.67362
771.32        78.12331
771.73         79.1905
772.15        79.58925
772.56        79.24683
772.97        78.77569
773.39        78.42222
773.80         78.5024
774.22        78.96222
774.63        79.32175
775.05        79.42215
775.46        79.55204
775.88         79.6403
776.29        79.48313
776.70        79.17239
777.12        79.03013
777.53        79.11921
777.95        79.29087
778.36        79.48839
778.77        79.57091
779.19        79.52808
779.60        79.45288
780.02        79.33401
780.43        79.24577
780.84        79.24077
781.26        78.92613
781.67        78.53911
782.09        79.25844
782.50        80.72802
782.91        80.99629
783.33        80.09133
783.74        79.75968
784.15        80.06098
784.57        79.94081
784.98        79.50461
785.39        79.42014
785.81        79.73426
786.22        80.27211
786.63        80.84394
787.04        81.13885
787.46        81.09504
787.87        80.79324
788.28        80.43695
788.70        80.26698
789.11        80.31585
789.52        80.65473
789.93        81.10928
790.35        81.10545
790.76        80.70946
791.17         80.6217
791.58        80.89011
792.00         80.9144
792.41        80.69933
792.82        80.85156
793.23        81.21851
793.65        80.84106
794.06        80.05322
794.47        80.17641
794.88        80.94315
795.29        81.94433
795.71        81.29301
796.12        80.81602
796.53        81.17982
796.94        80.95088
797.35        80.60403
797.76        80.88767
798.18        81.66706
798.59        82.05934
799.00        81.94319
799.41         81.7808
799.82        81.68293
800.23         81.6528
800.64        81.72826
801.06        81.85416
801.47        82.01768
801.88        82.09808
802.29        82.05562
802.70        81.91993
803.11        81.71609
803.52        81.48417
803.93        81.27602
804.34        81.10773
804.75        81.00137
805.17        81.07612
805.58        81.39651
805.99        81.58472
806.40        81.69054
806.81        82.55438
807.22        83.79008
807.63        83.64027
808.04        82.31522
808.45         81.7023
808.86        81.96022
809.27        82.05789
809.68         81.9131
810.09        81.89399
810.50        81.98511
810.91          82.085
811.32        82.23096
811.73        82.44926
812.14        82.72037
812.55        83.11216
812.96        83.48438
813.37        83.37103
813.78        82.82748
814.19        82.42434
814.60        82.23332
815.01        81.95807
815.42        81.62401
815.83        81.44415
816.24        81.44128
816.65        81.51447
817.05        81.65648
817.46        81.86975
817.87        82.10082
818.28        82.20796
818.69        82.16907
819.10        81.99142
819.51        81.81088
819.92        81.89873
820.33        82.30393
820.74        82.88938
821.14        83.45518
821.55         83.7689
821.96        83.71591
822.37        83.19397
822.78        82.41537
823.19        81.93819
823.60        81.89789
824.00         82.1054
824.41        82.40153
824.82        82.70491
825.23        82.93286
825.64        83.10775
826.04        83.24475
826.45        83.31365
826.86        83.33425
827.27        83.31664
827.68        83.23318
828.08         83.0833
828.49        82.82851
828.90        82.50247
829.31        82.25921
829.72        82.34269
830.12         82.8153
830.53        83.53879
830.94        84.25515
831.35        84.46149
831.75        84.05273
832.16        83.15711
832.57        82.11081
832.97        81.42822
833.38        81.25904
833.79        81.43647
834.20         81.8083
834.60        82.12489
835.01         82.3019
835.42        82.47522
835.82        82.63617
836.23        82.66236
836.64         82.5835
837.04        82.36208
837.45         82.2108
837.86        82.57101
838.26        83.52405
838.67        84.88894
839.08        86.19241
839.48        86.53673
839.89        85.71252
840.29        84.06488
840.70         82.3252
841.11        81.32674
841.51        81.29288
841.92        81.96208
842.33        83.05246
842.73        84.05175
843.14        84.61019
843.54        84.90541
843.95        85.03834
844.35        85.24358
844.76        85.55283
845.17        85.87044
845.57        86.02718
845.98        85.74401
846.38        85.03098
846.79        84.01426
847.19        83.02728
847.60        82.55521
848.00        82.71891
848.41        83.33234
848.81        84.13944
849.22        84.60087
849.62         84.5993
850.03        84.27457
850.43        83.77883
850.84        83.28076
851.24         82.9264
851.65        82.57752
852.05        82.42596
852.46        82.67085
852.86         83.3084
853.27         84.2506
853.67        85.12366
854.07        85.55087
854.48        85.43286
854.88        84.90373
855.29        84.11448
855.69         83.5293
856.10        83.23096
856.50        83.20338
856.90        83.29915
857.31        83.28941
857.71        83.16625
858.12         82.9336
858.52        82.74206
858.92        82.68697
859.33         82.7744
859.73        83.01513
860.13        83.23265
860.54        83.17381
860.94        82.84576
861.34        82.31142
861.75        81.79671
862.15        81.72583
862.55        82.15754
862.96        82.90531
863.36        83.76664
863.76        84.28688
864.17        84.30447
864.57        83.98822
864.97        83.39606
865.38        82.63027
865.78        81.80804
866.18        80.90987
866.58        80.12376
866.99        79.78659
867.39        80.00336
867.79        80.67312
868.19        81.55285
868.60         82.2219
869.00        82.58873
869.40        82.71089
869.80        82.66721
870.21        82.63408
870.61        82.74247
871.01        82.86127
871.41        82.88923
871.81        82.69666
872.22        82.25906
872.62        81.63531
873.02        81.00254
873.42        80.63542
873.82        80.61327
874.22        80.87074
874.63        81.18647
875.03        81.22475
875.43        80.89151
875.83        80.27982
876.23        79.64238
876.63        79.36412
877.03        79.53194
877.44        80.02349
877.84        80.57955
878.24        80.73927
878.64        80.37142
879.04        79.53938
879.44        78.66459
879.84        78.44518
880.24        78.97054
880.64        79.98792
881.04         80.9967
881.44        81.18395
881.84        80.38039
882.24        78.90257
882.65        77.29389
883.05        76.38136
883.45        76.40373
883.85          77.118
884.25        78.22389
884.65        79.20116
885.05        79.82899
885.45        80.22724
885.85        80.47044
886.25         80.6806
886.65        80.89302
887.05         81.0244
887.45        81.01096
887.85        80.78837
888.25        80.36769
888.65        79.82793
889.04        79.27476
889.44        78.87859
889.84        78.66682
890.24        78.58822
890.64        78.60834
891.04        78.66115
891.44        78.71121
891.84        78.79301
892.24         78.8353
892.64        78.71975
893.04        78.46435
893.44        78.13038
893.83        77.90883
894.23        78.06004
894.63        78.65301
895.03        79.55347
895.43        80.60583
895.83        81.55924
896.23        82.27388
896.63        82.76524
897.02        82.93246
897.42        82.66623
897.82        82.00201
898.22        81.04166
898.62        79.98524
899.01        79.11871
899.41        78.56271
899.81        78.25115
900.21        78.18879
900.61        78.35477
901.00        78.69366
901.40        79.18425
901.80        79.66362
902.20        79.86388
902.59        79.74164
902.99        79.35887
903.39        78.86534
903.79        78.52431
904.18        78.41109
904.58         78.4514
904.98        78.64012
905.38        78.97675
905.77        79.42719
906.17        80.01037
906.57        80.53712
906.96        80.69046
907.36        80.39284
907.76        79.74139
908.15        79.05791
908.55        78.83701
908.95        79.20111
909.34        80.02732
909.74        80.94499
910.14        81.43385
910.53        81.32716
910.93        80.81543
911.33        80.14099
911.72          79.661
912.12        79.54597
912.52        79.66426
912.91        79.89175
913.31        80.08399
913.70        80.18739
914.10        80.22059
914.49        80.30659
914.89        80.53386
915.29        80.93704
915.68        81.47724
916.08        81.90594
916.47        81.91084
916.87        81.46311
917.26        80.66242
917.66        79.88272
918.05        79.51678
918.45        79.66216
918.84        80.24524
919.24        80.96901
919.64        81.45905
920.03        81.59451
920.42        81.42921
920.82        81.20417
921.21        81.24393
921.61        81.59173
922.00        82.17863
922.40        82.70359
922.79        82.83005
923.19        82.44624
923.58        81.72794
923.98        80.95689
924.37        80.44797
924.77        80.30335
925.16        80.37458
925.55        80.57768
925.95        80.74059
926.34        80.81033
926.74        80.83036
927.13        80.71893
927.52        80.27199
927.92        79.55326
928.31        78.62422
928.70        77.78395
929.10         77.4608
929.49        77.72226
929.89        78.38209
930.28        79.30882
930.67        80.12013
931.07        80.63067
931.46        81.02657
931.85        81.16074
932.24        80.87374
932.64        80.24513
933.03         79.2772
933.42        78.45118
933.82        78.46822
934.21         79.4414
934.60        81.24512
934.99        83.24993
935.39        84.29203
935.78        84.09205
936.17        82.84386
936.56        81.26794
936.96        80.52456
937.35        80.88392
937.74        81.99443
938.13        83.13869
938.53        83.20063
938.92        81.97151
939.31        79.93235
939.70         77.8017
940.09        76.57569
940.49        76.46188
940.88        77.18235
941.27        78.35968
941.66        79.30108
942.05        79.74556
942.44         79.9278
942.84        79.99773
943.23        80.17606
943.62        80.54089
944.01        80.91187
944.40        81.32137
944.79        81.89039
945.18        82.57529
945.57        83.33431
945.97        83.83221
946.36        83.61362
946.75        82.58123
947.14        81.00105
947.53        79.29839
947.92        78.05588
948.31        77.44177
948.70        77.31863
949.09        77.59376
949.48        78.08635
949.87         78.6778
950.26        79.38302
950.65        80.10033
951.04        80.66134
951.43        80.99786
951.82        81.10329
952.21         80.9827
952.60        80.69102
952.99        80.30987
953.38        79.89516
953.77        79.57609
954.16        79.54671
954.55        79.83173
954.94        80.33096
955.33        80.99973
955.72        81.72916
956.11        82.42125
956.50        83.11006
956.89        83.48489
957.28        83.06072
957.66        81.81342
958.05        79.98245
958.44        78.22375
958.83        77.47872
959.22         77.9053
959.61        79.25656
960.00         80.9328
960.39         81.7865
960.78        81.45575
961.16        80.28817
961.55        78.88986
961.94         78.0365
962.33        77.95284
962.72        78.43669
963.11        79.21938
963.49        79.84319
963.88        80.00893
964.27        79.84117
964.66        79.67551
965.04        80.03456
965.43        80.95097
965.82        82.33804
966.21        83.53351
966.60        83.32828
966.98        81.48742
967.37        78.59473
967.76        75.81019
968.15        74.57196
968.53        75.11964
968.92        77.10168
969.31        79.65241
969.69        81.01221
970.08         80.4842
970.47        78.62502
970.86        76.53885
971.24        75.78801
971.63        76.69827
972.02        78.82282
972.40        81.28229
972.79        82.04389
973.17        80.63061
973.56         77.8644
973.95        74.93789
974.33        73.34894
974.72        73.40605
975.11        74.58748
975.49        76.42892
975.88        77.91979
976.26        78.66413
976.65        78.91637
977.04        78.73711
977.42        78.17413
977.81          77.312
978.19        76.08533
978.58        74.93744
978.96        74.61465
979.35        75.22261
979.74        76.60492
980.12        78.30467
980.51        79.17468
980.89        79.02222
981.28        78.18674
981.66        77.09172
982.05        76.33405
982.43        76.10918
982.82        76.17563
983.20        76.70264
983.59        77.86088
983.97        79.67394
984.35        82.03387
984.74        84.22079
985.12        85.25785
985.51        84.83302
985.89        83.25411
986.28        81.29977
986.66        80.09464
987.04        80.01466
987.43        80.72944
987.81        81.89419
988.20        82.62772
988.58        82.64841
988.96        82.14057
989.35        81.41764
989.73        80.87684
990.12        80.61105
990.50         80.5176
990.88        80.29821
991.27        79.52462
991.65         78.1887
992.03        76.51388
992.42        75.07674
992.80        74.56081
993.18        75.12177
993.56        76.61423
993.95        78.38229
994.33        79.39999
994.71        79.18016
995.10        78.08776
995.48        76.83993
995.86        76.63123
996.24        77.72737
996.63        79.65459
997.01        81.92926
997.39        83.12255
997.77        82.70411
998.15        81.26408
998.54        79.35445
998.92        77.61219
999.30        76.38027
999.68         75.4366
1000.06        75.09024
1000.45        75.75053
1000.83        77.51479
1001.21        80.41637
1001.59        83.72042
1001.97        85.55638
1002.35         85.2381
1002.73        83.27679
1003.12        80.92989
1003.50        79.76253
1003.88        80.22522
1004.26        81.77454
1004.64        83.92724
1005.02        85.57829
1005.40        86.19429
1005.78        86.31212
1006.16        85.73545
1006.54        84.12492
1006.92        81.72477
1007.30        78.67177
1007.69        76.22491
1008.07        76.06338
1008.45        78.63592
1008.83        83.65735
1009.21        89.67158
1009.59        93.00938
1009.97         91.9883
1010.35        87.64088
1010.73        81.85085
1011.11        77.35544
1011.49        74.95775
1011.86        73.90585
1012.24        73.73359
1012.62        73.73292
1013.00         73.6404
1013.38        73.69897
1013.76        74.02215
1014.14        74.65923
1014.52        75.52524
1014.90        76.40437
1015.28        76.89445
1015.66        76.59879
1016.04        75.50594
1016.41        73.74691
1016.79        71.86977
1017.17        70.97174
1017.55        71.35704
1017.93        72.72227
1018.31        74.39008
1018.69         75.3715
1019.06        75.49534
1019.44        75.00738
1019.82        74.31432
1020.20        74.33143
1020.58        75.25049
1020.95        76.35225
1021.33        77.45168
1021.71        78.29913
1022.09        78.88873
1022.46        79.70163
1022.84        79.90355
1023.22        77.95235
1023.60        73.82803
1023.97        68.16685
1024.35        63.68432
1024.73         63.3331
