SpectraSmart Spectrum 2.9.0.0
--------- Device Information -----------
Spectrum Name :  反射率_0
Saving Time :  2024/04/26 21:26:29
Spectro-Module Model Name : SE2030-DUVN
Spectro-Module Serial Number : OS361AC55029948
Wavelength Start : 200
Wavelength End : 1025
Wavelength Unit : Wavelength(nm)
Spectrum Unit : Reflectance(%)
-----------Spectrum Setting ------------
Integration Time : 20ms
Average : 10
Boxcar : 0
Background removal :  enabled
linearity correction :  enabled
SC :  disabled
Intensity correction :  disabled
DWT denoise :  enabled
savitzky-golay :  disabled
FFT :  disabled
Running average :  disabled
Kalman :  disabled
High pass :  disabled
---------------BEGIN--------------------
Wavelength(nm)             Reflectance(%)
200.29               0
200.75        53.69185
201.21        52.06919
201.67        50.66177
202.13        50.21603
202.58           50.78
203.04        52.45986
203.50        55.47912
203.96        59.49712
204.42        63.89176
204.88        68.52671
205.34        72.25953
205.80        73.74402
206.26         72.8008
206.72        69.63243
207.18        66.38135
207.64        64.94259
208.10        65.48179
208.55        68.75655
209.01        72.86575
209.47        71.84524
209.93        65.08632
210.39        57.45378
210.85        53.20166
211.31        54.56592
211.77        62.64849
212.23        83.51514
212.69        136.8083
213.14        224.3714
213.60        217.3716
214.06        153.7878
214.52        112.3533
214.98        95.66068
215.44        90.91564
215.90        89.89337
216.36        91.93948
216.81        97.35048
217.27        106.5647
217.73        124.0206
218.19        145.5285
218.65         147.131
219.11        124.9165
219.57        96.76865
220.02        79.11332
220.48         79.4632
220.94        96.16362
221.40        131.1912
221.86        183.9988
222.32        221.3489
222.77        212.6716
223.23        178.9061
223.69        144.3566
224.15        123.2504
224.61        113.6868
225.06        109.0784
225.52        107.9782
225.98        108.6969
226.44        110.5303
226.90        114.1507
227.36        118.3218
227.81        120.4567
228.27         120.236
228.73         118.023
229.19        115.7875
229.65         116.053
230.10         118.816
230.56        123.3374
231.02        127.3876
231.48        127.5251
231.93         123.437
232.39        117.3332
232.85        111.5562
233.31        109.1278
233.77        110.2965
234.22        113.8166
234.68         118.337
235.14        121.8061
235.60        123.4638
236.05        124.0569
236.51        123.3282
236.97        121.2568
237.43        118.0855
237.88        113.7781
238.34        109.3465
238.80        106.8793
239.26        107.0639
239.71        110.7079
240.17        116.5952
240.63         121.449
241.08        123.2995
241.54        121.4185
242.00        118.9489
242.46        122.8164
242.91        138.0391
243.37        167.2506
243.83        211.7686
244.28        252.2047
244.74        257.5107
245.20        226.0519
245.66        183.2347
246.11        152.5468
246.57        135.5167
247.03        125.7546
247.48        118.3145
247.94        108.0958
248.40        97.03053
248.85         88.1843
249.31        83.08473
249.77        81.42522
250.22        82.29355
250.68        85.17906
251.14        88.77242
251.59        89.18341
252.05        85.30097
252.51        79.89213
252.96        75.19666
253.42        73.55911
253.88        74.52132
254.33        76.27332
254.79        79.56304
255.25        84.75728
255.70        91.37555
256.16        99.33604
256.62        105.5124
257.07        105.1565
257.53        100.2683
257.99        94.02435
258.44        89.05847
258.90        88.07005
259.35        89.75555
259.81        93.24043
260.27        96.85131
260.72        98.55383
261.18        98.53277
261.63        97.19636
262.09        95.98089
262.55        95.63555
263.00        95.97541
263.46         96.8349
263.91          97.257
264.37        96.62321
264.83        94.89275
265.28          92.476
265.74        90.29653
266.19        88.96511
266.65        88.67782
267.11        88.98887
267.56        89.51045
268.02        89.66301
268.47        89.23659
268.93        88.49777
269.38        87.44691
269.84        86.19277
270.30        84.79528
270.75        83.19224
271.21        81.70428
271.66        80.71989
272.12        80.30049
272.57        80.28965
273.03        80.29134
273.48         79.6094
273.94        78.21074
274.39        76.27586
274.85        74.33238
275.31        72.86174
275.76        71.91344
276.22        71.38385
276.67        70.94334
277.13        70.33961
277.58        69.39489
278.04        68.26644
278.49        67.01423
278.95        65.93293
279.40        64.97776
279.86        64.18472
280.31        63.29165
280.77        62.14853
281.22        60.68834
281.68        59.15142
282.13        57.70396
282.59        56.74509
283.04        56.23535
283.50        56.06257
283.95        56.00003
284.41        55.74541
284.86        55.19855
285.32        54.51828
285.77        53.74338
286.22        53.03472
286.68        52.43323
287.13         51.8178
287.59        51.24663
288.04           50.74
288.50         50.3265
288.95        49.95382
289.41        49.54432
289.86        48.85526
290.32        47.93067
290.77        46.83095
291.22        45.75536
291.68        44.97222
292.13        44.51636
292.59        44.32208
293.04         44.2787
293.50        44.24509
293.95         44.1529
294.40        44.05146
294.86        43.95071
295.31        43.84768
295.77        43.76181
296.22        43.66683
296.68        43.59678
297.13        43.58708
297.58        43.65298
298.04        43.78922
298.49        43.96082
298.95        44.13357
299.40        44.28093
299.85        44.41006
300.31        44.53578
300.76        44.66261
301.21        44.79247
301.67        44.92923
302.12        45.02434
302.58        45.08068
303.03        45.07035
303.48        45.03395
303.94        45.00473
304.39        44.98156
304.84         44.9863
305.30        45.02014
305.75         45.0676
306.20         45.1725
306.66        45.33761
307.11         45.5233
307.57         45.6829
308.02        45.68341
308.47        45.52442
308.93        45.25876
309.38        44.95471
309.83        44.77682
310.29        44.75898
310.74        44.84559
311.19        44.95793
311.65        44.96069
312.10        44.81069
312.55        44.55011
313.00        44.25141
313.46        44.01788
313.91        43.86054
314.36          43.761
314.82        43.65615
315.27        43.46288
315.72        43.16356
316.18        42.80143
316.63        42.44738
317.08        42.22659
317.53         42.1569
317.99        42.18641
318.44        42.22922
318.89        42.13311
319.35        41.86068
319.80        41.46239
320.25        41.01237
320.70        40.63098
321.16         40.3538
321.61        40.15906
322.06        40.01142
322.51        39.85574
322.97        39.66891
323.42        39.47876
323.87        39.30553
324.32        39.18455
324.78        39.10697
325.23        39.07505
325.68         39.0317
326.13        38.90073
326.59        38.66719
327.04        38.36899
327.49        38.06311
327.94        37.84768
328.39        37.74012
328.85        37.68967
329.30        37.68277
329.75        37.61674
330.20        37.46438
330.66        37.25648
331.11        37.02822
331.56        36.80334
332.01        36.59818
332.46        36.39412
332.92        36.20518
333.37        36.11797
333.82        36.12231
334.27        36.20769
334.72        36.30088
335.17        36.27363
335.63        36.09665
336.08        35.82953
336.53         35.5523
336.98        35.41533
337.43        35.45773
337.88         35.6207
338.34        35.84758
338.79        36.07819
339.24        36.25573
339.69        36.40231
340.14        36.46367
340.59        36.35593
341.05        36.09393
341.50        35.70612
341.95        35.32002
342.40        35.13448
342.85        35.19184
343.30        35.43362
343.75        35.75856
344.20        35.99171
344.66        36.08059
345.11        36.07699
345.56        36.01619
346.01        35.95784
346.46        35.93191
346.91        35.91435
347.36        35.92418
347.81        36.00184
348.26        36.14096
348.72        36.32201
349.17        36.49591
349.62        36.59631
350.07        36.60205
350.52        36.53867
350.97        36.39809
351.42        36.17337
351.87        35.88907
352.32        35.56326
352.77         35.2788
353.22        35.15209
353.67        35.19802
354.13        35.38152
354.58        35.61044
355.03        35.72462
355.48        35.67233
355.93        35.48836
356.38        35.24397
356.83        35.05252
357.28        34.93813
357.73        34.86126
358.18        34.76127
358.63         34.5463
359.08        34.20573
359.53        33.78921
359.98         33.3664
360.43        33.02996
360.88        32.79889
361.33        32.63936
361.78        32.51216
362.23        32.35642
362.68        32.15449
363.13        31.93101
363.58        31.69211
364.03        31.44411
364.48        31.19269
364.93        30.92934
365.38        30.67989
365.83        30.49198
366.28        30.37192
366.73         30.3062
367.18        30.24776
367.63        30.11938
368.08        29.90526
368.53        29.63062
368.98        29.33848
369.43        29.09842
369.88        28.92934
370.33        28.80794
370.78        28.71117
371.23        28.60166
371.68        28.46615
372.13        28.31929
372.58         28.1631
373.03        27.99857
373.48        27.82666
373.93        27.63939
374.38        27.44808
374.83        27.27634
375.28        27.12577
375.72        26.98339
376.17        26.84117
376.62        26.65013
377.07        26.40945
377.52        26.14492
377.97        25.88702
378.42        25.68928
378.87         25.5664
379.32        25.49006
379.77        25.46136
380.22        25.48126
380.67        25.53454
381.11        25.62834
381.56        25.67656
382.01        25.56332
382.46        25.28175
382.91        24.88556
383.36        24.49887
383.81        24.29348
384.26        24.29618
384.71        24.45256
385.15        24.67012
385.60        24.79187
386.05        24.76531
386.50         24.6332
386.95        24.44728
387.40         24.2894
387.85        24.18603
388.29        24.09759
388.74        24.02488
389.19        23.91353
389.64        23.75572
390.09        23.56585
390.54        23.38393
390.98         23.2675
391.43        23.23886
391.88        23.26904
392.33        23.29995
392.78        23.24874
393.23        23.10562
393.67        22.89421
394.12        22.68784
394.57        22.54735
395.02        22.48734
395.47        22.47691
395.91        22.49716
396.36         22.5043
396.81         22.4943
397.26        22.48461
397.71        22.46205
398.15        22.41952
398.60        22.38642
399.05        22.27053
399.50        22.12449
399.95        22.19051
400.39        22.40309
400.84        22.34841
401.29        22.04452
401.74        21.86981
402.18        21.84815
402.63        21.75697
403.08        21.61308
403.53         21.5378
403.97        21.53779
404.42        21.58357
404.87        21.64268
405.32         21.6607
405.76        21.61951
406.21        21.54066
406.66         21.4587
407.11        21.43204
407.55        21.47708
408.00        21.56561
408.45        21.64889
408.90        21.63314
409.34        21.49729
409.79         21.2808
410.24        21.05498
410.68        20.91028
411.13        20.87284
411.58         20.9188
412.03        20.99644
412.47        21.01649
412.92        20.94901
413.37        20.83045
413.81        20.71625
414.26        20.70528
414.71        20.80456
415.15        20.98496
415.60        21.17631
416.05        21.27654
416.49        21.25506
416.94         21.1444
417.39        20.99517
417.83        20.88327
418.28        20.83257
418.73        20.81676
419.17        20.82995
419.62        20.86277
420.07        20.90619
420.51        20.96268
420.96        21.01083
421.41         21.0092
421.85        20.94645
422.30        20.82608
422.74         20.6801
423.19        20.65184
423.64        20.71947
424.08        20.73656
424.53        20.68059
424.98        20.67336
425.42        20.72319
425.87        20.70496
426.31        20.62972
426.76        20.66272
427.21        20.75098
427.65        20.60437
428.10        20.31122
428.54        20.22345
428.99        20.36668
429.44        20.61926
429.88        20.87683
430.33        20.89503
430.77        20.72014
431.22        20.77105
431.66        21.00899
432.11        21.03767
432.56        20.86131
433.00        20.68488
433.45        20.50628
433.89         20.4202
434.34        20.50154
434.78         20.1179
435.23        20.41348
435.67        20.45881
436.12        20.53634
436.57         20.4594
437.01        20.27663
437.46        20.20436
437.90        20.25444
438.35         20.3043
438.79        20.32714
439.24        20.35684
439.68        20.38718
440.13        20.41547
440.57        20.43844
441.02        20.46729
441.46        20.49779
441.91        20.47191
442.35        20.40211
442.80        20.50229
443.24        20.68946
443.69        20.63192
444.13        20.36029
444.58        20.22757
445.02        20.24955
445.47         20.2377
445.91        20.19024
446.36         20.1974
446.80        20.25147
447.24        20.32536
447.69         20.3986
448.13        20.42994
448.58        20.41383
449.02        20.36075
449.47        20.28632
449.91        20.20465
450.36        20.13287
450.80        20.06652
451.25        20.02084
451.69        20.00496
452.13        20.02075
452.58        20.05876
453.02        20.10724
453.47        20.14857
453.91        20.17431
454.36         20.1922
454.80        20.18365
455.24        20.12113
455.69        20.01261
456.13        19.85488
456.58         19.7146
457.02        19.65969
457.46          19.709
457.91        19.84113
458.35        19.97542
458.79        19.98849
459.24        19.87632
459.68        19.67048
460.13         19.4759
460.57        19.39996
461.01        19.47864
461.46        19.65446
461.90        19.87416
462.34        20.03248
462.79        20.08655
463.23        20.07629
463.68        20.00477
464.12        19.89272
464.56        19.75692
465.01        19.61674
465.45        19.48201
465.89        19.42095
466.34         19.4381
466.78        19.51562
467.22        19.62029
467.67        19.67044
468.11        19.65471
468.55        19.58488
468.99        19.49914
469.44        19.45864
469.88        19.48043
470.32        19.54295
470.77        19.61667
471.21        19.65823
471.65        19.65388
472.10         19.6229
472.54        19.58121
472.98        19.55981
473.42        19.56623
473.87        19.59273
474.31        19.61756
474.75        19.62816
475.20        19.62422
475.64        19.60469
476.08        19.57844
476.52        19.54697
476.97        19.51348
477.41          19.488
477.85        19.47857
478.29        19.46961
478.74        19.47836
479.18        19.55367
479.62        19.67081
480.06        19.75556
480.50        19.80094
480.95        19.81536
481.39        19.79323
481.83        19.91742
482.27        19.89398
482.72        19.95597
483.16        20.02094
483.60        20.02722
484.04        19.95735
484.48        20.01571
484.93        20.21035
485.37          19.946
485.81        20.02148
486.25        20.32475
486.69        20.26972
487.14         20.8257
487.58        21.33893
488.02          20.748
488.46        20.40747
488.90        20.62188
489.34        20.55289
489.79        20.77352
490.23        20.80737
490.67        20.86285
491.11        20.91562
491.55        20.93972
491.99        20.96328
492.43        20.99813
492.88        21.05607
493.32        21.14338
493.76         21.2465
494.20        21.34585
494.64        21.44172
495.08        21.51081
495.52        21.55901
495.96        21.70268
496.41        21.90764
496.85        21.91272
497.29        21.75351
497.73        21.91373
498.17        22.08342
498.61        22.22647
499.05        22.23312
499.49        22.26053
499.93        22.27098
500.37        22.42081
500.82        22.65401
501.26        22.79845
501.70        22.83393
502.14        22.85648
502.58        22.90714
503.02        23.00466
503.46        23.15674
503.90        23.35512
504.34        23.54189
504.78        23.62269
505.22        23.57888
505.66         23.4409
506.10        23.28061
506.54        23.21173
506.98         23.2633
507.42        23.40384
507.86        23.57683
508.30        23.68817
508.74        23.71116
509.18        23.67507
509.62        23.62274
510.06        23.62205
510.50        23.69008
510.94        23.80098
511.38        23.92007
511.82        23.99485
512.26        24.01183
512.70        23.99141
513.14        23.95974
513.58        23.95646
514.02          23.994
514.46        24.05865
514.90        24.13537
515.34        24.20208
515.78         24.2487
516.22        24.27838
516.66        24.29649
517.10         24.3108
517.54        24.32343
517.98        24.33373
518.42         24.3289
518.86        24.29005
519.30        24.21845
519.74        24.12331
520.18         24.0372
520.62         24.0088
521.06        24.04682
521.50        24.13732
521.93         24.2424
522.37         24.2899
522.81        24.26531
523.25        24.18705
523.69        24.09189
524.13        24.03884
524.57        24.03931
525.01        24.06962
525.45        24.10007
525.89        24.08386
526.32        24.00788
526.76        23.90066
527.20        23.77645
527.64        23.65751
528.08        23.55528
528.52        23.46191
528.96        23.39312
529.40         23.3731
529.83        23.40077
530.27        23.47139
530.71         23.5444
531.15        23.55646
531.59        23.49391
532.03         23.3707
532.46        23.22976
532.90        23.15735
533.34        23.16685
533.78        23.22177
534.22        23.27378
534.66        23.27713
535.09        23.20182
535.53        23.02119
535.97        22.79973
536.41        22.69524
536.85         22.7325
537.28        22.84457
537.72        22.98486
538.16        23.09568
538.60        23.15222
539.04        23.16998
539.47        23.16701
539.91        23.18625
540.35          23.233
540.79        23.29442
541.22        23.35189
541.66        23.38681
542.10        23.39395
542.54        23.38585
542.97        23.38215
543.41        23.42022
543.85        23.50561
544.29        23.63081
544.72        23.76982
545.16        23.89943
545.60        24.00754
546.04        24.10224
546.47        24.20634
546.91        24.35216
547.35        24.54033
547.79        24.75752
548.22        24.96589
548.66        25.10458
549.10        25.19369
549.53         25.2405
549.97        25.28303
550.41        25.32544
550.84        25.40829
551.28        25.58388
551.72        25.80021
552.15        25.99408
552.59        26.18123
553.03        26.00047
553.46        26.25681
553.90        26.30358
554.34        26.37858
554.77        26.46713
555.21         26.5798
555.65        26.71223
556.08        26.84784
556.52        26.97456
556.96        27.06717
557.39        27.15909
557.83        27.22768
558.27        27.12909
558.70        26.92692
559.14        26.88493
559.57        27.00612
560.01        27.13532
560.45        27.24243
560.88        27.36017
561.32        27.48715
561.75        27.60077
562.19        27.69925
562.63        27.73678
563.06        27.72878
563.50        27.76535
563.93        27.82518
564.37        27.87515
564.80        27.92763
565.24         27.9557
565.68        27.90246
566.11        28.26157
566.55        28.01869
566.98        28.02908
567.42        28.05287
567.85        28.15428
568.29        28.34693
568.72         28.6252
569.16        28.97564
569.60         29.1952
570.03        29.36981
570.47        29.52814
570.90        29.72152
571.34        29.60781
571.77        29.91264
572.21        30.02792
572.64        30.11132
573.08        30.35933
573.51        30.33449
573.95        30.43569
574.38        30.61018
574.82        30.76089
575.25        30.81008
575.69        30.85419
576.12         30.9003
576.56        30.64736
576.99        30.66864
577.42        30.81243
577.86        30.87794
578.29        31.43815
578.73        31.33286
579.16        31.22897
579.60        30.82839
580.03        30.77655
580.47        30.70271
580.90        30.87338
581.33        30.86718
581.77        30.98035
582.20        30.59586
582.64        30.91422
583.07        30.70796
583.51        30.56944
583.94         30.2868
584.37        30.08812
584.81        30.04737
585.24        30.00991
585.68        29.99425
586.11        29.87959
586.54        29.93255
586.98        29.73473
587.41        29.50064
587.85        29.38651
588.28        29.42794
588.71        29.38486
589.15        29.28633
589.58        29.12652
590.01        29.19887
590.45        29.16724
590.88        29.17488
591.31        29.12516
591.75        29.11703
592.18        29.00269
592.61        28.77936
593.05        29.40791
593.48         29.8371
593.91        29.33419
594.35        29.41385
594.78        29.20394
595.21        29.27357
595.65        29.51103
596.08        29.93063
596.51        30.11399
596.94         29.9657
597.38        30.05045
597.81        30.33637
598.24        30.64787
598.68        30.91982
599.11        30.85963
599.54        31.37067
599.97        31.35117
600.41        31.86927
600.84        31.92518
601.27        32.23304
601.70        32.46347
602.14         32.7144
602.57        32.94921
603.00        33.26388
603.43        33.24822
603.87        34.14279
604.30        34.50814
604.73        34.79916
605.16        34.78569
605.60        35.35719
606.03        35.59356
606.46        35.72355
606.89        36.12461
607.32        36.57371
607.76        36.97066
608.19        37.21748
608.62        37.48486
609.05        37.83219
609.48        38.05725
609.92        38.64042
610.35        39.01693
610.78        38.61258
611.21        39.18109
611.64        39.29944
612.07        39.76814
612.50        39.98717
612.94         40.2113
613.37        40.33731
613.80        40.68237
614.23        40.43655
614.66        40.63226
615.09         41.2138
615.52        41.54174
615.96          41.639
616.39        41.88193
616.82        42.30693
617.25        42.27816
617.68        42.55085
618.11        42.72613
618.54        43.01925
618.97        43.23294
619.40        43.33995
619.84        43.58237
620.27        43.57243
620.70        43.62655
621.13        43.63723
621.56         43.5577
621.99        43.41522
622.42        43.40339
622.85        43.57061
623.28        43.53668
623.71        43.66092
624.14        43.99997
624.57        44.27834
625.00        44.18221
625.43        44.25067
625.86          44.126
626.29        44.09097
626.72        43.49482
627.15        43.64562
627.58        43.47372
628.01        43.30719
628.44        43.14085
628.87        42.99126
629.30        42.55516
629.73        42.33054
630.16         42.1866
630.59        41.96223
631.02        41.86478
631.45        41.76112
631.88        41.58667
632.31         41.3121
632.74        40.96269
633.17        40.56423
633.60        40.15356
634.03         39.7504
634.46        39.34606
634.89        38.93951
635.32        38.53682
635.75        38.14384
636.18        37.72775
636.61        37.31586
637.04        36.96768
637.47        36.68653
637.89        36.44796
638.32        36.21233
638.75        35.95351
639.18        35.66451
639.61        35.35733
640.04        35.05638
640.47        34.79744
640.90         34.5885
641.33         34.4192
641.76        34.27436
642.18        34.13452
642.61        33.98466
643.04        33.83757
643.47        33.70712
643.90        33.61359
644.33        33.56117
644.76         33.5444
645.18        33.55004
645.61        33.54725
646.04         33.5372
646.47        33.53669
646.90        33.56785
647.33        33.65743
647.75        33.79757
648.18        34.01093
648.61        34.30667
649.04        34.55536
649.47        34.72048
649.89        35.39376
650.32        35.59922
650.75        35.91267
651.18         36.0961
651.61        36.40049
652.03        36.86437
652.46        37.37019
652.89        37.87925
653.32        38.34862
653.74        38.79564
654.17        38.93671
654.60        39.43023
655.03        39.59832
655.46         39.6411
655.88        40.09512
656.31        41.77785
656.74        42.35954
657.16        45.27505
657.59        48.50409
658.02        44.45929
658.45        43.52213
658.87        43.53723
659.30        43.74474
659.73        43.95325
660.15        44.73653
660.58        44.47675
661.01        44.65775
661.44        44.88251
661.86        44.98081
662.29        44.95699
662.72        45.50611
663.14        45.73099
663.57        45.97773
664.00        46.04021
664.42        46.29529
664.85        46.75821
665.27        47.22277
665.70        47.58904
666.13        47.83722
666.55        47.95055
666.98        47.88544
667.41        47.71029
667.83        47.85041
668.26        47.84212
668.69        48.05683
669.11        48.31588
669.54        48.54728
669.96        48.72746
670.39        48.93369
670.82        49.16473
671.24        49.26058
671.67        49.28103
672.09        49.50608
672.52        49.90069
672.94         50.1377
673.37        50.20577
673.80        50.27342
674.22        50.37224
674.65        50.46069
675.07        50.55267
675.50        50.61814
675.92        50.66652
676.35        50.73651
676.77        50.83375
677.20        50.93282
677.62         51.0409
678.05        51.17746
678.47        51.33986
678.90         51.5259
679.32        51.70807
679.75        51.85442
680.17        51.95301
680.60        52.01185
681.02        52.06866
681.45        52.17362
681.87        52.34636
682.30        52.58604
682.72        52.84943
683.15        52.98193
683.57        52.99838
684.00          53.027
684.42        53.11648
684.85        53.25484
685.27        53.44512
685.70        53.71746
686.12        53.99986
686.54        54.17392
686.97         54.2161
687.39        54.15728
687.82        54.04091
688.24        54.00223
688.66        54.05122
689.09        54.04622
689.51         54.0234
689.94        54.14612
690.36        54.40066
690.78        54.61257
691.21        54.76705
691.63        54.93867
692.06        55.12029
692.48        55.27258
692.90        55.36177
693.33         55.3653
693.75        55.28357
694.17        55.10552
694.60        54.94916
695.02        54.98045
695.44        55.22331
695.87        55.67661
696.29         56.1926
696.71        56.20033
697.14        55.81583
697.56        55.84932
697.98        56.29761
698.41        56.51587
698.83        56.49043
699.25        56.64505
699.68        56.91781
700.10        57.05121
700.52        57.00662
700.94        56.87508
701.37        56.74605
701.79        56.76789
702.21        56.96573
702.64        57.27151
703.06        57.60907
703.48         57.8395
703.90        57.92294
704.33        57.91115
704.75        57.83512
705.17         57.7372
705.59         57.6453
706.01        57.54296
706.44        57.49088
706.86        57.57582
707.28        57.79054
707.70        58.19227
708.12        58.66073
708.55        58.79995
708.97        58.66365
709.39        58.74231
709.81        59.04158
710.23        59.17348
710.66        59.12761
711.08        59.15823
711.50        59.25007
711.92        59.27601
712.34        59.23918
712.76        59.19436
713.19        59.15154
713.61        59.15599
714.03        59.20903
714.45        59.29759
714.87        59.43696
715.29        59.65783
715.71        59.94833
716.13        60.27739
716.56        60.56878
716.98        60.77752
717.40        60.84428
717.82        60.79116
718.24        60.63294
718.66          60.397
719.08        60.12663
719.50        59.85154
719.92        59.63384
720.34        59.56003
720.76        59.64549
721.19        59.84126
721.61        60.14975
722.03        60.52066
722.45        60.90401
722.87        61.29566
723.29        61.60858
723.71        61.62683
724.13        61.31926
724.55        60.91129
724.97        60.60674
725.39        59.89724
725.81        60.16288
726.23        60.31575
726.65        60.65804
727.07        60.90425
727.49        61.16671
727.91        61.34528
728.33          61.498
728.75        61.67387
729.17        61.87637
729.59        62.06294
730.01        62.20702
730.43        62.28905
730.85        62.30153
731.27        62.25652
731.69        62.17381
732.10        62.07757
732.52        61.98145
732.94        61.90469
733.36        61.86782
733.78         61.7732
734.20        61.61161
734.62        61.65008
735.04        61.97803
735.46        61.53878
735.88        62.17487
736.30        62.47504
736.72        62.91478
737.13        63.23151
737.55        63.33374
737.97        63.44578
738.39        63.50999
738.81        63.16222
739.23        62.57047
739.65        62.47547
740.06        62.82354
740.48        63.02875
740.90        63.05873
741.32        63.02468
741.74        63.41491
742.16        63.58464
742.57        63.65777
742.99        63.67138
743.41        63.63028
743.83        63.51906
744.25        63.35013
744.67        63.12548
745.08        62.93869
745.50        62.92244
745.92        63.10213
746.34        63.42703
746.75        63.77719
747.17        63.92947
747.59        63.83981
748.01        63.61724
748.42        63.34697
748.84        63.09872
749.26        62.96804
749.68        63.04417
750.09        63.27527
750.51         63.5388
750.93        63.72733
751.35        63.68928
751.76        63.45471
752.18        63.28746
752.60        63.20706
753.01        63.05811
753.43        62.87498
753.85        62.81536
754.27        62.90483
754.68         63.1613
755.10        63.49346
755.52        63.64863
755.93        63.62218
756.35        63.65726
756.77        63.84055
757.18        63.99294
757.60        64.12135
758.02        64.58717
758.43        65.17817
758.85        64.70023
759.26        64.31247
759.68        63.60551
760.10        63.67125
760.51        64.02689
760.93        64.43185
761.34        64.72581
761.76        64.78036
762.18        64.73035
762.59        64.68728
763.01        64.78978
763.42        65.06718
763.84        65.14153
764.26        65.01244
764.67        64.92982
765.09        64.93214
765.50        64.76798
765.92         64.5276
766.33         64.4469
766.75        64.43671
767.16        64.35873
767.58        64.17722
768.00        63.88885
768.41        63.68487
768.83        64.05807
769.24        64.80398
769.66        65.22675
770.07        65.20089
770.49        64.69823
770.90        64.03922
771.32        64.34933
771.73        65.44318
772.15        65.79379
772.56        65.32769
772.97        64.89458
773.39        64.69143
773.80        64.73532
774.22        64.99658
774.63        65.26366
775.05        65.41065
775.46        65.56173
775.88        65.65495
776.29        65.58414
776.70        65.41127
777.12        65.35403
777.53        65.45492
777.95        65.59581
778.36         65.7483
778.77         65.8332
779.19        65.85452
779.60        65.87978
780.02        65.85902
780.43        65.83738
780.84         65.8606
781.26        65.48215
781.67        64.96224
782.09        65.71916
782.50        67.31228
782.91        67.34112
783.33        65.95155
783.74         65.4362
784.15        65.90153
784.57        66.10237
784.98        65.98344
785.39        65.84153
785.81         65.7837
786.22        66.19215
786.63         66.9221
787.04        67.27136
787.46        67.18325
787.87         67.0065
788.28        66.86868
788.70        66.77545
789.11        66.74295
789.52        66.87573
789.93        67.09063
790.35        67.03902
790.76        66.78332
791.17        66.80411
791.58        67.09019
792.00        67.11306
792.41        66.86126
792.82        66.86335
793.23        67.02237
793.65        66.59756
794.06        65.92493
794.47        66.13879
794.88         66.9417
795.29        68.24856
795.71        67.41027
796.12        67.44756
796.53        67.66348
796.94        67.49449
797.35        67.07233
797.76        67.24468
798.18        67.91714
798.59        68.21221
799.00        68.04216
799.41        67.88234
799.82        67.80727
800.23        67.73363
800.64        67.68499
801.06        67.64292
801.47        67.63247
801.88        67.61459
802.29        67.57267
802.70        67.50723
803.11        67.41543
803.52        67.29538
803.93        67.18507
804.34        67.10796
804.75        67.07284
805.17        67.23494
805.58        67.66248
805.99        67.80875
806.40        67.75447
806.81        68.79259
807.22        70.36664
807.63         69.8235
808.04        67.55608
808.45        66.53185
808.86        67.00388
809.27         67.3822
809.68         67.4341
810.09        67.51809
810.50        67.55787
810.91        67.46059
811.32        67.38254
811.73        67.53485
812.14        67.94203
812.55        68.63723
812.96        69.38537
813.37        69.46989
813.78        68.90823
814.19        68.48345
814.60         68.2767
815.01        67.87372
815.42        67.31683
815.83        66.88961
816.24        66.66947
816.65        66.62643
817.05         66.7827
817.46        67.13433
817.87        67.55322
818.28        67.78265
818.69        67.76674
819.10        67.54105
819.51        67.26463
819.92         67.2502
820.33        67.56984
820.74        68.09573
821.14        68.63959
821.55        68.93472
821.96        68.89451
822.37        68.54951
822.78        68.05198
823.19        67.73013
823.60        67.67944
824.00        67.79642
824.41        67.99139
824.82        68.24065
825.23        68.49067
825.64        68.75491
826.04         68.9781
826.45        69.02338
826.86        68.89005
827.27        68.62331
827.68        68.30354
828.08         68.1059
828.49        68.03668
828.90        68.06246
829.31        68.20108
829.72        68.47652
830.12        68.88207
830.53        69.34856
830.94        69.71619
831.35        69.66572
831.75        69.16043
832.16         68.2927
832.57        67.33853
832.97        66.71969
833.38        66.55677
833.79        66.71442
834.20        67.08799
834.60        67.49528
835.01        67.86018
835.42        68.28392
835.82        68.67677
836.23        68.80181
836.64         68.6536
837.04        68.23422
837.45        67.84631
837.86        68.06383
838.26        69.00697
838.67        70.47726
839.08        71.95326
839.48        72.44977
839.89        71.72504
840.29        70.14385
840.70        68.44373
841.11        67.49989
841.51        67.52985
841.92        68.24274
842.33        69.32638
842.73        70.21418
843.14        70.57504
843.54        70.64036
843.95        70.51595
844.35        70.42262
844.76         70.4185
845.17        70.39907
845.57        70.35654
845.98        70.27879
846.38        70.18252
846.79        70.09545
847.19        70.01276
847.60        69.88152
848.00        69.71025
848.41        69.48619
848.81        69.28696
849.22        69.16316
849.62         69.1685
850.03        69.27239
850.43        69.42189
850.84        69.45979
851.24        69.39759
851.65        69.21738
852.05        69.09642
852.46        69.23154
852.86        69.65581
853.27        70.25998
853.67        70.77382
854.07        71.06348
854.48        71.08418
854.88        70.71267
855.29        69.94911
855.69        70.15205
856.10        69.44791
856.50         69.3814
856.90        69.32708
857.31        69.26153
857.71        69.19791
858.12        69.13101
858.52        69.10914
858.92        69.02708
859.33        68.85774
859.73        68.65619
860.13        68.42386
860.54        68.19725
860.94        68.03678
861.34        67.92411
861.75        67.85978
862.15        67.88443
862.55        67.97611
862.96        68.08461
863.36         68.2289
863.76        68.35708
864.17        68.42955
864.57        68.47577
864.97        68.41078
865.38        68.11946
865.78        67.62334
866.18         66.9574
866.58        66.28822
866.99         65.9084
867.39        65.93229
867.79        66.28893
868.19        66.80434
868.60        67.17768
869.00        67.35036
869.40        67.35363
869.80        67.31818
870.21        67.48543
870.61        67.95155
871.01        68.56187
871.41         69.0388
871.81        69.01004
872.22        68.42783
872.62        67.41309
873.02         66.3288
873.42        65.79198
873.82        65.97193
874.22        66.69125
874.63        67.55972
875.03        67.96203
875.43        67.73133
875.83         67.0715
876.23        66.30009
876.63        65.90623
877.03        66.01635
877.44        66.43198
877.84        66.96253
878.24        67.30789
878.64        67.31697
879.04        66.97018
879.44        66.46851
879.84        66.20624
880.24          66.242
880.64        66.41928
881.04        66.53854
881.44        66.31804
881.84        65.71366
882.24        64.85506
882.65        64.01881
883.05        63.60983
883.45        63.73122
883.85        64.27096
884.25        64.99665
884.65        65.51151
885.05        65.67702
885.45        65.57729
885.85        65.38701
886.25        65.38115
886.65        65.62308
887.05        66.02872
887.45        66.39625
887.85        66.40743
888.25        66.00233
888.65        65.29736
889.04        64.58125
889.44         64.3161
889.84        64.58267
890.24        65.24635
890.64        65.99161
891.04        66.29852
891.44        66.04642
891.84        65.41647
892.24        64.71181
892.64        64.38046
893.04        64.53501
893.44          65.041
893.83        65.70834
894.23        66.17439
894.63        66.34576
895.03        66.30701
895.43        66.21783
895.83         66.3391
896.23        66.71415
896.63        67.22221
897.02        67.64525
897.42        67.67831
897.82         67.2683
898.22        66.57438
898.62        65.79867
899.01        65.22082
899.41        64.94707
899.81        64.88271
900.21        64.99722
900.61        65.23859
901.00        65.55125
901.40        65.93327
901.80        66.28617
902.20        66.44163
902.59        66.38102
902.99        66.14764
903.39        65.82874
903.79        65.58263
904.18        65.45408
904.58        65.38951
904.98        65.43822
905.38        65.67963
905.77        66.09929
906.17        66.70191
906.57        67.24313
906.96        67.31088
907.36        66.82789
907.76        65.93841
908.15        65.05923
908.55        64.83871
908.95        65.42043
909.34        66.59989
909.74          67.927
910.14        68.73381
910.53        68.78126
910.93        68.29285
911.33        67.47167
911.72        66.62503
912.12        65.95769
912.52        65.39822
912.91        64.97745
913.31         64.7645
913.70        64.76542
914.10         64.9604
914.49        65.38024
914.89        65.95828
915.29        66.65111
915.68        67.43196
916.08        68.07449
916.47        68.29934
916.87        68.06266
917.26        67.41676
917.66        66.67966
918.05        66.20054
918.45        66.08339
918.84        66.30699
919.24        66.63612
919.64        66.78201
920.03        66.68004
920.42        66.38208
920.82        66.17625
921.21        66.45194
921.61        67.24927
922.00        68.46394
922.40        69.65621
922.79        70.20609
923.19        69.91247
923.58         69.0057
923.98        67.91528
924.37        67.20644
924.77        67.04015
925.16        67.21406
925.55        67.53798
925.95        67.66342
926.34        67.48925
926.74        67.12772
927.13        66.64592
927.52        66.05883
927.92        65.47378
928.31         64.8991
928.70        64.43943
929.10        64.23749
929.49        64.29852
929.89        64.50062
930.28        64.94201
930.67        65.66337
931.07        66.57318
931.46         67.7111
931.85        68.58942
932.24        68.48335
932.64        67.36033
933.03        65.44872
933.42        63.57101
933.82        62.93775
934.21        63.78735
934.60        65.81624
934.99        68.25452
935.39        69.68252
935.78        69.68591
936.17        68.57082
936.56        66.99942
936.96        66.02883
937.35        65.95994
937.74        66.47404
938.13        67.09067
938.53        67.09064
938.92        66.33119
939.31        65.13875
939.70        63.97823
940.09         63.4737
940.49        63.72884
940.88        64.54921
941.27        65.61744
941.66         66.3618
942.05         66.5834
942.44        66.47786
942.84        66.22167
943.23        66.08541
943.62        66.16707
944.01        66.31329
944.40        66.56035
944.79        67.00204
945.18        67.59537
945.57        68.32072
945.97        68.84694
946.36        68.70425
946.75        67.79653
947.14        66.36605
947.53        64.85572
947.92        63.89365
948.31        63.63481
948.70        63.90444
949.09        64.52898
949.48        65.18909
949.87        65.72967
950.26        66.21956
950.65        66.61118
951.04        66.83154
951.43        66.86874
951.82        66.70015
952.21        66.39352
952.60         66.0993
952.99        65.88406
953.38        65.75053
953.77        65.69515
954.16        65.69404
954.55        65.72329
954.94        65.76285
955.33        65.82581
955.72        65.92581
956.11        66.04488
956.50        66.18517
956.89        66.18807
957.28        65.80466
957.66        65.02413
958.05        64.00168
958.44        63.06604
958.83        62.68187
959.22        62.92428
959.61        63.65845
960.00        64.59388
960.39        65.17501
960.78        65.20184
961.16        64.81532
961.55        64.27814
961.94        63.91207
962.33        63.82886
962.72        63.95947
963.11         64.1981
963.49        64.39262
963.88        64.40199
964.27        64.26089
964.66        64.18275
965.04        64.50519
965.43        65.22186
965.82        66.30686
966.21        67.24409
966.60        67.07679
966.98        65.62498
967.37        63.34269
967.76        61.15707
968.15        60.23081
968.53        60.75922
968.92        62.46125
969.31        64.64549
969.69        65.89051
970.08        65.62395
970.47        64.29223
970.86        62.77099
971.24        62.30877
971.63        63.17898
972.02        65.02974
972.40        67.17024
972.79        67.99127
973.17        67.08015
973.56        65.02969
973.95        62.79039
974.33        61.56204
974.72        61.59153
975.11         62.4929
975.49        63.78344
975.88        64.48188
976.26         64.2914
976.65        63.50427
977.04        62.50537
977.42         61.8306
977.81        61.61807
978.19        61.66287
978.58        61.95233
978.96        62.45192
979.35        63.07071
979.74        63.84937
980.12        64.67127
980.51         65.0702
980.89        65.06059
981.28         64.7289
981.66        64.31278
982.05        64.14997
982.43        64.35047
982.82        64.79995
983.20         65.5808
983.59        66.70285
983.97        68.16232
984.35        69.89518
984.74        71.43602
985.12        72.25474
985.51        72.15396
985.89        71.30495
986.28        70.23392
986.66        69.68423
987.04        69.91131
987.43        70.68404
987.81        71.70777
988.20        72.25106
988.58        72.08826
988.96        71.36745
989.35        70.38715
989.73        69.53871
990.12        68.91853
990.50        68.46387
990.88        67.93546
991.27        66.99237
991.65        65.64973
992.03        64.10291
992.42        62.85964
992.80         62.5368
993.18        63.24952
993.56        64.85372
993.95        66.70276
994.33        67.74741
994.71        67.50742
995.10        66.33556
995.48        64.93919
995.86        64.48544
996.24        65.23602
996.63        66.75124
997.01        68.58563
997.39        69.46579
997.77        68.93608
998.15        67.55383
998.54        65.81027
998.92        64.26105
999.30        63.20316
999.68        62.42713
1000.06        62.20697
1000.45        62.92443
1000.83        64.65443
1001.21        67.39325
1001.59        70.46797
1001.97        72.15193
1002.35        71.84207
1002.73        70.10572
1003.12        68.00216
1003.50         66.8228
1003.88        66.98243
1004.26        67.94577
1004.64        69.68063
1005.02         71.9692
1005.40        74.39518
1005.78        77.08743
1006.16        78.87329
1006.54        77.93284
1006.92        74.29625
1007.30        68.72001
1007.69        63.27806
1008.07        60.79071
1008.45        62.01813
1008.83        66.32452
1009.21        72.35929
1009.59        76.57018
1009.97        77.13975
1010.35        75.10046
1010.73        71.46779
1011.11        67.78076
1011.49        64.78808
1011.86        62.09253
1012.24        60.20927
1012.62        59.87483
1013.00        61.10491
1013.38        63.89156
1013.76        67.54569
1014.14        70.02315
1014.52        70.30453
1014.90        68.80544
1015.28        66.39426
1015.66        64.44083
1016.04        63.33175
1016.41        62.64831
1016.79        62.35434
1017.17        62.48275
1017.55        62.92416
1017.93        63.73711
1018.31        64.57269
1018.69        64.83377
1019.06        64.44722
1019.44         63.5291
1019.82        62.31731
1020.20        61.54481
1020.58        61.48736
1020.95        61.68743
1021.33        62.26034
1021.71        63.26874
1022.09        64.75411
1022.46        67.17423
1022.84        69.50164
1023.22        69.35367
1023.60        66.15353
1023.97        60.55631
1024.35        55.81101
1024.73        55.73444
