SpectraSmart Spectrum 2.9.0.0
--------- Device Information -----------
Spectrum Name :  反射率_0
Saving Time :  2024/04/26 22:07:20
Spectro-Module Model Name : SE2030-DUVN
Spectro-Module Serial Number : OS361AC55029948
Wavelength Start : 200
Wavelength End : 1025
Wavelength Unit : Wavelength(nm)
Spectrum Unit : Reflectance(%)
-----------Spectrum Setting ------------
Integration Time : 20ms
Average : 10
Boxcar : 0
Background removal :  enabled
linearity correction :  enabled
SC :  disabled
Intensity correction :  disabled
DWT denoise :  enabled
savitzky-golay :  disabled
FFT :  disabled
Running average :  disabled
Kalman :  disabled
High pass :  disabled
---------------BEGIN--------------------
Wavelength(nm)             Reflectance(%)
200.29               0
200.75        34.94741
201.21        36.25274
201.67        38.89359
202.13        41.68351
202.58        44.48827
203.04        48.50266
203.50        53.99887
203.96         59.7804
204.42        64.48958
204.88         67.3611
205.34        67.96523
205.80        67.20734
206.26        65.59608
206.72        62.82254
207.18        60.03723
207.64        57.92636
208.10        56.32343
208.55        55.80091
209.01        54.66842
209.47        50.32598
209.93        44.55205
210.39        40.18365
210.85        38.88479
211.31        41.79624
211.77        50.33098
212.23        70.51329
212.69        122.1809
213.14        213.1995
213.60        217.5162
214.06        159.3025
214.52         117.042
214.98        96.01195
215.44        84.62927
215.90        75.46299
216.36        68.75564
216.81        66.41165
217.27        69.34818
217.73        79.85859
218.19        96.27184
218.65        103.4084
219.11        95.40161
219.57         81.7878
220.02        72.69398
220.48        73.96101
220.94        84.97179
221.40        106.5313
221.86        138.1756
222.32        159.8351
222.77        153.3082
223.23        132.2051
223.69        110.4445
224.15        95.72589
224.61        87.33224
225.06        81.79311
225.52        79.38548
225.98        80.21675
226.44        83.67016
226.90          89.578
227.36        95.89993
227.81         98.8092
228.27        97.78064
228.73        93.97392
229.19         90.0713
229.65         89.2955
230.10        91.74932
230.56        96.33907
231.02        100.7897
231.48        101.5621
231.93        98.20456
232.39        92.86263
232.85         87.6209
233.31        85.12498
233.77        85.63386
234.22        88.02704
234.68        91.27792
235.14        93.91254
235.60        95.33944
236.05        96.16405
236.51        95.97272
236.97        94.22281
237.43        90.97952
237.88        86.38676
238.34        81.68304
238.80        79.25443
239.26        79.92725
239.71        84.29763
240.17        91.38528
240.63        97.99335
241.08        101.8803
241.54        102.2148
242.00        101.2574
242.46        104.5114
242.91        116.0112
243.37        137.5002
243.83        169.0227
244.28        194.2355
244.74         190.317
245.20         158.897
245.66        123.6678
246.11        104.5833
246.57        101.5948
247.03        108.6129
247.48        116.8959
247.94        112.7153
248.40        98.18872
248.85        82.08824
249.31         70.3716
249.77        65.66809
250.22        66.91843
250.68        72.68945
251.14        81.63044
251.59        87.99778
252.05        88.10147
252.51        84.70177
252.96        79.68835
253.42        75.42513
253.88        72.35471
254.33        69.46498
254.79        68.50816
255.25        70.65789
255.70        75.38582
256.16        82.16838
256.62        88.06181
257.07        88.53651
257.53        84.93183
257.99        79.93832
258.44        75.78797
258.90        74.79816
259.35        75.88426
259.81        78.33783
260.27        80.72546
260.72        81.35898
261.18        80.48814
261.63        78.53703
262.09        76.82635
262.55         76.1007
263.00        76.17836
263.46        76.83825
263.91        77.17957
264.37         76.5164
264.83        74.82259
265.28        72.51628
265.74        70.44088
266.19        69.22049
266.65        69.01368
267.11        69.38425
267.56        69.97697
268.02        70.24721
268.47        70.00101
268.93        69.49854
269.38        68.68088
269.84        67.54432
270.30        66.14644
270.75        64.45322
271.21        62.90926
271.66        62.12094
272.12        62.15723
272.57         62.7831
273.03        63.39372
273.48        62.97511
273.94        61.43039
274.39        59.10556
274.85        56.69977
275.31        54.97216
275.76        54.05071
276.22        53.71766
276.67        53.61457
277.13        53.39633
277.58        52.86324
278.04        52.17064
278.49        51.35306
278.95         50.6125
279.40        49.91796
279.86        49.31463
280.31         48.5939
280.77        47.64599
281.22        46.43483
281.68        45.13657
282.13        43.96911
282.59        43.36041
283.04        43.27961
283.50        43.60058
283.95        43.97443
284.41        43.88077
284.86        43.20182
285.32         42.1686
285.77        41.04478
286.22        40.28489
286.68        39.97926
287.13          39.932
287.59        39.99839
288.04        39.89893
288.50        39.59259
288.95        39.13819
289.41        38.64178
289.86        38.15413
290.32        37.74826
290.77        37.37388
291.22         37.0381
291.68         36.7389
292.13        36.46483
292.59        36.25046
293.04        36.12986
293.50        36.17804
293.95        36.38913
294.40        36.73758
294.86        37.15451
295.31        37.51944
295.77        37.81257
296.22        38.05476
296.68        38.30302
297.13        38.62771
297.58        39.05568
298.04         39.5583
298.49        40.10416
298.95        40.66926
299.40        41.22139
299.85        41.76274
300.31        42.27916
300.76        42.73127
301.21        43.11511
301.67         43.4499
302.12        43.71928
302.58        43.97462
303.03        44.19901
303.48        44.41413
303.94        44.63585
304.39        44.83795
304.84        45.03431
305.30        45.23734
305.75        45.42942
306.20        45.64923
306.66        45.90373
307.11        46.15677
307.57        46.37944
308.02        46.46502
308.47        46.41892
308.93        46.28723
309.38        46.12277
309.83        46.06783
310.29        46.14843
310.74        46.31082
311.19          46.484
311.65        46.54443
312.10        46.45032
312.55        46.24126
313.00        45.97314
313.46        45.72638
313.91        45.51021
314.36        45.31332
314.82        45.10833
315.27        44.86969
315.72        44.59203
316.18        44.30623
316.63        44.03164
317.08        43.81223
317.53        43.65207
317.99        43.52411
318.44        43.40566
318.89        43.24883
319.35        43.03674
319.80        42.78028
320.25        42.48743
320.70        42.17316
321.16        41.84589
321.61        41.52222
322.06        41.20352
322.51        40.89674
322.97        40.60281
323.42        40.32497
323.87        40.09151
324.32        39.95223
324.78         39.8912
325.23        39.91197
325.68        39.90558
326.13        39.70378
326.59        39.27596
327.04         38.6901
327.49        38.07909
327.94        37.65756
328.39        37.47301
328.85        37.44884
329.30        37.51879
329.75         37.4823
330.20        37.27891
330.66        36.96466
331.11        36.62082
331.56        36.34593
332.01        36.17046
332.46        36.04403
332.92        35.92679
333.37         35.8176
333.82        35.68486
334.27        35.55345
334.72         35.3998
335.17        35.17552
335.63         34.8795
336.08         34.5464
336.53        34.24707
336.98        34.11368
337.43        34.17124
337.88        34.37008
338.34        34.62184
338.79        34.80905
339.24          34.867
339.69        34.83115
340.14        34.70466
340.59        34.50108
341.05        34.25778
341.50        33.97503
341.95        33.72408
342.40        33.61563
342.85        33.66693
343.30        33.84018
343.75        34.06853
344.20        34.23669
344.66        34.30387
345.11        34.29457
345.56         34.2103
346.01        34.06016
346.46        33.86856
346.91        33.64598
347.36        33.43924
347.81        33.32439
348.26        33.31654
348.72        33.39259
349.17         33.5226
349.62        33.66828
350.07        33.80265
350.52        33.92991
350.97        34.00079
351.42        33.94139
351.87         33.7489
352.32        33.45089
352.77        33.13333
353.22         32.9242
353.67        32.85028
354.13        32.87761
354.58         32.9436
355.03        32.93961
355.48        32.83279
355.93        32.65633
356.38        32.45576
356.83        32.29707
357.28        32.19427
357.73        32.12096
358.18         32.0413
358.63        31.90391
359.08        31.70033
359.53         31.4545
359.98        31.20222
360.43        30.99133
360.88        30.82904
361.33        30.69524
361.78        30.56432
362.23        30.39815
362.68         30.1892
363.13        29.95659
363.58        29.71084
364.03        29.46484
364.48        29.22524
364.93        28.98603
365.38         28.7648
365.83         28.5921
366.28        28.47155
366.73        28.39485
367.18        28.32475
367.63        28.20156
368.08        28.01073
368.53          27.766
368.98        27.50493
369.43        27.28809
369.88         27.1319
370.33        27.02319
370.78        26.92472
371.23        26.77609
371.68        26.56505
372.13        26.31065
372.58        26.06746
373.03        25.91852
373.48        25.87808
373.93         25.9179
374.38        25.96517
374.83         25.9067
375.28        25.71688
375.72        25.42328
376.17        25.11792
376.62        24.90759
377.07        24.81881
377.52        24.82256
377.97        24.84874
378.42        24.78806
378.87        24.61628
379.32        24.36449
379.77        24.11864
380.22        24.00144
380.67        24.03035
381.11        24.17545
381.56        24.31071
382.01        24.24981
382.46        23.96311
382.91        23.53225
383.36        23.10709
383.81        22.89235
384.26        22.92094
384.71        23.12095
385.15        23.38423
385.60        23.53139
386.05        23.50432
386.50        23.35962
386.95        23.15452
387.40        22.97816
387.85        22.86182
388.29        22.76088
388.74        22.68915
389.19        22.61575
389.64        22.53117
390.09        22.44271
390.54        22.35521
390.98        22.26617
391.43        22.19082
391.88        22.12807
392.33        22.06344
392.78        21.97731
393.23        21.86971
393.67        21.73571
394.12        21.62827
394.57         21.5825
395.02        21.60039
395.47        21.66119
395.91        21.72389
396.36        21.70686
396.81        21.60752
397.26         21.4612
397.71        21.30537
398.15        21.20755
398.60         21.2064
399.05        21.18622
399.50        21.15975
399.95        21.30598
400.39        21.54761
400.84        21.50158
401.29        21.18937
401.74        20.98355
402.18        20.91397
402.63         20.7641
403.08        20.56361
403.53        20.45075
403.97        20.43718
404.42        20.49239
404.87        20.57546
405.32        20.61451
405.76        20.58635
406.21        20.51709
406.66        20.44349
407.11         20.4281
407.55        20.48855
408.00        20.59345
408.45        20.69638
408.90        20.70839
409.34        20.60721
409.79         20.4299
410.24        20.23886
410.68        20.11271
411.13        20.07623
411.58        20.10837
412.03        20.16772
412.47        20.18372
412.92        20.13046
413.37        20.03718
413.81         19.9479
414.26         19.9432
414.71         20.0284
415.15        20.18387
415.60        20.34621
416.05        20.42459
416.49        20.39367
416.94        20.27877
417.39        20.13859
417.83        20.06333
418.28        20.07241
418.73         20.1312
419.17        20.20249
419.62        20.22605
420.07        20.18738
420.51        20.11378
420.96         20.0189
421.41        19.91581
421.85        19.81106
422.30        19.69197
422.74        19.58593
423.19        19.62448
423.64        19.77944
424.08         19.9123
424.53        19.97293
424.98        20.02995
425.42        20.07837
425.87        20.00412
426.31        19.85185
426.76        19.83947
427.21        19.93125
427.65        19.83463
428.10        19.60486
428.54        19.53222
428.99        19.63482
429.44         19.8189
429.88        20.00953
430.33        20.00922
430.77        19.86711
431.22        19.96504
431.66        20.25957
432.11        20.34824
432.56        20.22487
433.00        20.13149
433.45        20.04047
433.89        19.90534
434.34        19.83677
434.78        19.42585
435.23        19.78261
435.67        19.86576
436.12        19.94666
436.57        19.93897
437.01        19.85473
437.46        19.79399
437.90        19.75543
438.35        19.65609
438.79         19.5228
439.24        19.46509
439.68        19.49265
440.13        19.57656
440.57        19.67707
441.02        19.74394
441.46        19.75658
441.91        19.68184
442.35        19.55284
442.80        19.60837
443.24        19.77283
443.69         19.6997
444.13        19.43054
444.58        19.33978
445.02        19.44165
445.47        19.53787
445.91        19.59689
446.36        19.66356
446.80        19.72158
447.24        19.75821
447.69        19.77787
448.13        19.78099
448.58        19.77386
449.02        19.75254
449.47         19.7242
449.91        19.69027
450.36        19.65861
450.80        19.62717
451.25        19.60096
451.69        19.57239
452.13        19.54311
452.58         19.5119
453.02        19.48029
453.47        19.45302
453.91        19.43151
454.36           19.42
454.80        19.40528
455.24        19.36552
455.69        19.30505
456.13        19.21694
456.58        19.14806
457.02        19.13842
457.46            19.2
457.91        19.31598
458.35        19.42155
458.79        19.42039
459.24        19.31416
459.68        19.12681
460.13        18.94809
460.57        18.86361
461.01        18.90643
461.46        19.02953
461.90        19.19534
462.34        19.32456
462.79        19.38177
463.23        19.39696
463.68        19.36393
464.12        19.28639
464.56        19.17432
465.01        19.05301
465.45        18.92917
465.89        18.86551
466.34        18.86823
466.78        18.91864
467.22        19.00013
467.67        19.06096
468.11        19.09488
468.55         19.1062
468.99        19.10273
469.44        19.09688
469.88        19.09444
470.32        19.08554
470.77        19.07613
471.21        19.08086
471.65        19.09961
472.10         19.1356
472.54        19.16668
472.98        19.16305
473.42        19.12206
473.87        19.05985
474.31        18.99662
474.75        18.98224
475.20        19.02798
475.64        19.10785
476.08        19.19688
476.52        19.24627
476.97        19.24436
477.41        19.21701
477.85        19.18598
478.29        19.15806
478.74        19.16031
479.18         19.2343
479.62         19.3556
480.06        19.45355
480.50        19.52003
480.95         19.5609
481.39        19.57143
481.83        19.73611
482.27        19.76283
482.72        19.87511
483.16        19.97924
483.60        20.01843
484.04        19.98118
484.48        20.02108
484.93        20.16045
485.37        19.98421
485.81        20.19361
486.25        20.38875
486.69        19.93692
487.14        20.52223
487.58        21.44062
488.02        21.01911
488.46        20.60106
488.90        20.65073
489.34        20.70369
489.79        21.08181
490.23        21.33438
490.67        21.61718
491.11        21.82268
491.55        21.74905
491.99        21.50087
492.43        21.43194
492.88        21.59343
493.32        21.79653
493.76        21.98676
494.20        22.17149
494.64        22.33706
495.08        22.44092
495.52        22.50263
495.96        22.69877
496.41        22.98836
496.85        23.01244
497.29        22.82015
497.73        23.02562
498.17        23.29273
498.61        23.47139
499.05        23.44897
499.49        23.48336
499.93         23.5383
500.37        23.72863
500.82        23.99447
501.26        24.17371
501.70        24.24477
502.14        24.30555
502.58        24.39401
503.02        24.52087
503.46          24.693
503.90        24.90406
504.34        25.10471
504.78        25.21358
505.22        25.21444
505.66        25.13471
506.10        25.03122
506.54        24.99475
506.98        25.04923
507.42        25.16744
507.86        25.31373
508.30         25.4277
508.74         25.4904
509.18        25.52385
509.62        25.54049
510.06        25.55972
510.50        25.58925
510.94        25.61642
511.38        25.64987
511.82        25.70611
512.26         25.7862
512.70        25.88944
513.14        25.98453
513.58        26.03255
514.02        26.02838
514.46        25.95767
514.90        25.85948
515.34        25.93225
515.78        25.97631
516.22         26.1385
516.66            26.3
517.10        26.37741
517.54        26.34853
517.98        26.24412
518.42        26.11511
518.86        26.03715
519.30        26.03182
519.74        26.07409
520.18        26.13167
520.62        26.15425
521.06         26.1286
521.50        26.07496
521.93        26.01367
522.37        25.96631
522.81        25.94541
523.25        25.93944
523.69        25.94217
524.13        25.94683
524.57        25.94687
525.01         25.9406
525.45         25.9233
525.89        25.88712
526.32        25.82746
526.76        25.75371
527.20        25.66221
527.64        25.55083
528.08        25.42482
528.52        25.28914
528.96        25.16415
529.40        25.07958
529.83        25.03942
530.27        25.03655
530.71        25.04538
531.15        25.02656
531.59        24.97006
532.03        24.88567
532.46        24.78868
532.90        24.72143
533.34        24.68924
533.78        24.66725
534.22        24.64196
534.66        24.62342
535.09        24.59025
535.53        24.49389
535.97        24.36123
536.41        24.29714
536.85        24.31315
537.28        24.35655
537.72        24.41483
538.16        24.48612
538.60        24.55964
539.04        24.63452
539.47         24.6969
539.91        24.74139
540.35        24.76496
540.79        24.77494
541.22        24.78512
541.66        24.82691
542.10        24.90518
542.54        25.01138
542.97        25.13793
543.41        25.28238
543.85        25.43551
544.29        25.59988
544.72         25.7575
545.16        25.89907
545.60         26.0196
546.04        26.12532
546.47         26.2388
546.91        26.39583
547.35        26.59867
547.79         26.8262
548.22        27.05104
548.66        27.24429
549.10         27.4199
549.53        27.53963
549.97        27.62873
550.41        27.70265
550.84         27.8027
551.28        27.97038
551.72        28.17673
552.15        28.40976
552.59        28.69335
553.03        28.60793
553.46        29.00574
553.90        29.12571
554.34        29.21904
554.77        29.29065
555.21        29.36872
555.65        29.47457
556.08          29.602
556.52         29.7283
556.96        29.83648
557.39        29.98085
557.83         30.1341
558.27        30.13094
558.70         30.0095
559.14        30.01179
559.57         30.1338
560.01        30.22048
560.45        30.27032
560.88        30.37596
561.32        30.54999
561.75        30.73126
562.19        30.90528
562.63         31.0452
563.06        31.13588
563.50         31.1856
563.93        31.19241
564.37        31.23613
564.80        31.34377
565.24        31.42573
565.68         31.3967
566.11        31.82944
566.55        31.58256
566.98        31.54918
567.42        31.50042
567.85        31.72705
568.29        32.17249
568.72        32.46782
569.16        32.63782
569.60        32.79601
570.03        33.04832
570.47        33.26181
570.90        33.50162
571.34        33.30535
571.77        33.73404
572.21        33.91182
572.64        34.06087
573.08        34.27494
573.51        34.27454
573.95        34.30992
574.38        34.34352
574.82        34.82338
575.25        34.50446
575.69        34.68059
576.12        34.95919
576.56        34.92096
576.99        34.61604
577.42        34.76303
577.86         35.0291
578.29        35.14043
578.73        34.98049
579.16        35.29611
579.60        34.70929
580.03         34.6682
580.47        34.46717
580.90        34.81871
581.33        34.61057
581.77         34.6169
582.20        33.89631
582.64        34.44641
583.07        34.40926
583.51        34.44671
583.94        34.13729
584.37        33.82364
584.81        33.62844
585.24        33.42066
585.68        33.27529
586.11        33.18216
586.54        33.26669
586.98         33.0776
587.41        32.70034
587.85         32.7611
588.28        32.69141
588.71        32.82218
589.15        32.56491
589.58        32.60586
590.01        32.72026
590.45        32.50764
590.88        32.84778
591.31        32.72106
591.75        32.50594
592.18        32.39408
592.61        32.37929
593.05        32.92377
593.48        32.81467
593.91        32.73447
594.35        33.24678
594.78        32.91991
595.21        32.75937
595.65        32.88154
596.08        33.51575
596.51        33.75937
596.94        33.51542
597.38        33.58482
597.81         33.9292
598.24        34.42108
598.68        34.65484
599.11        34.80737
599.54        35.37028
599.97        35.44322
600.41        35.87687
600.84        35.96508
601.27        36.44422
601.70        36.85603
602.14        37.27724
602.57        37.66789
603.00         38.1116
603.43        38.09135
603.87        38.88887
604.30        39.42293
604.73        40.08947
605.16         39.9697
605.60        40.40308
606.03        40.56244
606.46         40.8213
606.89        41.39546
607.32        42.30265
607.76        42.34522
608.19        43.02285
608.62        43.26431
609.05        43.52087
609.48        43.89701
609.92        44.92086
610.35        44.94646
610.78        44.85735
611.21        45.05635
611.64        45.56053
612.07        46.11304
612.50        46.34921
612.94        46.68048
613.37         47.0042
613.80        47.06182
614.23        46.98222
614.66        47.11008
615.09        47.75245
615.52        48.11337
615.96         48.2257
616.39        48.48857
616.82        48.93392
617.25        48.85244
617.68        49.04101
618.11        49.37889
618.54        49.98592
618.97          50.276
619.40        50.26858
619.84        50.29869
620.27        50.48288
620.70         50.7313
621.13        50.96065
621.56        50.77921
621.99        50.30751
622.42        50.18315
622.85        50.46223
623.28        50.75154
623.71        50.94862
624.14        51.13301
624.57        51.30801
625.00        51.06495
625.43        51.10459
625.86        51.03532
626.29         50.8625
626.72        50.19762
627.15        50.45851
627.58        50.37832
628.01         50.2878
628.44        50.14622
628.87        49.96959
629.30        49.25465
629.73        48.93575
630.16        48.65496
630.59        48.62329
631.02        48.50342
631.45        48.31426
631.88        48.06286
632.31        47.71571
632.74        47.52118
633.17          46.887
633.60        46.41519
634.03        45.94726
634.46        45.47538
634.89        44.99586
635.32        44.51468
635.75        44.04964
636.18        43.58152
636.61         43.1352
637.04        42.74074
637.47        42.39653
637.89        42.09565
638.32         41.7864
638.75        41.42228
639.18        40.99817
639.61        40.53486
640.04        40.08543
640.47        39.72861
640.90        39.48116
641.33        39.32306
641.76        39.20829
642.18        39.06507
642.61        38.86428
643.04        38.63528
643.47        38.42479
643.90        38.30616
644.33         38.2963
644.76        38.37196
645.18        38.49008
645.61         38.5716
646.04        38.60408
646.47        38.61784
646.90        38.65917
647.33        38.79266
647.75        39.02004
648.18         39.3566
648.61        39.78989
649.04        40.14898
649.47        40.38515
649.89         41.1526
650.32        41.35089
650.75        41.79255
651.18        42.15947
651.61         42.5473
652.03        43.02372
652.46        43.54824
652.89        44.11021
653.32        44.83942
653.74        45.69885
654.17         45.7053
654.60         46.4215
655.03        46.59092
655.46        46.04494
655.88         46.6693
656.31        48.24922
656.74        47.55468
657.16        52.29499
657.59         57.8722
658.02        52.43145
658.45        51.78289
658.87        51.18905
659.30        51.38466
659.73        51.54393
660.15        52.73719
660.58        52.18917
661.01        52.40219
661.44          52.702
661.86        52.90661
662.29        52.98576
662.72        53.64051
663.14        53.81902
663.57        54.02525
664.00        54.05113
664.42         54.3166
664.85        54.84695
665.27        55.43171
665.70        55.91025
666.13        56.16336
666.55        56.16094
666.98        55.89275
667.41        55.49679
667.83         55.5563
668.26        55.55281
668.69        55.88206
669.11        56.30287
669.54        56.67545
669.96         56.9475
670.39        57.22936
670.82        57.50327
671.24        57.54827
671.67        57.44711
672.09        57.55075
672.52        57.85635
672.94        58.05164
673.37        58.11587
673.80        58.16664
674.22        58.23309
674.65        58.30692
675.07        58.40853
675.50        58.49976
675.92         58.5843
676.35        58.68217
676.77        58.79524
677.20        58.91237
677.62        59.04457
678.05        59.18409
678.47        59.32121
678.90        59.50879
679.32        59.73667
679.75        59.73452
680.17        59.89594
680.60        59.94127
681.02        60.01948
681.45        60.07186
681.87        60.15953
682.30        60.46333
682.72         60.8982
683.15        61.10848
683.57         61.0925
684.00        61.03229
684.42        60.98891
684.85        61.20382
685.27        61.26078
685.70         61.5334
686.12        61.82462
686.54        62.03376
686.97        62.12555
687.39        62.13925
687.82        62.10896
688.24        62.09533
688.66        62.12025
689.09        62.17159
689.51        62.23742
689.94        62.27568
690.36          62.289
690.78        62.26434
691.21        62.27057
691.63        62.43118
692.06        62.74354
692.48        63.12663
692.90        63.45873
693.33        63.58792
693.75        63.48645
694.17        63.19412
694.60        62.88465
695.02        62.81218
695.44         63.0128
695.87        63.46971
696.29        63.97412
696.71        63.98214
697.14        63.61074
697.56        63.45155
697.98        63.51723
698.41        64.20919
698.83        63.89389
699.25        64.28091
699.68        64.76425
700.10         64.9357
700.52        64.69174
700.94        64.59106
701.37        64.09704
701.79        64.04173
702.21        64.27021
702.64        64.69703
703.06        65.17878
703.48        65.47984
703.90        65.53934
704.33        65.43467
704.75        65.24894
705.17        65.10394
705.59        65.05151
706.01        65.04752
706.44        65.11251
706.86         65.2902
707.28        65.55693
707.70        65.93241
708.12        66.33318
708.55        66.53895
708.97         66.5559
709.39        66.57549
709.81        66.63114
710.23        66.65018
710.66        66.64706
711.08        66.70468
711.50        66.78048
711.92        66.78352
712.34        66.70911
712.76        66.60316
713.19        66.49133
713.61        66.44918
714.03        66.48514
714.45        66.58284
714.87        66.74228
715.29        66.96835
715.71        67.24426
716.13        67.54688
716.56        67.81996
716.98        68.06071
717.40        68.21438
717.82        68.28964
718.24        68.26551
718.66        68.11717
719.08        67.87861
719.50        67.57517
719.92        67.29871
720.34        67.23659
720.76        67.42719
721.19        67.58597
721.61        68.05576
722.03        68.42238
722.45        68.73502
722.87        68.99373
723.29         69.1396
723.71         69.0779
724.13        68.81079
724.55        68.39033
724.97        67.94433
725.39        67.65851
725.81        67.59045
726.23        67.73145
726.65        68.03812
727.07        68.26397
727.49        68.61658
727.91         68.9043
728.33         69.1799
728.75        69.37808
729.17        69.47971
729.59        69.53518
730.01        69.54794
730.43        69.40217
730.85        69.18488
731.27        69.22579
731.69        69.46136
732.10        69.49774
732.52        69.31146
732.94        69.13902
733.36        69.05664
733.78        68.95659
734.20         68.8472
734.62        69.00142
735.04        69.47044
735.46        69.04349
735.88        69.74434
736.30        69.90298
736.72        70.13432
737.13        70.35272
737.55         70.4893
737.97        70.79697
738.39        71.10825
738.81         70.6465
739.23        69.66219
739.65        69.57861
740.06        70.30589
740.48        70.60715
740.90         70.4174
741.32        70.47505
741.74        70.79433
742.16        71.00259
742.57        71.07304
742.99        71.08835
743.41         71.0481
743.83        70.93358
744.25        70.76208
744.67        70.53122
745.08          70.325
745.50         70.2625
745.92        70.36573
746.34        70.58089
746.75        70.82954
747.17        70.93542
747.59        70.86692
748.01        70.78548
748.42        70.69686
748.84        70.42724
749.26        70.12646
749.68        70.14464
750.09        70.46678
750.51        70.96047
750.93        71.39548
751.35        71.30727
751.76        70.79955
752.18        70.48447
752.60        70.37395
753.01        70.53414
753.43        70.18418
753.85        70.06376
754.27        69.92833
754.68          70.256
755.10        70.35559
755.52        70.27589
755.93        70.62195
756.35        70.72543
756.77        70.85792
757.18        71.06294
757.60         71.3577
758.02        71.68641
758.43        71.89973
758.85        71.95707
759.26        71.72733
759.68        71.21863
760.10        70.57989
760.51         70.6255
760.93        71.39095
761.34        71.11087
761.76        71.81086
762.18        71.93095
762.59        72.13587
763.01        72.13726
763.42        72.18787
763.84        72.16557
764.26        72.10748
764.67        71.71523
765.09        71.20215
765.50        71.15997
765.92        71.55486
766.33         71.7136
766.75        71.51297
767.16        71.48589
767.58        71.57757
768.00        71.30112
768.41        70.88042
768.83        71.12531
769.24        71.85944
769.66        72.32623
770.07        72.36115
770.49        71.76994
770.90        70.92804
771.32        71.30048
771.73        72.65955
772.15        73.10602
772.56        72.54062
772.97         71.9935
773.39        71.70611
773.80        71.71917
774.22        71.99924
774.63        72.26013
775.05        72.35699
775.46        72.47301
775.88        72.54266
776.29        72.41574
776.70        72.19114
777.12        72.16971
777.53        72.40646
777.95        72.75944
778.36        73.12759
778.77        73.30428
779.19        73.25589
779.60        73.08147
780.02        72.83366
780.43        72.66233
780.84        72.64684
781.26        72.45328
781.67        72.20529
782.09        72.75941
782.50        73.90359
782.91        73.76018
783.33        73.42585
783.74          73.126
784.15        73.22137
784.57        73.03508
784.98        72.67622
785.39        72.56517
785.81        72.75634
786.22        73.24857
786.63        73.86308
787.04        74.20152
787.46         74.1994
787.87        73.99203
788.28        73.72539
788.70        73.55397
789.11        73.51174
789.52        73.62148
789.93        73.79251
790.35         73.7934
790.76        73.62325
791.17        73.47903
791.58        73.46162
792.00         73.4414
792.41        73.42125
792.82        73.82791
793.23        74.40747
793.65        73.94703
794.06        72.81061
794.47        73.04897
794.88         74.4157
795.29        74.90185
795.71        74.38812
796.12        74.12564
796.53        74.22558
796.94        74.07157
797.35        73.81694
797.76        74.14442
798.18        74.83942
798.59        75.17373
799.00        75.06934
799.41        74.31863
799.82        74.20918
800.23        73.99364
800.64        74.06771
801.06        74.31343
801.47        74.65103
801.88        74.82967
802.29        74.76006
802.70        74.51871
803.11        74.18227
803.52        73.88077
803.93        73.69524
804.34        73.60872
804.75        73.60854
805.17        73.77405
805.58        74.13369
805.99        74.31987
806.40        74.42186
806.81        75.30305
807.22        76.45155
807.63        76.59506
808.04        74.47025
808.45        73.77048
808.86        74.23233
809.27        74.59115
809.68         74.6525
810.09        74.73911
810.50        74.81021
810.91        74.77038
811.32        74.74194
811.73        74.88571
812.14        75.21751
812.55        75.76585
812.96        76.35414
813.37        76.42133
813.78        75.98785
814.19        75.69278
814.60        75.56704
815.01        75.21492
815.42        74.66376
815.83        74.16258
816.24        73.82111
816.65        73.70319
817.05        73.85981
817.46         74.2571
817.87        74.74229
818.28         75.0162
818.69        75.01009
819.10        74.77474
819.51        74.48862
819.92        74.48891
820.33         74.8539
820.74        75.45834
821.14        76.08783
821.55        76.40242
821.96        76.32048
822.37        75.95618
822.78        75.47218
823.19        75.13936
823.60        75.05623
824.00        75.17355
824.41        75.36748
824.82        75.54575
825.23        75.64992
825.64        75.71429
826.04        75.76377
826.45        75.78413
826.86        75.79751
827.27        75.81277
827.68        75.79733
828.08        75.73572
828.49        75.58164
828.90        75.36069
829.31         75.2094
829.72          75.349
830.12        75.83445
830.53        76.53739
830.94        77.21484
831.35         77.3968
831.75        76.99128
832.16        76.12599
832.57        75.13136
832.97        74.51199
833.38         74.4111
833.79        74.66096
834.20        75.10643
834.60        75.49536
835.01        75.73606
835.42        75.95306
835.82        76.12453
836.23        76.11599
836.64        75.95626
837.04        75.62814
837.45        75.34803
837.86        75.55289
838.26        76.33508
838.67          77.527
839.08        78.72136
839.48        79.13301
839.89        78.56029
840.29        77.28684
840.70        75.92031
841.11        75.14433
841.51         75.1435
841.92        75.69025
842.33        76.55108
842.73        77.30883
843.14        77.67625
843.54         77.8279
843.95        77.84748
844.35         77.9285
844.76        78.10223
845.17        78.28642
845.57        78.39178
845.98        78.26526
846.38        77.91026
846.79        77.38603
847.19        76.85339
847.60        76.52854
848.00         76.4798
848.41        76.62512
848.81         76.8557
849.22        76.89317
849.62        76.71459
850.03         76.3887
850.43        76.05726
850.84        75.87307
851.24        75.93484
851.65        76.11533
852.05        76.45361
852.46        76.88258
852.86        77.34229
853.27        77.83151
853.67        78.17211
854.07        78.25282
854.48        78.04182
854.88        77.60535
855.29        77.03092
855.69        76.64346
856.10        76.47349
856.50        76.53217
856.90        76.69849
857.31        76.77853
857.71        76.76631
858.12        76.64586
858.52        76.50573
858.92        76.36964
859.33        76.23083
859.73        76.11037
860.13        75.94639
860.54        75.67027
860.94        75.32976
861.34        74.96086
861.75        74.62603
862.15        74.46444
862.55        74.48689
862.96        74.60474
863.36        74.84689
863.76        75.16445
864.17        75.49247
864.57        75.85295
864.97        76.06793
865.38        75.87762
865.78        75.28859
866.18          74.383
866.58         73.4399
866.99        72.96152
867.39        73.12189
867.79        73.76437
868.19        74.64709
868.60        75.36709
869.00        75.82578
869.40        76.09394
869.80        76.22031
870.21        76.29819
870.61        76.42402
871.01        76.49284
871.41        76.42522
871.81         76.1266
872.22        75.59243
872.62        74.87438
873.02         74.1723
873.42        73.80557
873.82        73.85429
874.22        74.22766
874.63        74.67271
875.03         74.7979
875.43        74.49326
875.83        73.88107
876.23        73.18715
876.63        72.75932
877.03        72.69235
877.44        72.86115
877.84        73.12631
878.24        73.25359
878.64        73.13228
879.04        72.72226
879.44        72.24313
879.84        72.10851
880.24        72.35293
880.64        72.80797
881.04        73.15913
881.44        72.92212
881.84        72.02496
882.24        70.68512
882.65        69.31285
883.05        68.52398
883.45        68.49189
883.85        69.04665
884.25        69.95678
884.65        70.80583
885.05        71.41811
885.45        71.88653
885.85        72.25017
886.25        72.58614
886.65         72.9196
887.05        73.17618
887.45        73.34371
887.85        73.43794
888.25        73.45525
888.65        73.41077
889.04        73.28912
889.44        73.08363
889.84        72.78893
890.24        72.42223
890.64        72.03064
891.04        71.69072
891.44        71.43565
891.84        71.27047
892.24        71.15961
892.64        71.02893
893.04         70.8824
893.44        70.77125
893.83        70.77473
894.23        70.96535
894.63        71.36574
895.03        71.88593
895.43        72.49368
895.83        73.15143
896.23        73.78609
896.63         74.3681
897.02        74.70511
897.42         74.5313
897.82        73.84583
898.22         72.8066
898.62        71.70183
899.01        70.94959
899.41        70.68263
899.81        70.76854
900.21        71.11514
900.61        71.55466
901.00        71.98165
901.40        72.41403
901.80        72.73618
902.20        72.75926
902.59        72.47525
902.99        71.93613
903.39        71.29063
903.79        70.80161
904.18        70.55289
904.58        70.48515
904.98         70.6169
905.38        70.96842
905.77        71.50698
906.17        72.24734
906.57        72.95724
906.96        73.24832
907.36         73.0235
907.76        72.38144
908.15        71.69976
908.55        71.57462
908.95        72.13863
909.34        73.22451
909.74         74.3632
910.14        74.86789
910.53        74.53191
910.93        73.60322
911.33        72.43481
911.72        71.55318
912.12        71.18457
912.52        71.17802
912.91        71.34937
913.31        71.44463
913.70        71.39526
914.10        71.26302
914.49        71.25996
914.89        71.62992
915.29        72.42917
915.68        73.54845
916.08        74.60355
916.47        75.05389
916.87        74.78946
917.26        73.95665
917.66        73.02377
918.05        72.54118
918.45        72.65084
918.84         73.2486
919.24        73.97787
919.64        74.35275
920.03        74.23969
920.42        73.75016
920.82        73.24088
921.21        73.20467
921.61        73.71111
922.00        74.62025
922.40        75.50493
922.79        75.78427
923.19        75.28607
923.58         74.2908
923.98        73.16534
924.37        72.35406
924.77        72.00681
925.16        71.92719
925.55        72.10423
925.95        72.49454
926.34        73.02867
926.74        73.69661
927.13        74.21191
927.52        74.04111
927.92        73.18934
928.31         71.8391
928.70        70.46767
929.10        69.79091
929.49        69.96045
929.89        70.69727
930.28         71.8445
930.67        72.97669
931.07         73.8562
931.46        74.68561
931.85         75.1728
932.24        74.91043
932.64        73.95005
933.03        72.37212
933.42        70.88101
933.82        70.53284
934.21        71.50945
934.60        73.57035
934.99        75.93326
935.39        77.14536
935.78        76.82571
936.17        75.29964
936.56        73.33149
936.96        72.14276
937.35        72.06927
937.74        72.74048
938.13        73.61304
938.53        73.85182
938.92        73.25784
939.31        72.18813
939.70        71.06424
940.09        70.44784
940.49        70.44556
940.88        70.87493
941.27        71.54039
941.66        72.10081
942.05         72.4194
942.44        72.63342
942.84         72.7702
943.23        72.85104
943.62         72.9096
944.01         72.8655
944.40        72.85558
944.79         73.1459
945.18         73.7409
945.57        74.54911
945.97        75.19312
946.36        75.13307
946.75         74.2449
947.14        72.82825
947.53        71.29823
947.92        70.22882
948.31        69.78811
948.70        69.80771
949.09        70.25216
949.48         71.0444
949.87        72.06496
950.26        73.29551
950.65        74.45834
951.04         75.0968
951.43        75.08894
951.82        74.51663
952.21        73.63168
952.60        72.89262
952.99        72.48165
953.38          72.341
953.77        72.39289
954.16        72.49128
954.55        72.57758
954.94        72.67364
955.33        72.87134
955.72        73.30123
956.11        73.94807
956.50        74.74052
956.89        75.33509
957.28        75.19704
957.66        74.24386
958.05        72.72677
958.44        71.17733
958.83        70.34539
959.22        70.38416
959.61        71.10812
960.00        72.11875
960.39        72.66251
960.78        72.48871
961.16        71.80204
961.55        71.01852
961.94        70.66019
962.33        70.86497
962.72        71.50249
963.11        72.26431
963.49        72.61803
963.88         72.3152
964.27        71.54089
964.66        70.78482
965.04        70.78955
965.43        71.63321
965.82        73.15188
966.21        74.69453
966.60        75.00949
966.98        73.76348
967.37        71.51934
967.76        69.17229
968.15        67.82941
968.53         67.7037
968.92        68.47775
969.31        69.69868
969.69        70.46477
970.08        70.36691
970.47        69.74223
970.86        69.03928
971.24        68.88111
971.63        69.41196
972.02        70.39795
972.40        71.55441
972.79        72.08681
973.17        71.81184
973.56        71.00614
973.95        70.03183
974.33        69.32413
974.72        69.00422
975.11        68.91574
975.49        68.99393
975.88        69.04982
976.26        69.07307
976.65         69.0876
977.04        69.10035
977.42        69.06583
977.81        68.94475
978.19        68.71954
978.58         68.5391
978.96        68.62094
979.35        68.96738
979.74        69.53148
980.12        70.16989
980.51        70.38714
980.89        70.20183
981.28        69.75047
981.66        69.27738
982.05        69.11309
982.43        69.34319
982.82        69.80537
983.20         70.5768
983.59         71.6514
983.97        73.02592
984.35        74.67067
984.74        76.01604
985.12        76.36867
985.51        75.54912
985.89        73.80495
986.28        71.99432
986.66        71.34415
987.04        72.19292
987.43        74.19938
987.81        76.65985
988.20         78.0049
988.58        77.74176
988.96        76.25053
989.35        74.31343
989.73        73.04715
990.12        72.70566
990.50        72.97808
990.88        73.34931
991.27        72.96336
991.65        71.67501
992.03        69.92814
992.42        68.33604
992.80         67.6255
993.18        67.97856
993.56        69.13837
993.95         70.7093
994.33        72.14426
994.71        73.00996
995.10        73.50723
995.48        73.69031
995.86        73.80091
996.24        73.92196
996.63        73.74442
997.01        73.52203
997.39        73.43829
997.77        73.54244
998.15        73.96274
998.54        74.24086
998.92        73.51158
999.30        71.80573
999.68        69.41026
1000.06        67.36803
1000.45        67.13038
1000.83        69.06583
1001.21        72.94244
1001.59        77.56016
1001.97         80.0429
1002.35        79.33471
1002.73        76.32534
1003.12        72.93536
1003.50        71.62542
1003.88         73.0309
1004.26        76.34461
1004.64        80.59043
1005.02        83.63717
1005.40        84.45444
1005.78        83.80051
1006.16        81.91579
1006.54        79.15823
1006.92        76.03377
1007.30         72.5833
1007.69        69.76128
1008.07        68.75533
1008.45        69.90322
1008.83        73.01561
1009.21        77.31805
1009.59        80.60223
1009.97        81.62588
1010.35        80.82791
1010.73        78.69824
1011.11        76.11338
1011.49        73.62494
1011.86        71.14882
1012.24        69.18407
1012.62        68.31712
1013.00        68.60471
1013.38        69.99245
1013.76        72.21622
1014.14        74.31695
1014.52        75.66548
1014.90        76.32368
1015.28        76.33857
1015.66         75.9638
1016.04        75.34296
1016.41        74.35667
1016.79        73.20519
1017.17        72.43145
1017.55        72.18815
1017.93        72.39897
1018.31         72.7686
1018.69         72.7756
1019.06        72.32677
1019.44        71.56042
1019.82        70.63515
1020.20        69.98124
1020.58         69.8045
1020.95        69.80441
1021.33        70.12722
1021.71        70.85929
1022.09         72.0298
1022.46        73.91995
1022.84        75.83929
1023.22        76.22121
1023.60        74.57938
1023.97        71.24649
1024.35        68.29379
1024.73        68.03307
