SpectraSmart Spectrum 2.9.0.0
--------- Device Information -----------
Spectrum Name :  反射率_0
Saving Time :  2024/04/26 22:10:33
Spectro-Module Model Name : SE2030-DUVN
Spectro-Module Serial Number : OS361AC55029948
Wavelength Start : 200
Wavelength End : 1025
Wavelength Unit : Wavelength(nm)
Spectrum Unit : Reflectance(%)
-----------Spectrum Setting ------------
Integration Time : 20ms
Average : 10
Boxcar : 0
Background removal :  enabled
linearity correction :  enabled
SC :  disabled
Intensity correction :  disabled
DWT denoise :  enabled
savitzky-golay :  disabled
FFT :  disabled
Running average :  disabled
Kalman :  disabled
High pass :  disabled
---------------BEGIN--------------------
Wavelength(nm)             Reflectance(%)
200.29               0
200.75        35.57202
201.21        33.87621
201.67        33.55754
202.13        34.93581
202.58        37.92467
203.04        43.15639
203.50        50.43044
203.96        57.10566
204.42        60.78676
204.88        61.13062
205.34        58.45682
205.80        55.09615
206.26        52.31466
206.72        49.55773
207.18        47.47598
207.64        46.36029
208.10        46.02979
208.55         47.2126
209.01        48.67777
209.47        47.24751
209.93        43.05927
210.39        38.74918
210.85        36.57483
211.31        37.84383
211.77        43.39461
212.23         57.3517
212.69        93.07336
213.14        153.8028
213.60        151.7257
214.06        109.0903
214.52        80.28463
214.98        67.75269
215.44        62.87821
215.90        60.44172
216.36        59.31067
216.81        58.45355
217.27        57.75598
217.73        58.58352
218.19        60.45531
218.65        60.24734
219.11         57.8147
219.57        54.76723
220.02        53.93336
220.48         58.0806
220.94        67.57178
221.40        83.98619
221.86        106.6906
222.32         120.408
222.77        112.4863
223.23        93.69106
223.69        75.44391
224.15        63.88383
224.61        57.80083
225.06        54.22126
225.52        52.42849
225.98        51.51013
226.44        51.03918
226.90        51.29041
227.36        51.48571
227.81        50.32214
228.27        47.93814
228.73        44.75707
229.19        42.13559
229.65        41.64146
230.10        43.22655
230.56        46.34211
231.02        49.55247
231.48        50.55285
231.93        49.00473
232.39         46.1485
232.85        43.41848
233.31        42.70739
233.77        44.19054
234.22        47.13375
234.68         50.6131
235.14         53.3087
235.60        54.78083
236.05        55.52465
236.51        55.65826
236.97        55.45915
237.43        55.17683
237.88        54.70288
238.34        54.47647
238.80        55.61049
239.26        58.59613
239.71        64.06418
240.17        71.53599
240.63        78.99306
241.08        84.82782
241.54        88.16441
242.00        90.27071
242.46        94.95268
242.91        105.3235
243.37        122.3082
243.83        146.7512
244.28        168.8571
244.74        172.0583
245.20        155.7556
245.66        133.1476
246.11        115.9145
246.57        105.2741
247.03         98.0816
247.48        92.10445
247.94        85.50399
248.40        79.50446
248.85        75.02551
249.31        72.72168
249.77        72.18159
250.22        72.80743
250.68        74.35943
251.14         75.9786
251.59        75.30013
252.05        72.06591
252.51        68.35839
252.96        65.20255
253.42        63.68644
253.88        63.62421
254.33        63.99851
254.79        66.05262
255.25        70.65963
255.70         77.2767
256.16        85.35271
256.62        91.67847
257.07        91.45329
257.53        86.43438
257.99        79.85111
258.44        74.20634
258.90        71.85931
259.35        71.67001
259.81        72.85838
260.27        74.13773
260.72        74.05688
261.18        72.84327
261.63        70.85094
262.09        69.12219
262.55         68.1513
263.00        67.77997
263.46        67.86094
263.91        67.72897
264.37        66.95521
264.83        65.50197
265.28        63.62929
265.74        61.93515
266.19        60.77962
266.65         60.2798
267.11        60.12632
267.56        60.08987
268.02        59.83187
268.47         59.2318
268.93           58.46
269.38        57.46444
269.84         56.2344
270.30        54.80553
270.75        53.17649
271.21        51.64951
271.66        50.61348
272.12        50.12387
272.57        50.02716
273.03        49.97657
273.48        49.38551
273.94        48.21049
274.39         46.6391
274.85        45.06326
275.31        43.85478
275.76        43.06926
276.22        42.60258
276.67        42.27856
277.13        41.97641
277.58        41.56792
278.04        41.11932
278.49        40.57121
278.95        39.96809
279.40         39.2675
279.86        38.55816
280.31        37.76036
280.77        36.90148
281.22        35.96877
281.68        35.05389
282.13        34.25531
282.59        33.80646
283.04        33.67311
283.50        33.79964
283.95        33.97845
284.41        33.89675
284.86        33.49067
285.32        32.90662
285.77        32.30524
286.22        31.98725
286.68        32.00146
287.13        32.19117
287.59        32.46386
288.04        32.62848
288.50        32.64911
288.95        32.56006
289.41        32.38202
289.86        32.06061
290.32        31.66485
290.77        31.20845
291.22        30.82119
291.68         30.6808
292.13        30.81379
292.59        31.19476
293.04        31.74598
293.50         32.3575
293.95        32.96943
294.40        33.60122
294.86         34.2597
295.31        34.94852
295.77        35.67549
296.22        36.41551
296.68         37.1563
297.13         37.8701
297.58        38.56639
298.04        39.25775
298.49        39.98302
298.95        40.82294
299.40        41.76437
299.85        42.76644
300.31        43.75422
300.76        44.59473
301.21        45.26613
301.67        45.83329
302.12         46.3078
302.58        46.78417
303.03        47.26337
303.48        47.74867
303.94        48.28605
304.39        48.89403
304.84          49.579
305.30        50.33026
305.75        51.04988
306.20         51.6558
306.66        52.13754
307.11        52.50146
307.57        52.78786
308.02        52.99034
308.47        53.14384
308.93        53.25541
309.38        53.36403
309.83        53.60061
310.29        53.97672
310.74        54.44803
311.19        54.89028
311.65        55.08596
312.10        54.98339
312.55        54.65444
313.00        54.24982
313.46        53.99868
313.91        53.93682
314.36        54.00535
314.82        54.09711
315.27        54.05456
315.72        53.82616
316.18        53.48335
316.63        53.08073
317.08        52.72007
317.53        52.43264
317.99        52.18186
318.44        51.94666
318.89        51.68239
319.35        51.37769
319.80        51.05054
320.25        50.73009
320.70        50.45827
321.16        50.23738
321.61        50.06721
322.06        49.89354
322.51        49.63613
322.97        49.27279
323.42        48.83131
323.87        48.38872
324.32        48.07939
324.78        47.91203
325.23        47.87514
325.68        47.83636
326.13         47.5874
326.59        47.08545
327.04          46.418
327.49        45.72657
327.94         45.2364
328.39         44.9953
328.85         44.9119
329.30        44.92144
329.75        44.81573
330.20        44.53393
330.66        44.13742
331.11        43.70996
331.56        43.34464
332.01        43.07421
332.46        42.85059
332.92        42.64568
333.37        42.48946
333.82        42.35087
334.27        42.24274
334.72        42.12128
335.17        41.90347
335.63         41.5761
336.08        41.18882
336.53        40.81069
336.98        40.57626
337.43        40.51455
337.88         40.5667
338.34        40.67323
338.79        40.77588
339.24        40.81289
339.69        40.80328
340.14        40.68407
340.59        40.35813
341.05        39.84999
341.50        39.21045
341.95        38.58732
342.40        38.20501
342.85        38.11315
343.30        38.23798
343.75        38.49368
344.20        38.73119
344.66        38.88641
345.11        38.99136
345.56        39.00842
346.01        38.88585
346.46        38.63678
346.91        38.27803
347.36        37.90897
347.81         37.6965
348.26        37.67198
348.72        37.78537
349.17        37.95173
349.62        38.04229
350.07        38.01661
350.52        37.92421
350.97        37.76544
351.42         37.5451
351.87        37.28593
352.32        36.98265
352.77         36.7192
353.22        36.62119
353.67        36.70037
354.13        36.92491
354.58        37.16771
355.03        37.20911
355.48        36.99889
355.93         36.6016
356.38        36.16527
356.83        35.91664
357.28        35.89811
357.73        36.02938
358.18        36.17902
358.63        36.13556
359.08        35.84748
359.53        35.39639
359.98        34.88301
360.43        34.44944
360.88        34.13564
361.33        33.89525
361.78        33.69343
362.23        33.47926
362.68        33.23926
363.13        33.00357
363.58        32.77869
364.03        32.56461
364.48        32.36284
364.93        32.16313
365.38        31.97982
365.83        31.84448
366.28        31.75644
366.73        31.69939
367.18        31.63727
367.63        31.51303
368.08        31.31483
368.53        31.06481
368.98        30.78708
369.43        30.52013
369.88        30.28072
370.33        30.05937
370.78         29.8678
371.23        29.72477
371.68         29.6307
372.13        29.58239
372.58        29.54653
373.03         29.4674
373.48        29.32734
373.93          29.131
374.38        28.90938
374.83        28.71854
375.28        28.57144
375.72        28.44753
376.17        28.32399
376.62        28.12967
377.07        27.86079
377.52        27.54978
377.97        27.25568
378.42        27.07528
378.87        27.02728
379.32        27.06637
379.77        27.14485
380.22        27.19377
380.67        27.18406
381.11        27.13986
381.56        27.02584
382.01        26.81991
382.46        26.54098
382.91        26.21572
383.36        25.90834
383.81        25.70363
384.26        25.61282
384.71        25.61074
385.15        25.66287
385.60        25.70614
386.05        25.71415
386.50        25.70028
386.95        25.65681
387.40        25.57704
387.85        25.46564
388.29        25.30613
388.74        25.15596
389.19         25.0362
389.64        24.94983
390.09        24.88812
390.54        24.82615
390.98        24.71642
391.43        24.56961
391.88        24.40348
392.33        24.24813
392.78        24.14398
393.23        24.09586
393.67        24.07408
394.12         24.0816
394.57        24.07658
395.02        24.04701
395.47        23.99487
395.91        23.92914
396.36         23.8535
396.81        23.78732
397.26        23.73455
397.71        23.68493
398.15        23.63815
398.60        23.62213
399.05        23.53922
399.50        23.43295
399.95        23.53942
400.39        23.78478
400.84        23.73368
401.29        23.40588
401.74        23.20819
402.18        23.16718
402.63        23.04054
403.08        22.85416
403.53        22.74988
403.97        22.73569
404.42        22.78016
404.87        22.83005
405.32        22.79565
405.76        22.65767
406.21        22.45556
406.66        22.25778
407.11        22.17327
407.55        22.23001
408.00        22.38353
408.45        22.56271
408.90         22.6306
409.34        22.54522
409.79        22.35332
410.24        22.12938
410.68        21.97159
411.13        21.90902
411.58        21.91107
412.03        21.92974
412.47        21.88703
412.92        21.76102
413.37        21.59591
413.81        21.44259
414.26        21.38796
414.71        21.43835
415.15        21.56893
415.60         21.7282
416.05        21.84723
416.49        21.89832
416.94        21.89611
417.39        21.85855
417.83        21.81328
418.28        21.77138
418.73        21.72022
419.17        21.66889
419.62        21.63522
420.07         21.6226
420.51        21.62597
420.96        21.63189
421.41        21.61084
421.85        21.54982
422.30        21.44969
422.74         21.3233
423.19        21.28527
423.64        21.30848
424.08        21.25352
424.53        21.11658
424.98        21.05766
425.42        21.09526
425.87        21.08649
426.31        21.03871
426.76        21.11491
427.21        21.25544
427.65         21.1657
428.10        20.90736
428.54         20.8112
428.99        20.90814
429.44        21.04975
429.88        21.17577
430.33        21.21144
430.77        21.15702
431.22        21.18732
431.66        21.30217
432.11        21.32306
432.56        21.25903
433.00        21.27803
433.45        21.29278
433.89        21.07976
434.34         20.8014
434.78        20.33455
435.23        20.82668
435.67        20.93385
436.12        20.93895
436.57        20.90519
437.01        20.84961
437.46        20.80725
437.90        20.77588
438.35        20.69117
438.79        20.58189
439.24        20.56362
439.68        20.64326
440.13        20.78131
440.57         20.9368
441.02        21.04594
441.46        21.07982
441.91        21.04693
442.35        20.95924
442.80        20.94717
443.24        20.97749
443.69        20.90628
444.13        20.75905
444.58        20.71691
445.02        20.78555
445.47         20.8741
445.91        20.96122
446.36        21.05713
446.80        21.14369
447.24         21.2156
447.69        21.25837
448.13        21.24257
448.58        21.17429
449.02        21.06319
449.47        20.94516
449.91        20.86686
450.36        20.84759
450.80        20.86868
451.25         20.9205
451.69        20.97144
452.13        21.01153
452.58        21.04351
453.02        21.05892
453.47        21.04774
453.91        21.00956
454.36         20.9504
454.80        20.87309
455.24        20.78452
455.69        20.69732
456.13        20.59818
456.58        20.52253
457.02        20.48887
457.46        20.50551
457.91        20.56398
458.35        20.60964
458.79        20.56247
459.24        20.42988
459.68        20.23021
460.13        20.04574
460.57        19.94924
461.01        19.97112
461.46        20.06653
461.90        20.20673
462.34        20.32629
462.79        20.39278
463.23        20.43273
463.68        20.42537
464.12        20.35192
464.56        20.21803
465.01        20.05746
465.45        19.89462
465.89        19.81855
466.34        19.83851
466.78        19.92804
467.22        20.05095
467.67        20.12082
468.11        20.12349
468.55        20.07387
468.99        20.00521
469.44        19.96983
469.88        19.98412
470.32        20.02773
470.77        20.08224
471.21        20.12333
471.65        20.14041
472.10        20.14686
472.54         20.1447
472.98        20.14232
473.42        20.14365
473.87        20.15145
474.31        20.15619
474.75        20.16388
475.20        20.18026
475.64        20.19778
476.08        20.22318
476.52        20.25511
476.97        20.29267
477.41        20.34483
477.85        20.41266
478.29        20.46686
478.74        20.52176
479.18        20.63308
479.62        20.77796
480.06         20.8815
480.50        20.93535
480.95        20.96418
481.39        20.97687
481.83        21.13685
482.27        21.11669
482.72        21.38935
483.16        21.42996
483.60         21.5083
484.04        21.48158
484.48        21.57773
484.93        21.77287
485.37        21.52834
485.81        21.62603
486.25        21.85616
486.69        21.11241
487.14        22.12572
487.58        23.31978
488.02        23.12178
488.46        22.57666
488.90         22.7336
489.34        22.82876
489.79        23.31009
490.23        23.57574
490.67        23.62489
491.11        23.46827
491.55        23.40452
491.99        23.50867
492.43        23.62349
492.88        23.76488
493.32        24.04045
493.76        24.39044
494.20        24.67444
494.64        24.87111
495.08        24.96929
495.52        25.00045
495.96        25.17593
496.41        25.46076
496.85        25.46913
497.29        25.25879
497.73        25.47977
498.17         25.7749
498.61        26.05186
499.05        26.15773
499.49         26.2677
499.93        26.32625
500.37        26.50683
500.82        26.77205
501.26        26.97244
501.70        27.09259
502.14        27.23257
502.58        27.39404
503.02        27.52365
503.46        27.62006
503.90        27.70147
504.34        27.76831
504.78        27.82072
505.22        27.86288
505.66        27.89429
506.10        27.93048
506.54        27.99682
506.98        28.09613
507.42        28.22027
507.86        28.34631
508.30        28.43566
508.74        28.47894
509.18        28.48801
509.62         28.4817
510.06        28.49215
510.50        28.52901
510.94         28.5816
511.38        28.64492
511.82        28.70929
512.26        28.77194
512.70        28.84229
513.14         28.9115
513.58        28.96399
514.02        28.99793
514.46        29.01054
514.90        29.02903
515.34        29.10024
515.78        29.22561
516.22        29.38525
516.66        29.52495
517.10        29.55816
517.54        29.47059
517.98        29.29738
518.42        29.09336
518.86        28.94644
519.30        28.88443
519.74        28.88085
520.18        28.92023
520.62        28.97513
521.06        29.03147
521.50        29.10174
521.93          29.164
522.37        29.17036
522.81        29.11789
523.25        29.01101
523.69        28.89557
524.13        28.84838
524.57        28.87967
525.01        28.96241
525.45        29.03958
525.89        29.01774
526.32        28.87528
526.76        28.65744
527.20        28.41171
527.64        28.21279
528.08        28.08598
528.52         28.0094
528.96        27.97444
529.40        27.96719
529.83        27.97495
530.27        28.00266
530.71        28.02838
531.15        28.01836
531.59        27.96505
532.03        27.87249
532.46        27.75555
532.90        27.66178
533.34        27.59806
533.78        27.53916
534.22        27.47597
534.66         27.4264
535.09        27.36851
535.53        27.24899
535.97        27.09067
536.41        26.99784
536.85        26.98291
537.28        26.99297
537.72        27.02847
538.16        27.10964
538.60        27.22869
539.04        27.37601
539.47        27.51998
539.91        27.63116
540.35        27.69763
540.79        27.72972
541.22        27.75084
541.66        27.80981
542.10        27.91456
542.54        28.05144
542.97        28.19866
543.41        28.33348
543.85        28.44568
544.29        28.54942
544.72        28.64801
545.16        28.76477
545.60        28.90021
546.04         29.0497
546.47        29.21953
546.91        29.41494
547.35        29.62823
547.79        29.85588
548.22        30.07366
548.66        30.23854
549.10        30.38016
549.53        30.49709
549.97        30.61173
550.41          30.689
550.84        30.76537
551.28        30.93404
551.72        31.16317
552.15         31.3704
552.59        31.56968
553.03        31.53024
553.46        31.83507
553.90        31.94587
554.34        32.02917
554.77        32.18224
555.21         32.2651
555.65        32.40615
556.08        32.54939
556.52        32.67452
556.96        32.77132
557.39        32.91584
557.83        33.08126
558.27        33.07684
558.70        32.93609
559.14        32.91273
559.57        33.00005
560.01        33.03506
560.45         33.0218
560.88        33.06833
561.32        33.19179
561.75        33.32519
562.19        33.45807
562.63        33.56697
563.06          33.638
563.50        33.68325
563.93        33.68922
564.37        33.72278
564.80         33.8048
565.24        33.83934
565.68        33.75808
566.11         34.1878
566.55        33.90135
566.98        33.92563
567.42        33.96343
567.85        34.08126
568.29        34.29233
568.72        34.59046
569.16        34.95621
569.60        35.17138
570.03        35.34146
570.47        35.47108
570.90        35.60656
571.34        35.58215
571.77        35.58036
572.21         35.9588
572.64        36.14684
573.08        36.42961
573.51        36.35673
573.95        36.31768
574.38        36.37681
574.82         36.5763
575.25        36.56894
575.69        36.74519
576.12        36.82159
576.56        36.70859
576.99        36.57473
577.42        36.48442
577.86        36.82913
578.29        37.11281
578.73        36.87198
579.16        36.87844
579.60          36.666
580.03        36.78355
580.47        36.65608
580.90        36.58043
581.33        36.41354
581.77        36.62207
582.20        35.78697
582.64        36.03701
583.07        36.13224
583.51        35.92637
583.94        35.67373
584.37        35.70519
584.81         35.6368
585.24        35.49216
585.68        35.25181
586.11        34.94978
586.54        35.19784
586.98        35.07595
587.41        34.81314
587.85        34.59462
588.28        34.48728
588.71        34.56535
589.15        34.48878
589.58        34.46032
590.01         34.6885
590.45        34.66273
590.88        34.81567
591.31        34.65717
591.75        34.42619
592.18        34.22932
592.61        34.05269
593.05        34.73912
593.48        34.70257
593.91        34.55105
594.35        34.91846
594.78        34.82826
595.21        34.67921
595.65        34.91788
596.08        35.60685
596.51        35.74036
596.94        35.75692
597.38        35.78161
597.81        35.92954
598.24        36.29929
598.68        36.43305
599.11        36.22655
599.54        36.81109
599.97        36.77213
600.41        37.44985
600.84        37.53043
601.27         37.8704
601.70        38.10235
602.14        38.33683
602.57        38.59634
603.00        38.98579
603.43        38.84453
603.87        39.65851
604.30        40.25824
604.73        40.49689
605.16        40.61106
605.60        40.93617
606.03        40.95884
606.46        40.80175
606.89        41.60243
607.32        42.38766
607.76        42.20956
608.19        42.90605
608.62         43.0141
609.05        43.26081
609.48        43.43194
609.92        44.12915
610.35        44.29359
610.78        43.91864
611.21        44.44801
611.64        44.52369
612.07        44.93709
612.50         45.0163
612.94        45.30396
613.37        45.42994
613.80        45.55388
614.23        45.33519
614.66         45.5652
615.09        46.11109
615.52        46.45171
615.96        46.51851
616.39         46.7231
616.82        47.10099
617.25        46.83413
617.68        46.99996
618.11        47.12375
618.54        47.49293
618.97        47.77154
619.40        47.89365
619.84        48.11244
620.27        47.98281
620.70        47.99633
621.13        48.01789
621.56        47.85301
621.99        47.58194
622.42        47.57339
622.85        47.80816
623.28        47.93957
623.71        47.94968
624.14         47.9063
624.57        48.24079
625.00        48.02845
625.43        48.10483
625.86        48.06005
626.29        48.17408
626.72        47.64362
627.15        47.86868
627.58        47.75896
628.01        47.68598
628.44        47.53931
628.87        47.32027
629.30        47.05593
629.73        46.78541
630.16        46.59449
630.59        46.49002
631.02        46.44926
631.45        46.42551
631.88        46.30742
632.31        46.05902
632.74        45.84936
633.17        45.43874
633.60        45.05871
634.03        44.65414
634.46        44.22695
634.89        43.79988
635.32        43.42432
635.75        43.11571
636.18        42.81708
636.61        42.52946
637.04        42.27407
637.47        42.04042
637.89        41.81271
638.32         41.5584
638.75        41.27038
639.18        40.95084
639.61        40.60889
640.04        40.27274
640.47        39.98396
640.90        39.75354
641.33         39.5744
641.76        39.43358
642.18        39.31245
642.61        39.19286
643.04        39.08591
643.47        38.99928
643.90        38.94514
644.33        38.92358
644.76        38.92729
645.18        38.94541
645.61        38.95277
646.04        38.95373
646.47         38.9622
646.90        38.99663
647.33        39.09161
647.75        39.24174
648.18        39.43511
648.61        39.69037
649.04        39.98352
649.47        40.22979
649.89        40.84219
650.32        40.75452
650.75        41.02839
651.18        41.36712
651.61        41.70123
652.03        42.04865
652.46          42.491
652.89        43.00033
653.32        43.46423
653.74        43.80028
654.17        44.11852
654.60        44.16694
655.03        44.59301
655.46         43.8842
655.88        44.49331
656.31        45.44746
656.74        43.06786
657.16        47.40858
657.59        52.89149
658.02        48.56998
658.45        48.24403
658.87        47.14587
659.30        47.65681
659.73        47.74692
660.15        49.04119
660.58        48.16169
661.01         48.1903
661.44        48.39119
661.86        48.36823
662.29        48.16455
662.72        48.70546
663.14        48.99975
663.57        49.16733
664.00        49.01269
664.42        49.16294
664.85        49.63988
665.27        50.10032
665.70        50.41731
666.13        50.59294
666.55        50.60752
666.98        50.41515
667.41        50.10662
667.83        50.15701
668.26        50.08695
668.69        50.27505
669.11        50.52649
669.54        50.75792
669.96        50.93608
670.39        51.12582
670.82        51.31177
671.24        51.34448
671.67        51.27045
672.09        51.30342
672.52        51.44785
672.94        51.51928
673.37        51.50752
673.80        51.46903
674.22        51.44322
674.65        51.46395
675.07        51.55325
675.50        51.66929
675.92        51.78689
676.35        51.87107
676.77        51.90653
677.20        51.91553
677.62        51.93822
678.05         51.9718
678.47        52.00487
678.90        52.30585
679.32        52.40975
679.75        52.51733
680.17        52.45861
680.60        52.65047
681.02         52.5708
681.45        52.51337
681.87        52.74691
682.30        52.94359
682.72        53.16869
683.15        53.24019
683.57        53.17667
684.00         53.1139
684.42         53.1073
684.85         53.1383
685.27        53.21786
685.70        53.42325
686.12        53.65524
686.54        53.71083
686.97        53.60167
687.39        53.41441
687.82        53.23551
688.24         53.3589
688.66        53.71975
689.09        53.67529
689.51        53.57828
689.94        53.55906
690.36        53.72841
690.78         53.8305
691.21         53.8616
691.63         53.8485
692.06        53.91961
692.48        53.95187
692.90         53.9776
693.33        53.97182
693.75        53.92751
694.17        53.88608
694.60         53.8839
695.02        53.83345
695.44        53.78225
695.87         54.0806
696.29        54.58951
696.71         54.5233
697.14         53.9806
697.56        53.84083
697.98         54.1307
698.41        54.24902
698.83        54.18552
699.25        54.32172
699.68         54.5708
700.10        54.67845
700.52        54.60359
700.94        54.39291
701.37        54.14558
701.79        54.24133
702.21        54.37626
702.64        54.73512
703.06        55.11827
703.48        55.36105
703.90        55.40821
704.33        55.32034
704.75        55.14894
705.17        54.96089
705.59        54.80195
706.01        54.65666
706.44        54.56377
706.86        54.61565
707.28        54.80939
707.70        55.07949
708.12        55.36818
708.55        55.65707
708.97        55.87474
709.39        55.83896
709.81        55.60141
710.23        55.46109
710.66        55.46098
711.08        55.46194
711.50        55.43298
711.92        55.40133
712.34        55.36351
712.76        55.33083
713.19         55.3006
713.61        55.29237
714.03        55.30159
714.45        55.33101
714.87         55.3994
715.29        55.53874
715.71        55.74409
716.13        55.98627
716.56        56.21537
716.98        56.42411
717.40        56.56033
717.82        56.63051
718.24        56.60711
718.66        56.44924
719.08        56.17974
719.50         55.8434
719.92        55.52798
720.34        55.36345
720.76        55.37885
721.19        55.51463
721.61         55.7615
722.03        56.05465
722.45        56.34594
722.87        56.63913
723.29        56.84303
723.71        56.81498
724.13        56.54652
724.55        56.09099
724.97        55.60188
725.39        55.33757
725.81         55.3652
726.23        55.59455
726.65        55.92015
727.07        56.28939
727.49        56.43659
727.91         56.5656
728.33        56.63723
728.75        56.69314
729.17        56.74495
729.59        56.76907
730.01         56.7576
730.43        56.70725
730.85        56.62225
731.27        56.51282
731.69        56.40748
732.10        56.34414
732.52        56.33425
732.94        56.36979
733.36         56.4288
733.78         56.4087
734.20        56.29598
734.62        56.14058
735.04        56.38531
735.46        55.88936
735.88        56.42194
736.30        56.59589
736.72        56.86042
737.13        57.06773
737.55        57.13856
737.97        57.26495
738.39        57.36192
738.81        57.00467
739.23        56.37977
739.65        56.31533
740.06        56.72125
740.48        57.07005
740.90         56.9359
741.32        56.86418
741.74        57.17757
742.16        57.30713
742.57        57.36168
742.99        57.37905
743.41         57.3613
743.83         57.2792
744.25        57.13831
744.67         56.9456
745.08        56.76513
745.50        56.68363
745.92        56.72562
746.34        56.85973
746.75        57.02413
747.17        57.09291
747.59        57.03809
748.01        56.92887
748.42         56.8009
748.84        56.63779
749.26         56.5018
749.68        56.53267
750.09         56.6824
750.51        56.76393
750.93        56.72833
751.35         56.6088
751.76        56.43957
752.18        56.31063
752.60        56.23242
753.01        56.20664
753.43        56.12971
753.85          56.099
754.27        56.09296
754.68        56.11449
755.10        56.16106
755.52        56.22862
755.93        56.30364
756.35        56.37254
756.77        56.48001
757.18          56.579
757.60        56.66743
758.02        56.95477
758.43        57.38102
758.85        56.84959
759.26        57.29954
759.68        56.64697
760.10        56.20958
760.51        56.52015
760.93        57.26454
761.34        57.26994
761.76        57.20234
762.18        57.11522
762.59        57.28588
763.01        57.25977
763.42        57.11808
763.84        57.05261
764.26        57.09245
764.67        57.17898
765.09        57.29955
765.50        57.26048
765.92        57.10301
766.33        57.07771
766.75         57.1005
767.16        56.83293
767.58        56.34309
768.00        56.17721
768.41        56.40076
768.83          56.687
769.24        56.88666
769.66         57.0487
770.07        57.11005
770.49        56.70676
770.90        56.12142
771.32        56.51068
771.73        57.65734
772.15        58.06379
772.56        57.63776
772.97        57.14154
773.39        56.80143
773.80        56.76427
774.22        57.01606
774.63        57.26476
775.05        57.37523
775.46        57.49039
775.88        57.54709
776.29        57.42406
776.70        57.20238
777.12        57.13069
777.53        57.25824
777.95        57.47058
778.36        57.70079
778.77        57.81225
779.19        57.78219
779.60        57.67988
780.02        57.52958
780.43         57.4275
780.84        57.42237
781.26        57.25584
781.67        57.03399
782.09        57.44179
782.50        58.27261
782.91        58.19583
783.33        57.61567
783.74        57.35865
784.15        57.57709
784.57        57.61497
784.98        57.49223
785.39        57.52375
785.81        57.71264
786.22        57.98104
786.63        58.25029
787.04        58.39523
787.46        58.39713
787.87        58.27534
788.28        58.12793
788.70        58.07661
789.11        58.13506
789.52        58.32483
789.93        58.54626
790.35        58.57408
790.76        58.40361
791.17        58.17442
791.58        58.00682
792.00         57.9469
792.41        57.98132
792.82        58.22498
793.23        58.51893
793.65        58.09304
794.06        57.23606
794.47        57.37864
794.88        58.33969
795.29        58.69536
795.71        58.36126
796.12         58.1787
796.53        58.23833
796.94         58.2759
797.35        58.31217
797.76        58.46043
798.18        58.64232
798.59        58.73167
799.00        58.68657
799.41        58.54917
799.82        58.38734
800.23        58.31321
800.64        58.35074
801.06        58.43506
801.47        58.54253
801.88        58.55475
802.29        58.44207
802.70        58.24696
803.11        58.01439
803.52        57.81479
803.93        57.69044
804.34        57.62879
804.75        57.64295
805.17         57.7885
805.58        58.09451
805.99        58.37217
806.40        58.58851
806.81        59.05778
807.22        59.57248
807.63        59.29779
808.04        58.42279
808.45        58.00703
808.86        58.16335
809.27        58.36307
809.68        58.47423
810.09        58.50803
810.50        58.42065
810.91        58.22213
811.32        58.04545
811.73        58.09768
812.14         58.4161
812.55        58.92883
812.96        59.47509
813.37        59.75254
813.78        59.66636
814.19         59.3267
814.60        58.86787
815.01        58.46871
815.42        58.18481
815.83         57.9641
816.24        57.82323
816.65        57.79694
817.05        57.89226
817.46        58.09067
817.87        58.33431
818.28        58.48191
818.69         58.4997
819.10        58.39933
819.51        58.27043
819.92        58.28667
820.33        58.48523
820.74        58.80677
821.14         59.1227
821.55        59.22627
821.96        59.07484
822.37         58.7396
822.78        58.35061
823.19        58.12453
823.60        58.13196
824.00        58.33402
824.41        58.60242
824.82          58.803
825.23        58.87334
825.64        58.84965
826.04        58.78971
826.45        58.75268
826.86        58.77266
827.27        58.83645
827.68        58.88533
828.08        58.85071
828.49        58.67857
828.90        58.41165
829.31        58.18066
829.72        58.19596
830.12         58.5135
830.53        59.01944
830.94           59.52
831.35        59.64128
831.75        59.30841
832.16        58.63078
832.57        57.85777
832.97        57.36532
833.38        57.26694
833.79        57.43905
834.20        57.78557
834.60        58.15069
835.01        58.46905
835.42        58.82027
835.82        59.15871
836.23        59.33164
836.64        59.33466
837.04        59.15424
837.45        58.96143
837.86         59.1075
838.26         59.6706
838.67        60.51985
839.08        61.33194
839.48        61.49166
839.89        60.85818
840.29        59.66898
840.70        58.43927
841.11        57.74622
841.51        57.73555
841.92         58.2187
842.33         58.9647
842.73        59.56013
843.14        59.75465
843.54         59.7051
843.95        59.53732
844.35        59.49913
844.76        59.64078
845.17        59.87656
845.57        60.07862
845.98        60.03002
846.38        59.71185
846.79        59.20212
847.19        58.69625
847.60        58.47683
848.00        58.61613
848.41        59.00335
848.81        59.46928
849.22        59.66265
849.62        59.51912
850.03        59.12152
850.43        58.63984
850.84        58.28944
851.24        58.18552
851.65        58.22987
852.05        58.40839
852.46        58.60269
852.86        58.76469
853.27        58.91825
853.67        59.03941
854.07        59.18786
854.48        59.34354
854.88        59.50393
855.29        59.55805
855.69        59.42592
856.10        59.04895
856.50        58.54168
856.90        58.02294
857.31        57.70794
857.71        57.70416
858.12        57.88505
858.52        58.21772
858.92        58.53767
859.33        58.75632
859.73        58.96299
860.13        59.03824
860.54        58.80569
860.94        58.30409
861.34        57.57481
861.75        56.87831
862.15        56.68824
862.55        57.08578
862.96        57.90286
863.36        58.89457
863.76        59.55322
864.17         59.6938
864.57        59.48301
864.97        59.00213
865.38        58.39814
865.78        57.78554
866.18        57.11903
866.58        56.53577
866.99        56.28862
867.39        56.44958
867.79         56.9585
868.19        57.62877
868.60         58.1344
869.00        58.40221
869.40         58.4673
869.80         58.3976
870.21        58.33969
870.61        58.39956
871.01        58.49501
871.41         58.5157
871.81         58.3138
872.22        57.86832
872.62        57.21774
873.02        56.58604
873.42         56.3392
873.82        56.55621
874.22        57.13446
874.63        57.72007
875.03        57.76857
875.43        57.16209
875.83          56.081
876.23        54.93484
876.63        54.35707
877.03        54.49557
877.44        55.13169
877.84         55.9305
878.24        56.35707
878.64        56.20181
879.04         55.4873
879.44        54.59697
879.84        54.24268
880.24        54.53203
880.64        55.17787
881.04        55.82946
881.44        55.96238
881.84        55.45002
882.24        54.50215
882.65        53.46952
883.05        52.87476
883.45        52.86971
883.85        53.30507
884.25        53.97029
884.65        54.50704
885.05        54.78027
885.45        54.87965
885.85        54.91772
886.25        55.06726
886.65         55.3647
887.05        55.73062
887.45        56.03191
887.85        56.07262
888.25        55.81276
888.65        55.33129
889.04         54.7954
889.44        54.47844
889.84        54.43388
890.24        54.59126
890.64        54.80604
891.04        54.83576
891.44        54.62907
891.84        54.28776
892.24        53.94165
892.64        53.77259
893.04        53.83595
893.44        54.07962
893.83        54.45588
894.23        54.84443
894.63        55.20511
895.03        55.52636
895.43        55.83159
895.83        56.16824
896.23        56.51307
896.63        56.81689
897.02        56.93549
897.42        56.68037
897.82        56.05234
898.22         55.1862
898.62        54.28523
899.01        53.63393
899.41        53.32619
899.81        53.27059
900.21        53.42938
900.61        53.72918
901.00        54.10156
901.40        54.54779
901.80        54.93687
902.20        55.05578
902.59        54.88424
902.99         54.4822
903.39        54.00909
903.79         53.7425
904.18        53.75374
904.58        53.95193
904.98        54.29927
905.38        54.74019
905.77        55.22556
906.17        55.78764
906.57        56.25167
906.96        56.32739
907.36        55.95959
907.76        55.23606
908.15        54.48592
908.55        54.22187
908.95        54.56667
909.34        55.39185
909.74        56.32472
910.14        56.80873
910.53        56.66632
910.93        56.08959
911.33         55.3364
911.72        54.79713
912.12        54.63639
912.52        54.72393
912.91        54.91575
913.31        55.01412
913.70        54.96677
914.10        54.81704
914.49        54.72558
914.89        54.87871
915.29        55.32729
915.68        56.00525
916.08        56.63021
916.47         56.8001
916.87        56.44621
917.26        55.68027
917.66        54.89065
918.05         54.5386
918.45        54.72637
918.84        55.36677
919.24        56.11134
919.64        56.46514
920.03        56.29739
920.42        55.72639
920.82        55.13014
921.21        55.04093
921.61        55.55674
922.00        56.53383
922.40         57.5523
922.79        57.99792
923.19        57.67492
923.58        56.83091
923.98        55.84825
924.37        55.22626
924.77        55.10642
925.16        55.29767
925.55         55.6487
925.95        55.88606
926.34        55.91711
926.74        55.82514
927.13        55.61823
927.52        55.23447
927.92        54.74065
928.31        54.13927
928.70        53.58788
929.10        53.31163
929.49        53.34324
929.89        53.59316
930.28        54.02471
930.67        54.46191
931.07        54.80404
931.46        55.14577
931.85        55.36701
932.24        55.32724
932.64        55.05425
933.03        54.54723
933.42        54.08226
933.82        54.05819
934.21        54.54201
934.60        55.47021
934.99        56.49733
935.39        56.99236
935.78        56.82435
936.17        56.09704
936.56        55.22196
936.96        54.84802
937.35        55.11317
937.74        55.80745
938.13          56.514
938.53        56.59147
938.92        55.91998
939.31        54.77723
939.70        53.53797
940.09        52.71464
940.49        52.42413
940.88        52.53254
941.27        52.93225
941.66        53.41584
942.05        53.87645
942.44        54.38591
942.84         54.8897
943.23        55.28175
943.62        55.54633
944.01        55.64042
944.40         55.6628
944.79        55.82593
945.18        56.14646
945.57        56.53859
945.97        56.78205
946.36        56.59827
946.75        55.91086
947.14        54.91245
947.53        53.80729
947.92        52.84903
948.31        52.14099
948.70        51.63724
949.09        51.40485
949.48        51.55186
949.87        52.06073
950.26        52.86706
950.65        53.78341
951.04         54.4964
951.43         54.8755
951.82        54.95098
952.21        54.75706
952.60        54.38589
952.99        53.93122
953.38        53.43907
953.77        52.98676
954.16        52.69264
954.55        52.58389
954.94        52.59657
955.33        52.81661
955.72        53.36061
956.11        54.18327
956.50        55.24213
956.89        56.07834
957.28        55.94237
957.66        54.73451
958.05        52.77386
958.44        50.77122
958.83        49.74838
959.22        49.90427
959.61        50.95183
960.00        52.39697
960.39        53.28682
960.78        53.28608
961.16        52.69481
961.55        51.87521
961.94        51.29462
962.33        51.10715
962.72        51.16012
963.11        51.38452
963.49        51.70496
963.88         51.9986
964.27        52.29533
964.66        52.63941
965.04        53.11161
965.43        53.67053
965.82        54.31902
966.21        54.78986
966.60         54.6205
966.98        53.72643
967.37        52.33968
967.76        50.98617
968.15        50.31771
968.53        50.44212
968.92        51.22451
969.31        52.23019
969.69        52.58492
970.08         51.9892
970.47        50.77024
970.86        49.57352
971.24        49.30661
971.63        50.14604
972.02        51.82331
972.40        53.83746
972.79        54.95232
973.17        54.79962
973.56         53.8011
973.95        52.51589
974.33         51.6664
974.72        51.44603
975.11        51.57991
975.49        52.00718
975.88        52.58859
976.26        53.22567
976.65        53.93021
977.04        54.47245
977.42        54.43925
977.81        53.75909
978.19        52.55148
978.58        51.27378
978.96        50.63931
979.35        50.82237
979.74         51.6421
980.12        52.83569
980.51        53.68779
980.89        54.05466
981.28        54.10419
981.66        54.00002
982.05        53.94497
982.43        54.03351
982.82        54.13755
983.20        54.40881
983.59        55.08232
983.97        56.21861
984.35        57.73205
984.74        59.11772
985.12        59.73426
985.51        59.37422
985.89        58.29053
986.28        57.01786
986.66        56.29429
987.04        56.36795
987.43        56.97788
987.81        57.90141
988.20        58.60516
988.58        58.85283
988.96        58.72731
989.35        58.24603
989.73        57.42024
990.12        56.29232
990.50        54.91211
990.88        53.35392
991.27        51.86427
991.65        50.63081
992.03        49.67179
992.42         49.1853
992.80        49.38124
993.18        50.25202
993.56        51.76063
993.95        53.40386
994.33        54.34851
994.71        54.21948
995.10        53.28468
995.48        52.11216
995.86        51.67239
996.24        52.19463
996.63        53.31896
997.01        54.78067
997.39        55.72073
997.77        55.77513
998.15        55.31052
998.54        54.49144
998.92        53.42751
999.30        52.33455
999.68        51.20043
1000.06        50.45216
1000.45        50.68617
1000.83        52.06462
1001.21        54.50136
1001.59        57.47176
1001.97        59.55857
1002.35        60.13686
1002.73        59.56693
1003.12        58.51398
1003.50        57.78185
1003.88        57.68446
1004.26        57.83263
1004.64        58.25686
1005.02        58.98676
1005.40        59.90252
1005.78        61.17918
1006.16        62.04835
1006.54        61.25956
1006.92        58.80442
1007.30          55.151
1007.69        51.80053
1008.07        50.74199
1008.45        52.54105
1008.83        56.81506
1009.21        62.22894
1009.59        65.44478
1009.97         64.8961
1010.35        61.50163
1010.73        56.96904
1011.11        53.76493
1011.49         52.5471
1011.86        52.59246
1012.24        53.21201
1012.62        53.52204
1013.00        53.28338
1013.38        52.77363
1013.76        52.44027
1014.14        53.09641
1014.52        54.92271
1014.90          57.451
1015.28        59.70171
1015.66        60.51067
1016.04        59.73087
1016.41        57.70573
1016.79        55.25238
1017.17        53.95559
1017.55        54.26319
1017.93        55.62589
1018.31        57.28569
1018.69        58.14806
1019.06        57.94427
1019.44         57.0603
1019.82        55.63318
1020.20         54.1293
1020.58        52.93245
1020.95        51.80211
1021.33        51.19173
1021.71        51.55135
1022.09        52.90887
1022.46        55.51725
1022.84        58.40168
1023.22        59.06836
1023.60        56.71402
1023.97        51.98428
1024.35        47.61163
1024.73        46.73699
