SpectraSmart Spectrum 2.9.0.0
--------- Device Information -----------
Spectrum Name :  反射率_0
Saving Time :  2024/04/26 22:11:19
Spectro-Module Model Name : SE2030-DUVN
Spectro-Module Serial Number : OS361AC55029948
Wavelength Start : 200
Wavelength End : 1025
Wavelength Unit : Wavelength(nm)
Spectrum Unit : Reflectance(%)
-----------Spectrum Setting ------------
Integration Time : 20ms
Average : 10
Boxcar : 0
Background removal :  enabled
linearity correction :  enabled
SC :  disabled
Intensity correction :  disabled
DWT denoise :  enabled
savitzky-golay :  disabled
FFT :  disabled
Running average :  disabled
Kalman :  disabled
High pass :  disabled
---------------BEGIN--------------------
Wavelength(nm)             Reflectance(%)
200.29               0
200.75         33.6866
201.21        32.19894
201.67        30.78798
202.13        30.33342
202.58        30.84997
203.04         32.6562
203.50        35.30125
203.96        36.82853
204.42        36.03176
204.88        33.00528
205.34        29.81129
205.80        30.41043
206.26        34.92415
206.72        40.80538
207.18        45.50036
207.64        47.10905
208.10        45.55844
208.55        41.48561
209.01         33.6472
209.47        24.60279
209.93        19.48259
210.39        18.28893
210.85         19.1116
211.31        20.51914
211.77        22.69572
212.23         27.6754
212.69         41.6702
213.14        73.07072
213.60        84.95352
214.06        72.75575
214.52        60.75031
214.98        54.04155
215.44         49.9038
215.90        45.80289
216.36        42.39916
216.81        41.15874
217.27         42.8453
217.73        48.49051
218.19        56.87198
218.65        59.34321
219.11        53.40472
219.57        45.08291
220.02        39.76067
220.48        40.21454
220.94         45.9635
221.40         57.2933
221.86         74.2635
222.32        86.96247
222.77        85.32583
223.23        75.80681
223.69        64.80789
224.15        55.94093
224.61         49.4817
225.06        44.28511
225.52         41.2141
225.98        41.10689
226.44        43.56411
226.90        48.04927
227.36        53.12092
227.81        56.08376
228.27        56.35357
228.73        54.70135
229.19        52.59882
229.65        51.80552
230.10        52.48496
230.56        54.09768
231.02        55.60553
231.48        55.44474
231.93        53.46641
232.39        50.74154
232.85         48.3453
233.31        47.66135
233.77         48.7654
234.22        51.07297
234.68         53.7994
235.14        55.85221
235.60        56.83122
236.05        57.08174
236.51        56.61313
236.97        55.57037
237.43        54.18384
237.88        52.50053
238.34        50.92005
238.80        50.33706
239.26        51.08887
239.71        53.54517
240.17        57.53485
240.63        62.30877
241.08        67.15839
241.54        71.50118
242.00        75.39849
242.46        79.80003
242.91        85.98171
243.37        93.65742
243.83        102.8673
244.28        109.8005
244.74        108.0652
245.20        98.38259
245.66        86.72257
246.11        77.06489
246.57        69.79909
247.03        63.56403
247.48        58.10744
247.94        53.94261
248.40        51.71415
248.85        50.93724
249.31        50.72052
249.77         49.8202
250.22        47.74781
250.68        44.16936
251.14        39.81379
251.59         37.8567
252.05        40.26528
252.51        45.87736
252.96        50.61624
253.42        51.05088
253.88        47.92586
254.33        42.87305
254.79        39.70567
255.25         41.6404
255.70        48.20736
256.16        57.86691
256.62        66.48137
257.07        67.78342
257.53        63.21893
257.99        56.78311
258.44         51.6486
258.90        50.51326
259.35        52.25496
259.81        55.62693
260.27        58.97737
260.72        60.30218
261.18         59.6904
261.63        57.84917
262.09         56.0177
262.55        54.97647
263.00        54.66091
263.46        54.83072
263.91        54.81984
264.37        54.12122
264.83        52.71407
265.28        50.89122
265.74        49.30247
266.19        48.43647
266.65        48.39207
267.11         48.8433
267.56        49.40305
268.02        49.46369
268.47        48.87275
268.93        47.89149
269.38         46.7043
269.84        45.65452
270.30        44.83428
270.75        44.09275
271.21        43.51574
271.66        43.18286
272.12        43.06566
272.57        43.12795
273.03        43.08606
273.48        42.46038
273.94        41.25851
274.39        39.63474
274.85        38.04889
275.31        36.99477
275.76        36.52568
276.22        36.49239
276.67        36.58643
277.13         36.4651
277.58        35.98679
278.04        35.29909
278.49        34.49008
278.95        33.80874
279.40        33.25729
279.86        32.82988
280.31        32.37244
280.77         31.7864
281.22         31.0379
281.68        30.26447
282.13        29.57465
282.59        29.19827
283.04        29.11586
283.50         29.2465
283.95        29.44466
284.41        29.49716
284.86        29.33578
285.32        29.05904
285.77        28.69786
286.22        28.35972
286.68        28.07942
287.13        27.78643
287.59        27.53413
288.04        27.36229
288.50        27.29111
288.95         27.2888
289.41        27.28003
289.86        27.07888
290.32        26.70477
290.77        26.20759
291.22        25.74488
291.68        25.53786
292.13        25.61779
292.59        25.92628
293.04        26.34486
293.50        26.70552
293.95        26.94878
294.40        27.13152
294.86        27.31172
295.31        27.57269
295.77         27.9412
296.22         28.3638
296.68        28.81822
297.13        29.26203
297.58        29.68625
298.04        30.11403
298.49        30.53003
298.95        30.92327
299.40        31.28661
299.85        31.61859
300.31        31.95595
300.76        32.34803
301.21        32.79784
301.67        33.29615
302.12        33.75774
302.58        34.11057
303.03        34.31614
303.48        34.42332
303.94         34.5033
304.39        34.62926
304.84        34.83045
305.30          35.087
305.75        35.33749
306.20        35.54235
306.66        35.69607
307.11         35.8039
307.57        35.88395
308.02        35.91373
308.47        35.90762
308.93        35.87195
309.38        35.82587
309.83        35.84995
310.29        35.95153
310.74        36.10236
311.19        36.23081
311.65        36.21303
312.10          36.023
312.55        35.70568
313.00        35.35536
313.46        35.11209
313.91        34.99422
314.36        34.96501
314.82        34.95463
315.27        34.86082
315.72        34.65113
316.18        34.37146
316.63        34.05598
317.08        33.76941
317.53        33.53173
317.99        33.31917
318.44        33.12278
318.89        32.91962
319.35        32.70407
319.80        32.48563
320.25        32.27634
320.70        32.09248
321.16         31.9321
321.61        31.79544
322.06        31.65428
322.51        31.46911
322.97         31.2262
323.42        30.93777
323.87        30.64164
324.32        30.40564
324.78        30.23269
325.23        30.12279
325.68        30.00177
326.13        29.75464
326.59         29.3644
327.04        28.88665
327.49        28.41469
327.94        28.09497
328.39        27.95307
328.85        27.92439
329.30        27.95693
329.75        27.90215
330.20        27.71341
330.66        27.43581
331.11        27.10877
331.56        26.77224
332.01        26.44909
332.46        26.11423
332.92        25.79952
333.37        25.60918
333.82        25.54441
334.27        25.59263
334.72        25.65948
335.17        25.57743
335.63        25.30948
336.08        24.92139
336.53        24.51637
336.98        24.28005
337.43         24.2619
337.88        24.39316
338.34         24.6048
338.79        24.80267
339.24        24.92632
339.69        25.00715
340.14        25.00309
340.59        24.85051
341.05        24.56404
341.50        24.15899
341.95        23.75277
342.40        23.52954
342.85        23.52744
343.30        23.70029
343.75        23.93456
344.20        24.03657
344.66        23.95725
345.11        23.75109
345.56        23.50899
346.01        23.37696
346.46        23.39382
346.91        23.50973
347.36        23.65442
347.81        23.72567
348.26        23.69679
348.72        23.60327
349.17        23.49652
349.62        23.46598
350.07        23.52993
350.52        23.65713
350.97        23.78004
351.42         23.7944
351.87        23.67965
352.32        23.47359
352.77        23.25057
353.22        23.11834
353.67        23.09716
354.13        23.15096
354.58        23.21693
355.03        23.19534
355.48        23.06269
355.93        22.86173
356.38        22.64161
356.83        22.47111
357.28        22.36957
357.73        22.31007
358.18        22.27905
358.63        22.25942
359.08        22.23431
359.53        22.20077
359.98        22.14242
360.43        22.03085
360.88        21.86287
361.33        21.65411
361.78        21.40998
362.23        21.14404
362.68        20.87545
363.13        20.60913
363.58        20.38999
364.03        20.28249
364.48        20.29022
364.93        20.39043
365.38        20.51358
365.83         20.5439
366.28        20.45167
366.73        20.26883
367.18        20.04947
367.63        19.88344
368.08        19.79546
368.53        19.75496
368.98        19.73615
369.43         19.6989
369.88        19.62798
370.33        19.53933
370.78        19.43524
371.23        19.31645
371.68        19.18862
372.13        19.05206
372.58        18.91738
373.03        18.80301
373.48        18.71319
373.93        18.64274
374.38        18.58653
374.83        18.53569
375.28        18.48226
375.72        18.41871
376.17        18.34945
376.62        18.25737
377.07        18.14467
377.52        18.02357
377.97        17.89812
378.42        17.77945
378.87        17.67319
379.32        17.56803
379.77        17.49206
380.22        17.48504
380.67        17.54469
381.11        17.66903
381.56        17.76644
382.01        17.69924
382.46        17.45205
382.91        17.08224
383.36        16.72362
383.81        16.56332
384.26        16.62842
384.71        16.85638
385.15        17.13543
385.60        17.27842
386.05         17.2308
386.50         17.0572
386.95        16.82993
387.40        16.66209
387.85        16.58718
388.29        16.54969
388.74        16.55108
389.19        16.56029
389.64        16.56262
390.09        16.56812
390.54        16.55276
390.98         16.4693
391.43        16.32614
391.88        16.13864
392.33        15.94785
392.78         15.8129
393.23        15.74496
393.67        15.71965
394.12        15.72492
394.57        15.71023
395.02        15.66214
395.47        15.58667
395.91        15.50611
396.36        15.44875
396.81        15.43109
397.26         15.4441
397.71        15.45337
398.15        15.41941
398.60        15.35687
399.05        15.21854
399.50        15.06234
399.95        15.08051
400.39         15.2341
400.84        15.23269
401.29        15.06817
401.74        14.96653
402.18        14.93434
402.63        14.82739
403.08        14.67852
403.53        14.60478
403.97        14.61712
404.42        14.68313
404.87         14.7552
405.32        14.75556
405.76        14.66571
406.21        14.51918
406.66        14.36661
407.11        14.28773
407.55        14.30415
408.00        14.38323
408.45        14.48086
408.90          14.512
409.34        14.45143
409.79        14.33183
410.24        14.19486
410.68        14.09292
411.13        14.04309
411.58        14.02506
412.03        14.02165
412.47        14.00669
412.92        13.96885
413.37          13.928
413.81         13.8887
414.26        13.86658
414.71        13.85948
415.15         13.8599
415.60        13.86978
416.05        13.90536
416.49        13.96579
416.94        14.04531
417.39        14.11022
417.83        14.10791
418.28         14.0299
418.73        13.88806
419.17        13.73723
419.62        13.66819
420.07        13.69826
420.51        13.79418
420.96        13.89359
421.41        13.89638
421.85        13.78011
422.30        13.58206
422.74        13.35332
423.19         13.2257
423.64        13.19819
424.08         13.1664
424.53        13.11612
424.98        13.12826
425.42        13.20367
425.87        13.25806
426.31        13.28545
426.76        13.37311
427.21         13.4766
427.65        13.40614
428.10        13.21042
428.54        13.10885
428.99        13.12555
429.44        13.19551
429.88         13.2687
430.33         13.2159
430.77        13.07148
431.22         13.0878
431.66        13.24856
432.11         13.2956
432.56        13.22363
433.00        13.21838
433.45        13.23253
433.89        13.09545
434.34        12.90991
434.78        12.60599
435.23        12.89404
435.67        12.93921
436.12        12.91714
436.57        12.86734
437.01         12.8011
437.46        12.74306
437.90        12.69362
438.35         12.6117
438.79        12.51901
439.24         12.4906
439.68        12.53169
440.13        12.61639
440.57        12.71142
441.02        12.77268
441.46        12.78317
441.91        12.72635
442.35        12.62418
442.80        12.63001
443.24         12.6975
443.69        12.60477
444.13        12.39404
444.58        12.33021
445.02        12.42393
445.47        12.53962
445.91         12.6339
446.36        12.69908
446.80        12.71644
447.24        12.68945
447.69        12.63747
448.13        12.58671
448.58        12.55104
449.02        12.52202
449.47        12.50182
449.91        12.48759
450.36         12.4819
450.80        12.48682
451.25        12.50215
451.69        12.51812
452.13        12.53242
452.58        12.54078
453.02        12.54515
453.47         12.5526
453.91        12.56213
454.36        12.57261
454.80        12.56681
455.24         12.5167
455.69        12.42587
456.13        12.29966
456.58        12.18183
457.02        12.11592
457.46        12.11625
457.91        12.16734
458.35        12.22932
458.79        12.23974
459.24        12.19692
459.68        12.11477
460.13        12.04031
460.57        12.01181
461.01        12.04829
461.46        12.12064
461.90        12.21735
462.34        12.30843
462.79         12.3754
463.23        12.43119
463.68         12.4543
464.12        12.41906
464.56        12.32671
465.01        12.20517
465.45        12.07817
465.89        12.01116
466.34        12.01294
466.78        12.06525
467.22        12.14432
467.67        12.19438
468.11         12.2052
468.55        12.18629
468.99        12.15949
469.44        12.15894
469.88        12.19331
470.32        12.24826
470.77        12.30633
471.21         12.3441
471.65        12.35403
472.10        12.34884
472.54        12.33649
472.98        12.33386
473.42        12.34609
473.87        12.37004
474.31         12.3972
474.75        12.42756
475.20        12.46181
475.64        12.49608
476.08        12.52835
476.52        12.54792
476.97        12.55402
477.41        12.55543
477.85        12.56405
478.29        12.58089
478.74        12.61916
479.18        12.70651
479.62        12.81889
480.06        12.89694
480.50        12.93349
480.95        12.93605
481.39        12.91228
481.83        13.00068
482.27        13.01479
482.72        13.10171
483.16        13.19588
483.60        13.25003
484.04        13.24801
484.48        13.31442
484.93        13.48271
485.37        13.42377
485.81        13.55058
486.25        13.93037
486.69         13.4358
487.14        13.78834
487.58        14.65326
488.02        14.49486
488.46         14.2027
488.90        14.21071
489.34        14.07312
489.79        14.24835
490.23        14.41867
490.67        14.64143
491.11        14.82911
491.55        14.84485
491.99        14.74662
492.43        14.76923
492.88        14.93528
493.32           15.09
493.76        15.20929
494.20        15.34248
494.64        15.48794
495.08        15.60226
495.52        15.68674
495.96        15.84336
496.41        16.04275
496.85        16.05458
497.29        15.92604
497.73        16.09314
498.17        16.32617
498.61        16.52126
499.05        16.58451
499.49        16.67165
499.93        16.74843
500.37        16.89964
500.82        17.09498
501.26        17.23899
501.70         17.3207
502.14        17.40551
502.58        17.50119
503.02        17.58482
503.46        17.65869
503.90          17.731
504.34         17.8012
504.78        17.86661
505.22        17.92807
505.66        17.98782
506.10         18.0487
506.54        18.11578
506.98         18.1899
507.42        18.26718
507.86        18.34795
508.30        18.43303
508.74        18.51905
509.18        18.60332
509.62        18.67454
510.06        18.71596
510.50         18.7258
510.94        18.71085
511.38        18.68701
511.82        18.67898
512.26        18.69565
512.70        18.73387
513.14        18.78505
513.58        18.83375
514.02        18.87446
514.46        18.90867
514.90        18.94424
515.34         18.9944
515.78        19.05798
516.22        19.12637
516.66        19.18004
517.10        19.18925
517.54        19.15092
517.98        19.08007
518.42        18.99837
518.86        18.94013
519.30        18.91641
519.74        18.91594
520.18        18.93684
520.62        18.97444
521.06        19.02263
521.50        19.08392
521.93        19.13728
522.37         19.1409
522.81        19.09091
523.25        18.99535
523.69        18.89058
524.13        18.83543
524.57        18.83974
525.01        18.88428
525.45        18.93003
525.89        18.91273
526.32        18.81751
526.76         18.6754
527.20         18.5183
527.64        18.39621
528.08        18.32479
528.52        18.28684
528.96        18.27515
529.40        18.27916
529.83        18.28934
530.27        18.30859
530.71        18.32011
531.15        18.29776
531.59         18.2378
532.03        18.14695
532.46        18.04187
532.90        17.96372
533.34        17.92084
533.78        17.89551
534.22        17.87904
534.66        17.87864
535.09        17.87626
535.53        17.83371
535.97        17.76537
536.41        17.73971
536.85        17.76298
537.28        17.79986
537.72        17.83918
538.16         17.8773
538.60        17.90894
539.04        17.93491
539.47        17.95951
539.91         18.0006
540.35         18.0584
540.79        18.13144
541.22        18.20879
541.66        18.27958
542.10        18.33967
542.54        18.39311
542.97        18.45383
543.41        18.55111
543.85        18.68589
544.29        18.84953
544.72        19.01483
545.16        19.15425
545.60        19.25856
546.04        19.34079
546.47        19.42558
546.91        19.54886
547.35        19.71567
547.79         19.9119
548.22        20.11349
548.66        20.28083
549.10         20.4288
549.53         20.5599
549.97        20.68502
550.41        20.77363
550.84        20.85238
551.28        20.97483
551.72        21.12187
552.15        21.28077
552.59        21.47318
553.03        21.38801
553.46        21.67039
553.90        21.76265
554.34        21.85358
554.77        21.94236
555.21        22.03994
555.65        22.14536
556.08         22.2488
556.52        22.33771
556.96        22.40504
557.39        22.50092
557.83        22.60892
558.27        22.60326
558.70        22.51156
559.14        22.51545
559.57        22.61077
560.01        22.67579
560.45        22.71235
560.88        22.80218
561.32        22.94986
561.75         23.0909
562.19        23.20808
562.63        23.28627
563.06        23.31717
563.50        23.30583
563.93        23.26789
564.37        23.29327
564.80        23.40444
565.24          23.521
565.68        23.56915
566.11        23.94995
566.55        23.79452
566.98        23.82538
567.42        23.85355
567.85        23.97152
568.29        24.18913
568.72         24.4593
569.16        24.76516
569.60        24.96901
570.03        25.14339
570.47        25.27481
570.90        25.42284
571.34        25.39788
571.77        25.65653
572.21        25.87283
572.64        26.04426
573.08         26.1893
573.51        26.19765
573.95        26.16277
574.38        26.10886
574.82        26.66654
575.25         26.3975
575.69        26.61797
576.12        26.84865
576.56        26.78438
576.99        26.53145
577.42        26.46084
577.86         26.8327
578.29        27.04784
578.73        26.84986
579.16        26.93322
579.60        26.58409
580.03        26.64247
580.47        26.56665
580.90        26.62188
581.33        26.60707
581.77        26.64745
582.20        26.01615
582.64        26.35501
583.07        26.26705
583.51        26.28766
583.94         26.1114
584.37        25.84829
584.81        25.58786
585.24        25.44559
585.68        25.47841
586.11        25.27014
586.54        25.38783
586.98        25.20163
587.41         24.9726
587.85        24.86127
588.28         24.8329
588.71         25.0447
589.15        24.92902
589.58        24.45714
590.01        24.59868
590.45        24.66309
590.88        24.87097
591.31        24.81499
591.75        24.60904
592.18        24.38574
592.61        24.11616
593.05        25.07515
593.48        25.04245
593.91        24.78982
594.35        24.99765
594.78           24.88
595.21        24.87347
595.65        25.13396
596.08        25.65249
596.51        25.81717
596.94        25.57109
597.38        25.60236
597.81        25.89561
598.24        26.18696
598.68        26.52566
599.11        26.43984
599.54        26.90501
599.97        27.11752
600.41        27.53016
600.84        27.69082
601.27        28.06938
601.70        28.35919
602.14         28.6466
602.57        29.00874
603.00        29.47924
603.43        29.47585
603.87        30.09004
604.30        30.43086
604.73        30.83528
605.16        31.02254
605.60        31.42866
606.03        31.54858
606.46        31.53852
606.89         32.1327
607.32         33.0407
607.76        33.12055
608.19        33.63203
608.62        33.73298
609.05        33.94664
609.48        34.24522
609.92        35.08369
610.35        35.23734
610.78        35.18345
611.21        35.51291
611.64        35.80746
612.07        36.19248
612.50        36.31341
612.94        36.57068
613.37        36.90294
613.80        37.09784
614.23        37.21489
614.66        37.43672
615.09        37.97351
615.52        38.27527
615.96        38.40709
616.39        38.60939
616.82        38.89086
617.25        39.13069
617.68        39.32508
618.11        39.47981
618.54        39.63437
618.97         39.9394
619.40        40.32766
619.84        40.63333
620.27        40.49622
620.70        40.61974
621.13        40.86174
621.56        40.85355
621.99        40.62901
622.42         40.5081
622.85        40.55589
623.28        40.57239
623.71        40.78812
624.14        40.82257
624.57        41.27836
625.00         41.1715
625.43        41.28172
625.86        41.21567
626.29        41.23539
626.72        40.71381
627.15        40.86064
627.58        40.68503
628.01        40.50343
628.44        40.33424
628.87        40.19925
629.30        39.81555
629.73        39.58996
630.16        39.50132
630.59        39.25895
631.02        39.12914
631.45        38.96863
631.88        38.72556
632.31        38.36854
632.74        38.09511
633.17        37.58859
633.60        37.14726
634.03         36.6896
634.46        36.22234
634.89        35.76448
635.32        35.33396
635.75        34.93758
636.18        34.57853
636.61        34.27326
637.04        33.81525
637.47         33.5792
637.89         33.2575
638.32        32.94501
638.75        32.57372
639.18        32.13626
639.61        31.89027
640.04        31.42164
640.47        31.11758
640.90        30.85743
641.33        30.64768
641.76        30.47241
642.18        30.31628
642.61        30.16985
643.04        30.03669
643.47        29.93301
643.90        29.88389
644.33        29.88965
644.76        29.93874
645.18        30.00302
645.61        30.03018
646.04        30.01686
646.47        29.98794
646.90        29.97902
647.33        30.03984
647.75        30.17357
648.18        30.39425
648.61        30.70761
649.04        30.99464
649.47        31.21478
649.89        31.89347
650.32         32.1452
650.75        32.47595
651.18        32.65979
651.61        32.94207
652.03        33.35927
652.46        33.74736
652.89        34.12082
653.32        34.61961
653.74        35.17957
654.17        35.43895
654.60        35.90425
655.03        36.02283
655.46        35.52527
655.88        36.51867
656.31        37.74694
656.74        37.20627
657.16        41.15264
657.59        45.55042
658.02        40.83436
658.45        40.12809
658.87        39.73703
659.30        40.18582
659.73        40.25689
660.15        41.08841
660.58         40.5974
661.01        40.78909
661.44        41.17619
661.86        41.37693
662.29         41.3812
662.72        41.93411
663.14        42.20642
663.57        42.44114
664.00        42.46488
664.42        42.69172
664.85        43.14627
665.27        43.62107
665.70          44.013
666.13        44.28658
666.55        44.42128
666.98        44.38398
667.41        44.24868
667.83        44.42547
668.26        44.48521
668.69        44.76286
669.11        45.07902
669.54        45.35094
669.96        45.55644
670.39        45.76512
670.82        45.97933
671.24        46.10833
671.67         46.2059
672.09        46.38872
672.52        46.66182
672.94         47.0138
673.37        47.35022
673.80         47.3646
674.22        47.14377
674.65         47.1273
675.07        47.36769
675.50        47.59734
675.92        47.76392
676.35        47.89401
676.77        47.97282
677.20         47.9961
677.62        48.00455
678.05        48.06057
678.47        48.17982
678.90        48.35085
679.32        48.54112
679.75        48.70731
680.17         48.8314
680.60        48.92575
681.02         49.0182
681.45        49.14338
681.87         49.3161
682.30        49.52996
682.72        49.74994
683.15        49.85669
683.57        49.86198
684.00        49.85809
684.42        49.90064
684.85        50.00892
685.27        50.18574
685.70        50.48917
686.12        50.76175
686.54        50.96817
686.97        51.05458
687.39        51.06443
687.82        51.01933
688.24        50.98125
688.66        50.97567
689.09        50.95597
689.51        50.95606
689.94        51.07835
690.36         51.2958
690.78        51.42619
691.21        51.48082
691.63        51.61046
692.06          51.818
692.48        52.01748
692.90        52.16319
693.33        52.23733
693.75        52.22785
694.17        52.10806
694.60        51.99115
695.02        52.04275
695.44        52.26512
695.87        52.69616
696.29        53.21593
696.71         53.0896
697.14        52.50262
697.56        52.50444
697.98        53.08627
698.41        53.34726
698.83        53.26662
699.25        53.40556
699.68        53.71234
700.10        53.86116
700.52        53.80901
700.94        53.72425
701.37        53.57936
701.79        53.60164
702.21        53.78509
702.64        54.06702
703.06         54.3845
703.48        54.62751
703.90        54.75933
704.33        54.81427
704.75        54.81277
705.17        54.78213
705.59        54.74936
706.01        54.70789
706.44        54.69757
706.86        54.81097
707.28        55.04928
707.70        55.35147
708.12        55.66702
708.55        55.98343
708.97        56.23864
709.39        56.26693
709.81        56.12138
710.23         56.0791
710.66        56.17618
711.08        56.28724
711.50        56.35406
711.92        56.35794
712.34         56.2929
712.76        56.18298
713.19        56.07492
713.61        56.07253
714.03        56.18721
714.45        56.39255
714.87        56.65029
715.29        56.90486
715.71        57.12928
716.13        57.32045
716.56        57.46492
716.98        57.62069
717.40         57.7603
717.82        57.87496
718.24        57.91897
718.66        57.82253
719.08        57.59929
719.50        57.30333
719.92        57.03857
720.34        56.95821
720.76        57.09247
721.19         57.3686
721.61        57.74835
722.03         58.1191
722.45        58.42143
722.87        58.67547
723.29        58.81942
723.71         58.7604
724.13        58.50608
724.55         58.0943
724.97        57.66816
725.39        57.46944
725.81        57.55594
726.23        57.84201
726.65         58.2121
727.07        58.59977
727.49        58.73174
727.91        58.82759
728.33        58.86141
728.75         58.9047
729.17        58.97688
729.59        59.03994
730.01        59.09013
730.43        59.12826
730.85        59.15131
731.27        59.16993
731.69        59.16832
732.10        59.11673
732.52        59.01981
732.94        58.88808
733.36        58.77871
733.78        58.71939
734.20        58.72748
734.62        58.82332
735.04        59.35823
735.46        59.01383
735.88        59.62001
736.30        59.70359
736.72        59.81681
737.13        60.07158
737.55        60.36327
737.97         60.5421
738.39        60.53363
738.81        60.18151
739.23        59.66167
739.65        59.68608
740.06         60.1515
740.48        60.31952
740.90        60.13645
741.32        60.04818
741.74        60.13261
742.16        60.25071
742.57        60.41157
742.99        60.63152
743.41        60.82786
743.83        60.85658
744.25        60.69812
744.67        60.38698
745.08        60.05862
745.50        59.91752
745.92        60.02036
746.34        60.29885
746.75        60.62586
747.17        60.78127
747.59        60.71892
748.01        60.51539
748.42        60.26638
748.84        60.13721
749.26        60.17288
749.68        60.26941
750.09        60.40285
750.51        60.60405
750.93        60.77732
751.35        60.83603
751.76        60.79998
752.18        60.48729
752.60        60.25152
753.01        60.35641
753.43        59.84893
753.85        59.74779
754.27        59.73872
754.68        60.05945
755.10        60.35513
755.52        60.32449
755.93        60.49837
756.35        60.39479
756.77        60.32762
757.18        60.38268
757.60        60.60033
758.02          61.104
758.43        61.67411
758.85        61.43437
759.26         61.2481
759.68        60.57943
760.10        60.49057
760.51        60.66977
760.93        61.30398
761.34        61.32088
761.76        62.15435
762.18        62.05886
762.59         61.6358
763.01        61.39311
763.42        61.48354
763.84        61.60871
764.26        61.67893
764.67        61.53464
765.09        61.27409
765.50        61.15975
765.92        61.23241
766.33        61.32524
766.75        61.30645
767.16        61.14505
767.58        60.86135
768.00        60.56509
768.41        60.43045
768.83        60.82682
769.24        61.53638
769.66        61.82509
770.07        61.65436
770.49        61.31882
770.90        61.07066
771.32        61.53782
771.73        62.51876
772.15        62.91241
772.56         62.6263
772.97        62.15758
773.39        61.73212
773.80        61.65236
774.22        61.90991
774.63        62.15268
775.05        62.24234
775.46        62.34164
775.88        62.38651
776.29        62.25773
776.70        62.03186
777.12        61.95178
777.53        62.06175
777.95        62.23555
778.36         62.4244
778.77        62.51951
779.19        62.51649
779.60        62.48998
780.02         62.4048
780.43        62.34044
780.84        62.36149
781.26         61.9683
781.67         61.3961
782.09        62.17493
782.50        63.88422
782.91        63.55772
783.33        62.29957
783.74         61.7193
784.15        62.21381
784.57        62.45134
784.98         62.3782
785.39        62.34346
785.81        62.40943
786.22        62.83947
786.63        63.48693
787.04        63.77592
787.46        63.67588
787.87        63.41843
788.28        63.15062
788.70        63.10628
789.11        63.34224
789.52        63.29526
789.93        63.80877
790.35        63.86357
790.76        63.70541
791.17        63.38823
791.58         63.0717
792.00        62.87464
792.41        62.83301
792.82        63.15685
793.23        63.66262
793.65        63.41016
794.06        62.65908
794.47        62.94934
794.88        64.07571
795.29        64.48531
795.71         64.0793
796.12        63.83666
796.53        63.84895
796.94        63.61875
797.35         63.2871
797.76        63.50983
798.18        64.14268
798.59        64.44621
799.00        64.32083
799.41        64.14825
799.82        64.02834
800.23        63.97006
800.64        64.00614
801.06         64.0892
801.47         64.1967
801.88        64.21539
802.29         64.1117
802.70        63.91466
803.11        63.67191
803.52        63.46119
803.93        63.33786
804.34        63.30181
804.75        63.33326
805.17        63.49727
805.58        63.83414
805.99        63.95747
806.40        63.94766
806.81        64.77113
807.22        66.01134
807.63        65.78346
808.04        64.17226
808.45        63.50314
808.86        63.89876
809.27        64.18661
809.68        64.20219
810.09         64.2341
810.50         64.2392
810.91        64.14301
811.32        64.05604
811.73         64.1471
812.14        64.44087
812.55        64.89508
812.96        65.35177
813.37         65.4977
813.78        65.26474
814.19        64.80339
814.60        64.27842
815.01        63.88211
815.42         63.6685
815.83        63.58698
816.24         63.6083
816.65        63.66584
817.05        63.73348
817.46        63.82072
817.87        63.90633
818.28        63.90208
818.69        63.80025
819.10        63.60566
819.51        63.43083
819.92        63.48725
820.33        63.81524
820.74        64.34022
821.14        64.89939
821.55        65.22921
821.96         65.2625
822.37        65.07211
822.78         64.7759
823.19        64.57927
823.60        64.55411
824.00          64.666
824.41         64.8086
824.82        64.90083
825.23        64.90195
825.64        64.84897
826.04        64.79036
826.45        64.75633
826.86        64.77508
827.27        64.84297
827.68        64.91087
828.08        64.92691
828.49        64.83167
828.90        64.65272
829.31        64.50388
829.72        64.57291
830.12        64.91046
830.53        65.40735
830.94         65.8693
831.35        65.91918
831.75        65.49346
832.16        64.70618
832.57        63.84287
832.97        63.33384
833.38        63.29606
833.79        63.57835
834.20        64.04379
834.60        64.47134
835.01        64.77532
835.42        65.06055
835.82        65.28242
836.23        65.28526
836.64        65.08902
837.04        64.69312
837.45        64.33095
837.86        64.45535
838.26         65.1638
838.67        66.29008
839.08        67.44566
839.48        67.88084
839.89        67.39736
840.29        66.26678
840.70        65.02688
841.11        64.28329
841.51        64.20557
841.92        64.58889
842.33        65.26055
842.73        65.91568
843.14        66.31724
843.54        66.60163
843.95        66.78689
844.35         66.9513
844.76        67.09895
845.17        67.17852
845.57        67.16061
845.98        66.99423
846.38        66.70673
846.79        66.32974
847.19        65.95842
847.60        65.71209
848.00        65.63145
848.41        65.66163
848.81        65.76009
849.22        65.77055
849.62        65.68858
850.03        65.54711
850.43        65.39179
850.84        65.23067
851.24        65.12701
851.65        65.02139
852.05        65.03767
852.46        65.28973
852.86        65.77091
853.27        66.38969
853.67        66.93372
854.07        67.26693
854.48        67.31142
854.88        67.05864
855.29        66.56028
855.69        66.12954
856.10        65.79983
856.50        65.54636
856.90         65.3317
857.31        65.13341
857.71        64.98717
858.12        64.85162
858.52         64.7829
858.92        64.74747
859.33        64.72021
859.73        64.75352
860.13        64.75151
860.54        64.58508
860.94        64.28059
861.34        63.85189
861.75        63.47161
862.15        63.46696
862.55         63.8729
862.96        64.55714
863.36         65.3058
863.76        65.66908
864.17        65.51531
864.57        65.01974
864.97        64.33913
865.38        63.73057
865.78        63.32443
866.18        63.04475
866.58         62.9424
866.99        63.10078
867.39        63.51683
867.79        64.14439
868.19        64.81993
868.60        65.26665
869.00        65.43631
869.40        65.34931
869.80         65.0752
870.21        64.78538
870.61        64.61798
871.01          64.503
871.41        64.36887
871.81         64.0975
872.22        63.66745
872.62         63.1256
873.02        62.62276
873.42        62.39787
873.82        62.50124
874.22        62.84667
874.63        63.22288
875.03        63.31714
875.43         63.0451
875.83        62.51598
876.23         61.9199
876.63        61.55058
877.03        61.49688
877.44        61.65148
877.84        61.92999
878.24        62.21143
878.64        62.38623
879.04        62.33229
879.44         62.1931
879.84        62.30849
880.24        62.69146
880.64        63.18238
881.04        63.52797
881.44        63.35659
881.84        62.61677
882.24        61.47976
882.65        60.29365
883.05        59.58258
883.45        59.49291
883.85        59.88456
884.25        60.55957
884.65        61.15961
885.05        61.53838
885.45         61.7817
885.85         61.9292
886.25        62.05028
886.65          62.172
887.05        62.24008
887.45        62.24965
887.85        62.22219
888.25         62.1619
888.65        62.07971
889.04         61.9765
889.44        61.86818
889.84        61.74485
890.24         61.6069
890.64        61.45057
891.04        61.27022
891.44        61.07592
891.84        60.88964
892.24        60.71607
892.64        60.55271
893.04        60.41191
893.44        60.30582
893.83          60.292
894.23        60.41055
894.63        60.67919
895.03        61.05772
895.43        61.48236
895.83        61.85505
896.23        62.12416
896.63        62.28696
897.02        62.32916
897.42        62.26571
897.82        62.11266
898.22        61.89961
898.62        61.64625
899.01        61.37138
899.41         61.1153
899.81         60.8752
900.21        60.72937
900.61        60.79651
901.00        61.07672
901.40         61.5123
901.80        61.95272
902.20        62.15159
902.59        62.06551
902.99        61.77405
903.39        61.39042
903.79        61.10654
904.18        60.97868
904.58         60.9354
904.98        61.01178
905.38        61.26917
905.77        61.68919
906.17        62.28642
906.57        62.82415
906.96        62.90213
907.36        62.44485
907.76        61.58273
908.15        60.73312
908.55        60.54775
908.95        61.16799
909.34        62.39455
909.74         63.7472
910.14        64.50426
910.53        64.42198
910.93         63.7376
911.33         62.7337
911.72        61.83942
912.12        61.27644
912.52         60.9412
912.91        60.75408
913.31        60.61346
913.70        60.48901
914.10        60.39659
914.49        60.49308
914.89        60.93738
915.29        61.73956
915.68        62.81413
916.08        63.76563
916.47        64.02258
916.87        63.49355
917.26        62.35796
917.66        61.13636
918.05        60.47048
918.45        60.51818
918.84        61.14803
919.24        62.00053
919.64        62.55946
920.03        62.65645
920.42        62.39658
920.82        62.08825
921.21        62.15613
921.61        62.67179
922.00        63.52131
922.40        64.31372
922.79        64.52144
923.19         64.0015
923.58        62.99869
923.98        61.94092
924.37        61.37874
924.77        61.45099
925.16        61.94238
925.55        62.63238
925.95        63.11695
926.34        63.25451
926.74        63.15208
927.13        62.83826
927.52        62.28847
927.92        61.61392
928.31        60.83681
928.70        60.15128
929.10        59.83719
929.49        59.93404
929.89        60.30763
930.28        60.95525
930.67        61.73783
931.07        62.51852
931.46         63.3767
931.85        63.97037
932.24        63.81289
932.64        62.91004
933.03        61.40173
933.42        59.91773
933.82         59.3857
934.21        59.98373
934.60        61.49375
934.99        63.32256
935.39        64.36605
935.78        64.32767
936.17        63.45648
936.56        62.26015
936.96        61.54897
937.35         61.5399
937.74        61.94294
938.13        62.43959
938.53        62.56862
938.92        62.20784
939.31        61.58463
939.70        60.85223
940.09        60.17518
940.49        59.60386
940.88        59.10313
941.27         58.7771
941.66        58.81535
942.05        59.24882
942.44         60.0439
942.84        60.97916
943.23        61.67942
943.62        62.03868
944.01        62.08212
944.40        62.00399
944.79        62.16486
945.18        62.62374
945.57        63.25245
945.97        63.70483
946.36        63.51058
946.75         62.5667
947.14        61.14985
947.53        59.67768
947.92        58.70976
948.31        58.39146
948.70        58.56787
949.09        59.08588
949.48        59.66921
949.87         60.1825
950.26        60.67945
950.65        61.12657
951.04        61.47737
951.43        61.70671
951.82        61.76716
952.21        61.67659
952.60        61.50103
952.99        61.29701
953.38        61.11949
953.77        60.97769
954.16        60.87075
954.55         60.7984
954.94        60.71675
955.33        60.75662
955.72        61.13206
956.11        61.84024
956.50         62.8194
956.89        63.61863
957.28        63.49562
957.66         62.3388
958.05        60.46906
958.44        58.56428
958.83        57.59093
959.22        57.73968
959.61        58.74261
960.00        60.11267
960.39        60.92251
960.78        60.85046
961.16        60.17459
961.55        59.30475
961.94        58.76596
962.33        58.71617
962.72        59.00355
963.11        59.44656
963.49        59.75959
963.88          59.761
964.27        59.54695
964.66        59.36919
965.04        59.61307
965.43         60.2888
965.82        61.32493
966.21        62.24942
966.60         62.1909
966.98        60.96104
967.37        58.98127
967.76        57.01764
968.15        56.01153
968.53        56.14048
968.92        57.18468
969.31        58.65766
969.69         59.5673
970.08        59.48903
970.47        58.71835
970.86        57.89054
971.24        57.92484
971.63        59.01356
972.02        60.90539
972.40        62.96182
972.79        63.69345
973.17        62.75262
973.56        60.69072
973.95        58.49243
974.33        57.42109
974.72         57.7337
975.11        59.04744
975.49        60.83037
975.88        61.97905
976.26        62.11581
976.65        61.52567
977.04        60.60316
977.42        59.92737
977.81        59.64666
978.19        59.53852
978.58        59.57489
978.96        59.69022
979.35        59.82017
979.74        60.07035
980.12        60.38903
980.51        60.43272
980.89        60.25572
981.28        59.87491
981.66        59.56232
982.05        59.69909
982.43        60.36473
982.82        61.44981
983.20        62.74852
983.59         63.7578
983.97        64.34881
984.35        64.57631
984.74        64.50224
985.12        64.51606
985.51        64.64418
985.89        64.78005
986.28        64.86795
986.66        64.74679
987.04        64.43949
987.43        63.98307
987.81        63.43558
988.20        62.81223
988.58        62.20377
988.96        61.55259
989.35         60.9591
989.73         60.5406
990.12        60.28849
990.50        60.25584
990.88         60.1891
991.27        59.66271
991.65        58.66283
992.03        57.36163
992.42        56.31656
992.80        56.29599
993.18        57.42839
993.56        59.49427
993.95        61.83049
994.33        63.28658
994.71        63.33937
995.10        62.44143
995.48        61.14443
995.86        60.37181
996.24         60.3823
996.63         60.7378
997.01        61.53125
997.39        62.59586
997.77        63.69881
998.15        64.96455
998.54        65.81109
998.92        65.23817
999.30        63.31631
999.68         60.4259
1000.06        57.69724
1000.45        56.73724
1000.83        57.96041
1001.21        61.02823
1001.59        65.05039
1001.97        67.76448
1002.35        68.20882
1002.73        67.07759
1003.12        65.38791
1003.50        64.38763
1003.88        64.51112
1004.26        65.16322
1004.64        66.31096
1005.02        67.86649
1005.40        69.54163
1005.78        71.51717
1006.16        72.80555
1006.54        71.80956
1006.92        68.55693
1007.30        63.72017
1007.69        59.11956
1008.07         57.1989
1008.45        58.63742
1008.83        62.89121
1009.21        68.70543
1009.59        72.79869
1009.97        73.44644
1010.35        71.49635
1010.73        67.99387
1011.11         64.5379
1011.49        61.83535
1011.86         59.5354
1012.24        57.83694
1012.62         56.9954
1013.00        56.97628
1013.38        57.83218
1013.76        59.43435
1014.14        61.14723
1014.52        62.50599
1014.90        63.45235
1015.28        63.86455
1015.66        63.77978
1016.04        63.27104
1016.41        62.26904
1016.79        61.00979
1017.17        60.07027
1017.55        59.64339
1017.93        59.66212
1018.31        59.83485
1018.69        59.63947
1019.06        58.97222
1019.44        57.98811
1019.82        56.92104
1020.20        56.38607
1020.58        56.56065
1020.95        56.98279
1021.33        57.59948
1021.71        58.29539
1022.09         59.0815
1022.46        60.36371
1022.84         61.3861
1023.22        60.49664
1023.60          57.479
1023.97        52.83919
1024.35        49.21571
1024.73        49.69027
