SpectraSmart Spectrum 2.9.0.0
--------- Device Information -----------
Spectrum Name :  反射率_0
Saving Time :  2024/04/26 22:09:50
Spectro-Module Model Name : SE2030-DUVN
Spectro-Module Serial Number : OS361AC55029948
Wavelength Start : 200
Wavelength End : 1025
Wavelength Unit : Wavelength(nm)
Spectrum Unit : Reflectance(%)
-----------Spectrum Setting ------------
Integration Time : 20ms
Average : 10
Boxcar : 0
Background removal :  enabled
linearity correction :  enabled
SC :  disabled
Intensity correction :  disabled
DWT denoise :  enabled
savitzky-golay :  disabled
FFT :  disabled
Running average :  disabled
Kalman :  disabled
High pass :  disabled
---------------BEGIN--------------------
Wavelength(nm)             Reflectance(%)
200.29               0
200.75        40.28725
201.21        37.84401
201.67        36.18422
202.13        36.64742
202.58        39.37973
203.04        44.54529
203.50        52.28411
203.96        60.85422
204.42        68.09811
204.88        73.61709
205.34        75.90311
205.80        74.09325
206.26        69.00501
206.72        61.42162
207.18        54.46581
207.64        50.33177
208.10        48.73341
208.55         49.8911
209.01        51.96368
209.47        49.90894
209.93         43.6202
210.39        37.25592
210.85        33.79133
211.31        34.57885
211.77        40.25748
212.23        54.98548
212.69        92.78054
213.14        156.1628
213.60        152.8181
214.06         107.988
214.52         77.9832
214.98        64.96375
215.44        59.95089
215.90        57.24619
216.36        56.53117
216.81        58.23162
217.27        62.82303
217.73        72.88868
218.19        86.05301
218.65        87.96199
219.11        75.68692
219.57        59.49541
220.02        49.41976
220.48        50.33912
220.94        61.45436
221.40        84.19169
221.86        117.8092
222.32        140.1749
222.77        132.0817
223.23        108.0068
223.69        84.60035
224.15        71.38665
224.61        66.52429
225.06        65.28542
225.52        65.93671
225.98        66.64175
226.44        67.03815
226.90        67.98177
227.36        69.16359
227.81        69.78046
228.27        69.82958
228.73        69.11155
229.19        68.64142
229.65        69.81198
230.10        72.53934
230.56        76.42209
231.02        79.77091
231.48        79.91473
231.93        76.66407
232.39        71.69616
232.85        66.96151
233.31        64.98256
233.77        65.96474
234.22        68.90965
234.68         72.6536
235.14        75.45744
235.60        76.69409
236.05        76.97855
236.51        76.22056
236.97        74.48019
237.43         72.0286
237.88        68.83573
238.34        65.74675
238.80        64.46935
239.26        65.58482
239.71        69.66351
240.17        75.87653
240.63        81.46961
241.08        84.48509
241.54         84.1399
242.00        82.21693
242.46        83.14764
242.91        89.90829
243.37        103.2596
243.83        122.9735
244.28        137.4911
244.74        132.0408
245.20        109.6835
245.66        86.03822
246.11        73.20107
246.57        71.20026
247.03        75.70745
247.48        82.79358
247.94        85.52733
248.40        83.15705
248.85        79.07033
249.31        75.77117
249.77        74.11906
250.22        73.67226
250.68        73.41528
251.14        72.90007
251.59        71.51182
252.05        69.59789
252.51        68.57587
252.96        67.08786
253.42         63.9022
253.88        59.49961
254.33        54.43437
254.79        51.75058
255.25        53.86681
255.70        60.12603
256.16        69.19899
256.62        77.03465
257.07        77.59897
257.53        72.49583
257.99        65.59209
258.44        59.95817
258.90         58.2567
259.35         59.3144
259.81        62.00113
260.27        64.71146
260.72         65.5292
261.18        64.62491
261.63        62.66152
262.09        60.88707
262.55        60.06668
263.00        60.08244
263.46        60.65038
263.91        61.05906
264.37        60.77732
264.83        59.73825
265.28        58.22655
265.74        56.84267
266.19        55.97587
266.65        55.74951
267.11        55.86755
267.56        56.06591
268.02        55.94602
268.47        55.39292
268.93        54.60423
269.38        53.63571
269.84         52.6326
270.30        51.65069
270.75        50.62894
271.21        49.73886
271.66        49.17756
272.12        48.95635
272.57        48.97916
273.03        48.98446
273.48        48.52346
273.94        47.57981
274.39        46.28054
274.85        44.96054
275.31        43.92281
275.76        43.20917
276.22        42.74973
276.67        42.39462
277.13        42.05184
277.58          41.611
278.04        41.14203
278.49        40.58129
278.95        39.96878
279.40        39.26233
279.86        38.54728
280.31        37.77408
280.77        37.00912
281.22        36.23254
281.68        35.51824
282.13        34.89162
282.59        34.48898
283.04        34.26691
283.50        34.19655
283.95        34.15927
284.41        33.99293
284.86        33.65142
285.32        33.21427
285.77        32.73463
286.22        32.35895
286.68        32.11516
287.13        31.92189
287.59        31.75566
288.04        31.52908
288.50        31.25347
288.95        30.93743
289.41        30.61941
289.86        30.27547
290.32        29.95033
290.77        29.62738
291.22        29.35928
291.68        29.21021
292.13        29.17324
292.59        29.24259
293.04        29.36971
293.50        29.50012
293.95        29.60707
294.40        29.71254
294.86        29.83604
295.31        29.99953
295.77        30.22017
296.22        30.47949
296.68        30.78369
297.13        31.12682
297.58        31.50906
298.04        31.92982
298.49        32.37355
298.95        32.83231
299.40        33.28894
299.85        33.74302
300.31        34.18482
300.76        34.59079
301.21        34.96025
301.67        35.30899
302.12        35.63061
302.58        35.97754
303.03        36.32823
303.48        36.68607
303.94        37.03716
304.39         37.3258
304.84        37.55201
305.30         37.7338
305.75        37.86931
306.20        38.01275
306.66        38.18384
307.11        38.36082
307.57         38.5151
308.02        38.55076
308.47        38.47454
308.93        38.32508
309.38        38.18223
309.83        38.21746
310.29        38.45253
310.74        38.82375
311.19        39.19273
311.65        39.32832
312.10        39.17399
312.55        38.80684
313.00        38.37403
313.46        38.09567
313.91        38.01381
314.36        38.07336
314.82        38.17278
315.27        38.15861
315.72          37.985
316.18        37.71483
316.63        37.41922
317.08        37.22072
317.53        37.14383
317.99        37.13532
318.44        37.13067
318.89         37.0187
319.35        36.77243
319.80        36.43388
320.25        36.06022
320.70        35.73954
321.16        35.49852
321.61        35.32465
322.06        35.18673
322.51        35.03706
322.97        34.85508
323.42         34.6587
323.87        34.47545
324.32        34.35396
324.78        34.28753
325.23        34.27512
325.68        34.23737
326.13        34.05742
326.59        33.71595
327.04        33.26633
327.49         32.8083
327.94        32.50171
328.39         32.3787
328.85        32.37684
329.30        32.44215
329.75        32.40938
330.20         32.2291
330.66        31.94814
331.11         31.6314
331.56        31.35557
332.01        31.14983
332.46        30.97961
332.92        30.82914
333.37        30.72792
333.82         30.6547
334.27        30.61676
334.72        30.58003
335.17         30.4782
335.63        30.30003
336.08         30.0861
336.53        29.87858
336.98        29.76312
337.43        29.76015
337.88        29.82663
338.34        29.94461
338.79        30.11451
339.24        30.29647
339.69        30.48859
340.14        30.59486
340.59        30.46513
341.05        30.09978
341.50        29.55799
341.95        29.00052
342.40        28.67351
342.85        28.63528
343.30        28.81195
343.75        29.09845
344.20        29.31584
344.66         29.4005
345.11        29.39724
345.56        29.32544
346.01        29.21893
346.46        29.10164
346.91        28.96192
347.36        28.81937
347.81        28.71501
348.26        28.65853
348.72         28.6454
349.17        28.66879
349.62        28.72244
350.07        28.79678
350.52        28.89463
350.97        28.97236
351.42        28.96311
351.87        28.85699
352.32        28.66795
352.77        28.47081
353.22        28.37856
353.67         28.4099
354.13        28.53653
354.58        28.66734
355.03        28.65031
355.48        28.45574
355.93         28.1381
356.38        27.81013
356.83        27.63971
357.28        27.65631
357.73        27.79621
358.18        27.95919
358.63        27.98418
359.08        27.82573
359.53         27.5397
359.98        27.18806
360.43        26.85947
360.88        26.58334
361.33        26.33356
361.78        26.10208
362.23         25.8798
362.68        25.66781
363.13        25.48472
363.58        25.32913
364.03        25.18921
364.48        25.06096
364.93        24.93852
365.38        24.83517
365.83        24.77699
366.28        24.76267
366.73        24.77863
367.18        24.78551
367.63        24.72392
368.08        24.58332
368.53        24.38335
368.98        24.16626
369.43         23.9999
369.88        23.90236
370.33        23.85358
370.78        23.82405
371.23        23.76491
371.68        23.65881
372.13        23.51881
372.58        23.36127
373.03        23.21024
373.48        23.07358
373.93        22.94559
374.38        22.81181
374.83        22.65198
375.28        22.46667
375.72        22.26139
376.17        22.07975
376.62        21.95686
377.07        21.89823
377.52        21.89067
377.97        21.89867
378.42        21.86677
378.87        21.78064
379.32        21.65302
379.77        21.51808
380.22        21.42672
380.67        21.38528
381.11        21.38078
381.56        21.36228
382.01        21.26964
382.46        21.09706
382.91        20.88061
383.36        20.66613
383.81        20.51098
384.26        20.42544
384.71        20.38785
385.15        20.38301
385.60        20.38901
386.05         20.3904
386.50        20.38959
386.95        20.37114
387.40        20.31256
387.85         20.2149
388.29        20.07665
388.74        19.94111
389.19         19.8218
389.64        19.72246
390.09        19.63252
390.54        19.55462
390.98        19.48733
391.43         19.4414
391.88        19.41903
392.33        19.39721
392.78        19.34136
393.23        19.24962
393.67        19.12142
394.12        19.01613
394.57        18.98475
395.02        19.03233
395.47        19.13365
395.91        19.23779
396.36        19.24772
396.81        19.15335
397.26        18.99188
397.71        18.81118
398.15        18.69217
398.60        18.67487
399.05        18.65461
399.50         18.6291
399.95        18.73444
400.39        18.90141
400.84        18.80327
401.29        18.48488
401.74        18.31301
402.18        18.31956
402.63        18.29472
403.08        18.23476
403.53        18.21809
403.97        18.23947
404.42        18.28357
404.87        18.31393
405.32        18.26784
405.76        18.13687
406.21        17.95279
406.66        17.77537
407.11        17.70078
407.55        17.75309
408.00        17.89314
408.45        18.06631
408.90        18.16304
409.34        18.14515
409.79        18.04944
410.24        17.91632
410.68        17.79712
411.13        17.71549
411.58         17.6557
412.03        17.61225
412.47        17.58215
412.92          17.558
413.37        17.54799
413.81        17.55566
414.26        17.59922
414.71        17.67046
415.15        17.76551
415.60        17.84697
416.05        17.86835
416.49        17.81895
416.94         17.7103
417.39        17.58127
417.83        17.49122
418.28         17.4551
418.73        17.45682
419.17        17.47583
419.62        17.47631
420.07        17.44988
420.51        17.40903
420.96        17.36698
421.41         17.3383
421.85         17.3211
422.30        17.30007
422.74        17.27199
423.19        17.31386
423.64        17.39742
424.08        17.41368
424.53        17.35601
424.98        17.34931
425.42        17.40775
425.87        17.41464
426.31        17.37683
426.76         17.4331
427.21        17.53489
427.65        17.43821
428.10        17.20537
428.54        17.11255
428.99        17.18405
429.44        17.33233
429.88        17.48424
430.33        17.45785
430.77        17.29409
431.22        17.32934
431.66        17.54124
432.11         17.5902
432.56        17.47248
433.00        17.43687
433.45        17.43144
433.89        17.25283
434.34        17.04012
434.78        16.69288
435.23        17.14107
435.67        17.26511
436.12        17.29092
436.57         17.2714
437.01         17.2192
437.46        17.16351
437.90        17.10424
438.35        16.98937
438.79        16.84906
439.24        16.78691
439.68        16.81446
440.13        16.90093
440.57        17.01482
441.02        17.11688
441.46        17.18456
441.91        17.18371
442.35        17.12608
442.80        17.19994
443.24        17.33738
443.69        17.23909
444.13         16.9621
444.58        16.86769
445.02        16.97492
445.47        17.10194
445.91        17.19737
446.36        17.26284
446.80        17.27724
447.24        17.24294
447.69        17.18982
448.13          17.158
448.58        17.16259
449.02        17.18777
449.47        17.21824
449.91        17.22151
450.36        17.19615
450.80        17.15233
451.25         17.1105
451.69        17.08911
452.13        17.09458
452.58        17.11442
453.02        17.13829
453.47        17.15322
453.91         17.1541
454.36        17.15044
454.80        17.13299
455.24        17.08513
455.69        17.01528
456.13         16.9196
456.58        16.84428
457.02        16.83221
457.46        16.89479
457.91         17.0119
458.35        17.12802
458.79        17.15907
459.24        17.10253
459.68        16.97804
460.13        16.84815
460.57        16.76337
461.01        16.75224
461.46        16.78165
461.90        16.84646
462.34        16.92397
462.79        16.99557
463.23        17.07451
463.68        17.12869
464.12        17.11496
464.56        17.02831
465.01        16.90638
465.45        16.77148
465.89        16.70155
466.34        16.70812
466.78        16.76689
467.22        16.85906
467.67        16.93277
468.11        16.97966
468.55        17.00679
468.99        17.02269
469.44        17.03946
469.88        17.06259
470.32        17.08246
470.77        17.10134
471.21        17.12877
471.65        17.16337
472.10        17.20737
472.54        17.24557
472.98         17.2596
473.42        17.24671
473.87        17.21766
474.31        17.18065
474.75        17.16498
475.20        17.18063
475.64        17.21407
476.08        17.25357
476.52        17.27133
476.97        17.26213
477.41        17.24268
477.85        17.23558
478.29        17.25135
478.74        17.30963
479.18        17.44416
479.62        17.61235
480.06        17.71887
480.50        17.75243
480.95        17.72827
481.39        17.66826
481.83        17.78258
482.27        17.81844
482.72        17.95906
483.16        18.10498
483.60        18.20253
484.04        18.23746
484.48        18.29895
484.93        18.40812
485.37        18.32488
485.81        18.57693
486.25        18.59445
486.69        17.75933
487.14        18.22824
487.58        19.39358
488.02        19.29982
488.46        18.96662
488.90        19.12818
489.34        19.13022
489.79        19.37854
490.23        19.45623
490.67        19.57343
491.11        19.68577
491.55        19.73472
491.99        19.75608
492.43        19.82619
492.88        19.95366
493.32        20.08408
493.76        20.20277
494.20        20.32893
494.64        20.46549
495.08        20.56797
495.52        20.63931
495.96        20.81475
496.41        21.05591
496.85        21.05946
497.29        20.88226
497.73        21.08845
498.17        21.37279
498.61        21.59739
499.05        21.64537
499.49        21.73014
499.93        21.81063
500.37        21.99881
500.82        22.24244
501.26        22.39765
501.70        22.44764
502.14        22.47971
502.58        22.53325
503.02        22.62602
503.46        22.76511
503.90        22.94394
504.34        23.10945
504.78        23.17245
505.22        23.11793
505.66        22.98108
506.10        22.82548
506.54         22.7505
506.98        22.78524
507.42         22.9017
507.86         23.0688
508.30        23.23345
508.74        23.37227
509.18         23.4969
509.62         23.6069
510.06        23.70194
510.50        23.78245
510.94         23.8421
511.38        23.88195
511.82        23.90914
512.26        23.92817
512.70        23.94195
513.14        23.95791
513.58        23.98481
514.02        24.02521
514.46        24.07802
514.90        24.13573
515.34        24.18555
515.78         24.2218
516.22        24.24346
516.66        24.25513
517.10        24.26538
517.54        24.27578
517.98        24.28543
518.42        24.28239
518.86        24.24807
519.30        24.18299
519.74        24.09637
520.18        24.01493
520.62        23.97863
521.06        23.99533
521.50         24.0532
521.93        24.12543
522.37        24.15857
522.81        24.14145
523.25        24.08659
523.69        24.01697
524.13         23.9693
524.57        23.95152
525.01         23.9496
525.45        23.94493
525.89        23.90923
526.32        23.83388
526.76        23.73723
527.20         23.6334
527.64        23.54428
528.08        23.47792
528.52        23.42912
528.96        23.39312
529.40        23.36255
529.83        23.33305
530.27        23.30666
530.71        23.28314
531.15        23.26434
531.59        23.24904
532.03        23.23384
532.46        23.20684
532.90        23.16694
533.34        23.11155
533.78        23.03308
534.22        22.94474
534.66         22.8947
535.09        22.87132
535.53        22.81467
535.97        22.73175
536.41        22.69272
536.85        22.70071
537.28        22.71808
537.72        22.73985
538.16        22.77346
538.60        22.81629
539.04        22.86711
539.47        22.91937
539.91        22.97897
540.35        23.04187
540.79        23.10632
541.22        23.17799
541.66        23.27437
542.10         23.3922
542.54        23.52509
542.97        23.65215
543.41        23.75099
543.85        23.81575
544.29        23.86021
544.72        23.89872
545.16        23.96937
545.60        24.07768
546.04        24.21691
546.47        24.38538
546.91        24.57429
547.35        24.77191
547.79        24.97692
548.22        25.17268
548.66        25.32899
549.10        25.47165
549.53        25.59702
549.97         25.7151
550.41          25.786
550.84        25.84285
551.28        25.95361
551.72        26.10258
552.15        26.28417
552.59        26.52562
553.03        26.43956
553.46        26.80542
553.90        26.90669
554.34        26.97318
554.77        27.01243
555.21        27.06336
555.65        27.16585
556.08        27.31645
556.52         27.4864
556.96        27.63859
557.39        27.79199
557.83        27.91501
558.27        27.86267
558.70        27.69337
559.14        27.66763
559.57        27.78801
560.01        27.89767
560.45          27.972
560.88        28.06086
561.32        28.17042
561.75        28.26162
562.19        28.33817
562.63        28.40083
563.06        28.44564
563.50        28.46995
563.93        28.47407
564.37        28.53903
564.80        28.68037
565.24        28.80034
565.68        28.80619
566.11        29.20341
566.55        28.93946
566.98         28.8574
567.42        28.75421
567.85        28.86535
568.29        29.16912
568.72        29.42612
569.16        29.64025
569.60        29.80424
570.03        30.00632
570.47        30.19322
570.90        30.41447
571.34        30.27453
571.77        30.54785
572.21        30.79947
572.64         30.7314
573.08        31.04182
573.51        31.23657
573.95        31.25098
574.38        31.08758
574.82        31.32173
575.25        31.10786
575.69        31.30147
576.12        31.53219
576.56        31.52396
576.99        31.35988
577.42        31.34738
577.86        31.42366
578.29        31.56896
578.73        31.45686
579.16        31.41326
579.60        31.33102
580.03        31.41821
580.47        31.21024
580.90        31.53768
581.33        31.55175
581.77        31.34019
582.20        30.49558
582.64        30.54233
583.07        30.78837
583.51        30.82052
583.94        30.77475
584.37        30.66073
584.81        30.59687
585.24        30.31962
585.68         29.9732
586.11        29.94868
586.54        29.94227
586.98          30.001
587.41        30.01355
587.85        29.97912
588.28        29.46801
588.71        29.58106
589.15        29.52025
589.58        29.54002
590.01        29.66901
590.45        29.68187
590.88        29.89876
591.31        29.80628
591.75        29.59682
592.18        29.47624
592.61        29.43159
593.05        29.88818
593.48         29.9687
593.91          29.704
594.35        29.84374
594.78        29.79234
595.21        29.87077
595.65        30.06091
596.08        30.42085
596.51        30.65076
596.94        30.64553
597.38        30.78484
597.81        31.02153
598.24        31.27873
598.68        31.62176
599.11        31.48689
599.54        31.97653
599.97        32.01764
600.41        32.47645
600.84         32.5738
601.27        32.96524
601.70        33.27479
602.14         33.5866
602.57        33.96835
603.00         34.4658
603.43        34.35359
603.87        35.00751
604.30        35.41218
604.73        35.96908
605.16        36.06501
605.60        36.28611
606.03        36.41161
606.46         36.6553
606.89        36.99091
607.32        37.83037
607.76         38.1279
608.19        38.46569
608.62        38.66714
609.05         38.9715
609.48        39.18819
609.92         39.8176
610.35        39.98641
610.78        39.81943
611.21        40.04451
611.64        40.44523
612.07        40.94053
612.50        41.18874
612.94        41.47248
613.37         41.6953
613.80        41.80108
614.23        41.56632
614.66        41.75588
615.09        42.26237
615.52        42.59957
615.96         42.7058
616.39        42.95976
616.82        43.39353
617.25        43.29713
617.68        43.52676
618.11        43.79555
618.54        44.28787
618.97        44.50457
619.40        44.45432
619.84        44.69734
620.27         44.8229
620.70        45.05267
621.13        45.20238
621.56        45.08645
621.99        44.78226
622.42        44.73579
622.85        44.97753
623.28        44.97928
623.71        45.06592
624.14        45.06788
624.57        45.56844
625.00        45.34215
625.43        45.53423
625.86         45.3683
626.29         45.1843
626.72         45.0359
627.15        44.94038
627.58        44.87254
628.01        44.75235
628.44        44.60634
628.87        44.30632
629.30        43.84898
629.73        43.85649
630.16        43.67691
630.59        43.48995
631.02        43.39633
631.45        43.37262
631.88        43.20747
632.31        42.84702
632.74         42.7504
633.17        42.20365
633.60          41.823
634.03         41.4104
634.46        40.97739
634.89        40.53162
635.32        40.10969
635.75        39.72967
636.18        39.34118
636.61        38.96066
637.04        38.63023
637.47        38.34653
637.89        38.08897
638.32        37.82236
638.75        37.53099
639.18        37.21116
639.61        36.87132
640.04        36.53476
640.47          36.235
640.90        35.98147
641.33         35.7706
641.76        35.58857
642.18        35.41651
642.61        35.24208
643.04        35.07806
643.47        34.94984
643.90        34.89595
644.33        34.91985
644.76        35.00621
645.18        35.11584
645.61        35.17764
646.04        35.18085
646.47        35.14979
646.90        35.12876
647.33        35.18306
647.75        35.31931
648.18         35.5541
648.61        35.87755
649.04        36.14133
649.47        36.30223
649.89        36.93122
650.32        37.04708
650.75        37.42347
651.18        37.76841
651.61        38.08822
652.03        38.40747
652.46        38.83904
652.89        39.39185
653.32         39.8471
653.74        40.08517
654.17        40.67243
654.60        41.18282
655.03        41.28656
655.46        40.86179
655.88        41.17918
656.31        42.09517
656.74        39.73275
657.16        43.13025
657.59        47.83352
658.02        44.53403
658.45          44.699
658.87         44.6201
659.30        44.69616
659.73        45.19053
660.15        45.97735
660.58         45.5891
661.01        45.66862
661.44        45.87505
661.86        46.05812
662.29        46.17455
662.72        46.76653
663.14        46.89436
663.57        47.02499
664.00         47.0081
664.42        47.22268
664.85        47.69269
665.27        48.29016
665.70        48.86829
666.13        48.95491
666.55        49.07788
666.98        48.78591
667.41        48.38614
667.83        48.39947
668.26        48.38955
668.69        48.69145
669.11         49.0724
669.54        49.40773
669.96        49.64914
670.39        49.84233
670.82        50.00504
671.24        50.12353
671.67        50.21188
672.09        50.28255
672.52        50.36186
672.94        50.43851
673.37        50.52399
673.80        50.63232
674.22        50.75988
674.65        50.85607
675.07        50.92504
675.50        50.97089
675.92        51.00558
676.35        51.03804
676.77        51.07701
677.20        51.11965
677.62        51.17266
678.05        51.24559
678.47        51.33452
678.90        51.44292
679.32        51.57523
679.75        51.68388
680.17        51.74742
680.60         51.9054
681.02        52.17834
681.45        51.97866
681.87        52.20523
682.30         52.3525
682.72        52.43302
683.15        52.61453
683.57        52.80056
684.00        52.87764
684.42        52.87168
684.85        52.96642
685.27        53.16706
685.70        53.37624
686.12        53.53324
686.54        53.62165
686.97        53.63866
687.39        53.49688
687.82        53.39147
688.24        53.36762
688.66        53.51211
689.09        53.48952
689.51        53.79747
689.94         53.9375
690.36        54.04707
690.78        54.10725
691.21         54.1588
691.63        54.27302
692.06        54.44605
692.48        54.62286
692.90        54.74085
693.33        54.75718
693.75        54.65874
694.17        54.42094
694.60        54.18561
695.02        54.18114
695.44        54.42141
695.87        54.90613
696.29        55.44512
696.71          55.427
697.14        54.97273
697.56        54.88906
697.98        55.18717
698.41        55.49485
698.83        55.35122
699.25        55.54177
699.68        55.86269
700.10        56.04594
700.52         56.0379
700.94        55.94088
701.37        55.82343
701.79        55.78667
702.21         55.8581
702.64        55.98872
703.06        56.15273
703.48        56.29849
703.90        56.40322
704.33        56.48185
704.75        56.53552
705.17        56.55705
705.59         56.5589
706.01        56.54749
706.44        56.54265
706.86        56.60821
707.28        56.74658
707.70        56.89751
708.12        57.06541
708.55        57.33397
708.97        57.64919
709.39        57.79729
709.81        57.76805
710.23        57.75433
710.66        57.76485
711.08        57.69091
711.50        57.54548
711.92         57.4282
712.34        57.36032
712.76         57.3319
713.19        57.33025
713.61        57.36127
714.03        57.41079
714.45        57.48682
714.87        57.60609
715.29        57.79403
715.71        58.04221
716.13        58.32177
716.56         58.5785
716.98        58.78081
717.40        58.87257
717.82         58.9129
718.24        58.90556
718.66        58.63059
719.08        58.48001
719.50        58.19669
719.92        57.96331
720.34         57.8804
720.76        57.97034
721.19        58.17477
721.61        58.47333
722.03        58.79095
722.45        59.07911
722.87        59.34501
723.29        59.51785
723.71        59.49083
724.13        59.26257
724.55         58.8728
724.97         58.4589
725.39        58.25311
725.81        58.31393
726.23        58.56116
726.65        58.88498
727.07        59.23131
727.49        59.32988
727.91        59.39837
728.33        59.42251
728.75        59.49237
729.17        59.62683
729.59        59.78208
730.01        59.92006
730.43        59.98633
730.85         59.9671
731.27        59.88899
731.69        59.77834
732.10        59.66912
732.52        59.57692
732.94        59.50804
733.36        59.48509
733.78        59.43463
734.20         59.3533
734.62        59.45874
735.04        59.79504
735.46        59.44352
735.88        60.02855
736.30        60.07242
736.72        60.48712
737.13        60.75101
737.55        60.89408
737.97        60.95395
738.39         60.8932
738.81        60.50222
739.23        59.94941
739.65        59.92495
740.06        60.35842
740.48        60.59496
740.90        60.58313
741.32        60.73367
741.74        61.03467
742.16        61.23908
742.57        61.32142
742.99        61.32843
743.41        61.28488
743.83        61.21781
744.25        61.14699
744.67        61.05827
745.08        60.99295
745.50        60.99753
745.92        61.08054
746.34        61.21973
746.75        61.36712
747.17        61.41344
747.59        61.34767
748.01        61.25768
748.42        61.16483
748.84        61.03357
749.26        60.94791
749.68        61.00388
750.09        61.18578
750.51        61.56033
750.93        61.94058
751.35        61.77431
751.76        61.16719
752.18        60.84219
752.60        60.85331
753.01        60.80541
753.43        60.66543
753.85         60.6046
754.27         60.6275
754.68        60.69693
755.10        60.80957
755.52        60.95454
755.93        61.10778
756.35        61.25737
756.77        61.42995
757.18        61.52964
757.60         61.5347
758.02        61.72081
758.43        62.06969
758.85        61.32708
759.26        61.63602
759.68        61.15925
760.10        60.66628
760.51        60.93489
760.93        61.99416
761.34        61.10179
761.76        61.71532
762.18        61.77486
762.59        62.29627
763.01        62.58769
763.42        62.62089
763.84        62.56407
764.26        62.40428
764.67        61.97132
765.09        61.47445
765.50        61.30585
765.92        61.45927
766.33        61.61409
766.75        61.64903
767.16        61.53577
767.58        61.31395
768.00        61.43183
768.41        61.89914
768.83         62.1333
769.24         62.0631
769.66        62.28455
770.07        62.65228
770.49        62.12452
770.90        61.05586
771.32        61.29374
771.73        62.66651
772.15        63.21532
772.56        62.83653
772.97        62.58409
773.39        62.58656
773.80        62.63355
774.22        62.75098
774.63        62.77375
775.05        63.05529
775.46        63.11794
775.88        63.04571
776.29        62.86916
776.70        62.67395
777.12        62.61917
777.53        62.74063
777.95        62.95567
778.36        63.18087
778.77        63.24388
779.19         63.1321
779.60        62.93166
780.02        62.69571
780.43        62.60993
780.84        62.73708
781.26        62.66488
781.67         62.5137
782.09        63.26437
782.50        64.53651
782.91         64.4724
783.33        63.20144
783.74        62.73106
784.15        62.93419
784.57        62.93538
784.98        62.68914
785.39        62.69284
785.81        62.94657
786.22        63.38978
786.63          63.914
787.04        64.00384
787.46         64.1325
787.87        63.92646
788.28        63.68622
788.70        63.57348
789.11        63.61261
789.52        63.87129
789.93         64.2016
790.35        64.13405
790.76        63.73563
791.17        63.59247
791.58        63.76867
792.00        63.83189
792.41        63.79178
792.82        64.05326
793.23        64.49103
793.65        64.39967
794.06        63.90703
794.47        63.91106
794.88        64.35224
795.29        64.45183
795.71        64.16243
796.12        64.03065
796.53        64.09268
796.94        64.00711
797.35        63.87553
797.76         64.1179
798.18        64.79852
798.59        65.08564
799.00        64.94964
799.41        64.72372
799.82        64.51912
800.23        64.38394
800.64         64.3608
801.06        64.40035
801.47        64.49435
801.88        64.54603
802.29        64.52039
802.70         64.4417
803.11        64.31957
803.52        64.16904
803.93        64.02995
804.34        63.91307
804.75        63.83702
805.17        63.94404
805.58        64.29786
805.99        64.46082
806.40        64.47514
806.81        65.33237
807.22        66.57795
807.63        66.10036
808.04        64.24623
808.45        63.43943
808.86        63.89242
809.27        64.32085
809.68        64.49054
810.09        64.60543
810.50        64.58684
810.91        64.38351
811.32        64.18144
811.73        64.27348
812.14        64.71362
812.55         65.4193
812.96        66.14566
813.37        66.43129
813.78        66.15445
814.19        65.49279
814.60        64.71782
815.01        64.19345
815.42        64.00845
815.83        64.05862
816.24        64.25584
816.65        64.42681
817.05        64.50641
817.46        64.54108
817.87        64.56112
818.28        64.55775
818.69        64.53831
819.10        64.46444
819.51        64.41575
819.92           64.55
820.33        64.88416
820.74        65.37329
821.14        65.83545
821.55        65.97165
821.96        65.72726
822.37        65.19021
822.78        64.57995
823.19        64.27283
823.60        64.37914
824.00        64.81998
824.41         65.3609
824.82        65.69153
825.23        65.69639
825.64        65.46622
826.04        65.14561
826.45        64.92992
826.86        64.90035
827.27        65.00607
827.68        65.14397
828.08        65.17379
828.49        65.01239
828.90        64.72815
829.31        64.48459
829.72        64.53923
830.12        64.96212
830.53        65.61792
830.94        66.26656
831.35         66.4572
831.75        66.09624
832.16        65.30826
832.57        64.41089
832.97        63.88921
833.38        63.87313
833.79         64.1963
834.20        64.68491
834.60        65.05884
835.01        65.23012
835.42        65.33777
835.82        65.39414
836.23        65.33783
836.64        65.21419
837.04        64.98315
837.45        64.84264
837.86        65.19161
838.26        66.09616
838.67        67.39734
839.08        68.65874
839.48        69.05115
839.89        68.37733
840.29        66.95133
840.70        65.40321
841.11        64.46433
841.51         64.3293
841.92          64.757
842.33        65.54672
842.73          66.331
843.14        66.83872
843.54        67.22736
843.95        67.47617
844.35         67.6053
844.76        67.61446
845.17        67.45457
845.57         67.1832
845.98        66.90374
846.38        66.67111
846.79        66.47137
847.19        66.28694
847.60        66.04661
848.00        65.75526
848.41        65.43813
848.81        65.15148
849.22        64.90196
849.62        64.74561
850.03        64.66129
850.43        64.68079
850.84        64.79547
851.24        65.02744
851.65        65.30023
852.05        65.64099
852.46        65.98547
852.86        66.29089
853.27        66.55834
853.67        66.65935
854.07        66.52946
854.48        66.15648
854.88         65.6002
855.29        64.96645
855.69        64.57754
856.10        64.47203
856.50        64.64418
856.90        64.95005
857.31        65.14946
857.71        65.21268
858.12          65.144
858.52        65.02724
858.92        64.90241
859.33        64.78004
859.73        64.67234
860.13         64.5568
860.54         64.4297
860.94        64.33191
861.34         64.2638
861.75        64.22926
862.15        64.26537
862.55        64.35102
862.96         64.4334
863.36        64.52959
863.76        64.59349
864.17        64.59593
864.57        64.58169
864.97        64.47621
865.38        64.17305
865.78        63.70249
866.18        63.10049
866.58        62.55193
866.99        62.37779
867.39        62.67094
867.79        63.31673
868.19        64.09708
868.60        64.65807
869.00        64.92733
869.40        64.96479
869.80        64.86102
870.21        64.80004
870.61        64.90084
871.01        65.04736
871.41        65.13461
871.81        65.02244
872.22        64.68724
872.62        64.18889
873.02        63.67408
873.42        63.37513
873.82        63.35659
874.22        63.54878
874.63        63.79662
875.03        63.86697
875.43        63.69588
875.83        63.37803
876.23        63.03783
876.63        62.87014
877.03        62.92579
877.44        63.09051
877.84        63.34091
878.24        63.65971
878.64        63.95214
879.04        64.07982
879.44        64.04028
879.84        63.94687
880.24        63.80353
880.64        63.54156
881.04        63.16566
881.44        62.73296
881.84        62.28887
882.24        61.86409
882.65        61.52127
883.05        61.33333
883.45        61.31936
883.85        61.45766
884.25        61.72465
884.65        62.06734
885.05        62.43394
885.45        62.80348
885.85        63.10715
886.25        63.25833
886.65        63.24706
887.05         63.0945
887.45        62.86354
887.85        62.67312
888.25        62.56036
888.65          62.494
889.04        62.44832
889.44        62.40287
889.84        62.33152
890.24        62.25513
890.64        62.14885
891.04        61.96933
891.44        61.72702
891.84        61.45092
892.24        61.20853
892.64        61.09511
893.04        61.13902
893.44        61.32717
893.83        61.63202
894.23        61.95171
894.63        62.26106
895.03        62.54184
895.43        62.82302
895.83        63.16473
896.23        63.54861
896.63        63.92739
897.02        64.15668
897.42         64.0429
897.82        63.57831
898.22        62.88821
898.62        62.16304
899.01        61.67151
899.41        61.50443
899.81         61.5672
900.21        61.81791
900.61        62.17986
901.00        62.58239
901.40        63.02181
901.80        63.37563
902.20        63.44506
902.59        63.21461
902.99        62.74427
903.39        62.17895
903.79        61.77131
904.18        61.59348
904.58        61.57224
904.98        61.71082
905.38        62.00794
905.77        62.43301
906.17        63.02154
906.57        63.55444
906.96        63.66607
907.36        63.28169
907.76        62.49544
908.15         61.7259
908.55        61.63242
908.95        62.34875
909.34        63.68769
909.74        65.09485
910.14        65.72335
910.53        65.33241
910.93        64.22053
911.33        62.83941
911.72        61.87926
912.12        61.59625
912.52        61.77477
912.91        62.17694
913.31        62.46312
913.70        62.53241
914.10        62.47556
914.49        62.47379
914.89        62.73007
915.29        63.29922
915.68        64.08136
916.08        64.78136
916.47        65.00113
916.87        64.67395
917.26        63.92458
917.66        63.12863
918.05        62.71207
918.45        62.77848
918.84        63.24004
919.24         63.8202
919.64        64.15889
920.03        64.15033
920.42         63.8791
920.82        63.57028
921.21        63.51475
921.61         63.7638
922.00        64.24342
922.40        64.73331
922.79        64.99545
923.19        64.92303
923.58        64.63174
923.98        64.27114
924.37        63.99446
924.77        63.87078
925.16        63.81472
925.55        63.81644
925.95        63.84635
926.34        63.89087
926.74         63.9366
927.13        63.91291
927.52        63.63561
927.92        63.13863
928.31        62.49019
928.70        61.84869
929.10          61.426
929.49        61.26336
929.89        61.24253
930.28        61.43114
930.67        61.83213
931.07        62.37171
931.46        63.11248
931.85        63.71705
932.24         63.6842
932.64        62.99129
933.03        61.77069
933.42        60.58461
933.82         60.2603
934.21        60.95561
934.60        62.46854
934.99        64.24389
935.39         65.2658
935.78        65.25674
936.17        64.41618
936.56        63.25036
936.96         62.5612
937.35        62.56758
937.74        63.03545
938.13        63.56131
938.53        63.53577
938.92        62.85189
939.31        61.78949
939.70        60.75738
940.09          60.314
940.49        60.54692
940.88        61.27245
941.27        62.24186
941.66        62.99767
942.05        63.36122
942.44        63.49538
942.84         63.4446
943.23        63.27019
943.62        63.04167
944.01        62.68382
944.40         62.4076
944.79        62.59368
945.18        63.26979
945.57        64.31776
945.97        65.27553
946.36        65.43376
946.75        64.60811
947.14        63.12229
947.53        61.44001
947.92        60.21483
948.31        59.63906
948.70        59.53106
949.09        59.82301
949.48        60.38637
949.87        61.11239
950.26        62.02739
950.65        62.95034
951.04        63.57151
951.43        63.79163
951.82        63.62227
952.21         63.2096
952.60        62.84504
952.99        62.64078
953.38        62.57074
953.77        62.55397
954.16        62.44815
954.55         62.2189
954.94        61.89638
955.33        61.65473
955.72        61.76926
956.11        62.28937
956.50        63.14711
956.89        63.95019
957.28        64.05555
957.66        63.32399
958.05        61.97832
958.44         60.5872
958.83        59.97768
959.22        60.29374
959.61        61.31447
960.00        62.47696
960.39        62.74419
960.78         61.8607
961.16        60.21864
961.55        58.50517
961.94        57.60897
962.33        57.75072
962.72        58.69051
963.11          60.068
963.49        61.19978
963.88        61.69724
964.27        61.70741
964.66        61.53793
965.04        61.69542
965.43        62.23994
965.82        63.05528
966.21        63.66565
966.60        63.23907
966.98        61.65321
967.37         59.3894
967.76        57.27668
968.15        56.30782
968.53        56.64303
968.92        58.02067
969.31        59.88337
969.69        61.07602
970.08        61.09616
970.47        60.29535
970.86        59.28425
971.24        58.95396
971.63        59.50334
972.02        60.63713
972.40        61.94376
972.79        62.40855
973.17        61.80241
973.56        60.54579
973.95        59.14525
974.33        58.19734
974.72         57.8553
975.11        57.89682
975.49        58.26628
975.88        58.80208
976.26        59.43505
976.65        60.18017
977.04         60.8498
977.42        61.12162
977.81        60.90733
978.19        60.21989
978.58        59.48681
978.96        59.39291
979.35        60.05628
979.74        61.33047
980.12        62.70538
980.51        63.03073
980.89        62.18689
981.28        60.57272
981.66        58.92066
982.05        58.22898
982.43        58.72995
982.82        60.07785
983.20        62.00185
983.59        63.86921
983.97        65.40286
984.35        66.71194
984.74        67.48389
985.12        67.48106
985.51        66.65522
985.89        65.08785
986.28        63.37874
986.66        62.37395
987.04        62.33157
987.43         63.0732
987.81        64.16675
988.20        64.61008
988.58        64.12568
988.96        62.96108
989.35        61.65016
989.73        60.95269
990.12         61.0183
990.50        61.64772
990.88          62.359
991.27        62.35026
991.65        61.44508
992.03        59.95121
992.42        58.53697
992.80        58.07685
993.18        58.76264
993.56        60.37884
993.95        62.24932
994.33        63.24849
994.71        62.91216
995.10        61.69795
995.48        60.33624
995.86        60.00578
996.24        60.96588
996.63        62.69854
997.01        64.86005
997.39         66.3766
997.77        66.73394
998.15        66.38959
998.54        65.33174
998.92        63.39995
999.30        60.90728
999.68        57.99901
1000.06        55.65817
1000.45        55.28356
1000.83        57.18484
1001.21        61.10802
1001.59        66.03106
1001.97        69.31274
1002.35        69.82725
1002.73        68.33167
1003.12        66.02502
1003.50        64.44508
1003.88        64.12107
1004.26        64.39436
1004.64        65.34392
1005.02        67.08356
1005.40         69.3373
1005.78        72.20437
1006.16        74.41649
1006.54        73.92972
1006.92          70.664
1007.30        65.41064
1007.69        60.15214
1008.07        57.57453
1008.45        58.42946
1008.83        62.10033
1009.21        67.38001
1009.59        71.11957
1009.97        71.69254
1010.35         69.9968
1010.73        66.96193
1011.11        63.98364
1011.49        61.68509
1011.86        59.67708
1012.24        58.25742
1012.62        57.86166
1013.00        58.49146
1013.38        60.20774
1013.76        62.60155
1014.14        64.38119
1014.52        64.88214
1014.90         64.2886
1015.28        63.15337
1015.66        62.41781
1016.04        62.29548
1016.41        62.45599
1016.79        62.66419
1017.17        62.58315
1017.55        62.12651
1017.93         61.5809
1018.31        60.95439
1018.69        60.14204
1019.06        59.15492
1019.44        57.90886
1019.82        56.82218
1020.20        56.86771
1020.58        58.20031
1020.95        60.25856
1021.33         62.2239
1021.71         63.0736
1022.09        62.71277
1022.46        61.51574
1022.84        59.60559
1023.22        57.67912
1023.60        56.33781
1023.97        55.30373
1024.35          55.167
1024.73        56.42082
