SpectraSmart Spectrum 2.9.0.0
--------- Device Information -----------
Spectrum Name :  反射率_0
Saving Time :  2024/04/26 22:06:15
Spectro-Module Model Name : SE2030-DUVN
Spectro-Module Serial Number : OS361AC55029948
Wavelength Start : 200
Wavelength End : 1025
Wavelength Unit : Wavelength(nm)
Spectrum Unit : Reflectance(%)
-----------Spectrum Setting ------------
Integration Time : 20ms
Average : 10
Boxcar : 0
Background removal :  enabled
linearity correction :  enabled
SC :  disabled
Intensity correction :  disabled
DWT denoise :  enabled
savitzky-golay :  disabled
FFT :  disabled
Running average :  disabled
Kalman :  disabled
High pass :  disabled
---------------BEGIN--------------------
Wavelength(nm)             Reflectance(%)
200.29               0
200.75        59.46528
201.21        58.92495
201.67        58.76334
202.13        58.20145
202.58         57.0026
203.04        55.51465
203.50        54.66566
203.96         56.6088
204.42        62.50134
204.88        71.97122
205.34        81.46328
205.80        85.00805
206.26        81.52461
206.72        73.24492
207.18        65.10751
207.64        61.27232
208.10        61.81788
208.55        66.65736
209.01        73.38949
209.47        73.19814
209.93        64.42099
210.39        54.53951
210.85        48.22924
211.31        47.01796
211.77        51.07288
212.23        63.35602
212.69        99.40737
213.14        177.4538
213.60        204.9179
214.06        174.1387
214.52        144.1845
214.98        126.1977
215.44        113.6335
215.90        100.3459
216.36        88.63499
216.81        83.58213
217.27        87.13633
217.73        101.7188
218.19         124.211
218.65        132.1102
219.11        117.7064
219.57        96.07449
220.02        81.73578
220.48         81.9472
220.94        95.38925
221.40        123.0256
221.86        163.2011
222.32        187.7652
222.77        173.9782
223.23        141.5294
223.69        111.1898
224.15        94.17204
224.61         87.9393
225.06        86.53933
225.52        87.95648
225.98        90.06888
226.44        92.31264
226.90        95.53248
227.36        98.94025
227.81        100.7716
228.27        100.8339
228.73        99.21857
229.19        97.52183
229.65        97.81525
230.10        100.1059
230.56        103.8668
231.02        107.1344
231.48        106.8776
231.93        102.8502
232.39        96.93938
232.85        91.40276
233.31        89.14201
233.77        90.35581
234.22        93.92597
234.68        98.22765
235.14        100.7546
235.60        100.6985
236.05         98.8158
236.51        95.63364
236.97        92.68581
237.43        90.78718
237.88        89.60542
238.34        88.99907
238.80        89.01986
239.26        89.66649
239.71        91.78293
240.17        94.84828
240.63        97.91793
241.08        100.4215
241.54        101.3196
242.00        102.1726
242.46        106.6954
242.91         117.895
243.37        137.6698
243.83        165.8538
244.28        186.9211
244.74         180.249
245.20        148.2569
245.66        113.2781
246.11         93.4677
246.57        88.43729
247.03        92.16479
247.48        98.33411
247.94        96.82027
248.40        88.22327
248.85        78.59388
249.31        71.09182
249.77        66.37505
250.22        63.53313
250.68        61.07726
251.14        59.40827
251.59        60.33385
252.05        64.31381
252.51        70.48578
252.96        74.90337
253.42        74.55453
253.88        70.30196
254.33        63.67889
254.79        58.78029
255.25        58.83625
255.70        63.35953
256.16        70.91774
256.62        77.64298
257.07        77.84335
257.53        73.04333
257.99        66.79751
258.44        61.93792
258.90        61.02074
259.35        62.84657
259.81        66.30513
260.27        69.67127
260.72        70.85538
261.18        70.04327
261.63        67.95473
262.09        66.01061
262.55        65.11958
263.00        65.16589
263.46        65.84283
263.91        66.32993
264.37        65.98659
264.83        64.75552
265.28        62.99217
265.74        61.43112
266.19        60.60325
266.65        60.65459
267.11        61.23199
267.56        61.96328
268.02         62.2766
268.47        61.99622
268.93        61.35427
269.38        60.48746
269.84        59.68151
270.30        59.00802
270.75        58.34418
271.21        57.75566
271.66          57.279
272.12        56.90758
272.57        56.60881
273.03        56.24208
273.48        55.54268
273.94        54.54263
274.39        53.29155
274.85        52.05398
275.31        51.01101
275.76        50.17921
276.22         49.5606
276.67        49.00877
277.13        48.45366
277.58        47.79429
278.04        47.09157
278.49         46.3466
278.95        45.71395
279.40        45.14126
279.86        44.67868
280.31        44.12971
280.77        43.37174
281.22        42.35841
281.68        41.24747
282.13        40.20243
282.59        39.57015
283.04         39.3259
283.50        39.36933
283.95        39.45611
284.41         39.2312
284.86        38.61213
285.32        37.77154
285.77        36.86082
286.22        36.16475
286.68        35.73968
287.13        35.44353
287.59        35.22263
288.04        34.94354
288.50        34.59525
288.95         34.1978
289.41        33.76353
289.86        33.21852
290.32        32.61369
290.77        31.95133
291.22        31.33829
291.68        30.91907
292.13        30.70483
292.59        30.66866
293.04        30.72943
293.50         30.7822
293.95        30.77788
294.40        30.74197
294.86        30.70669
295.31         30.7141
295.77        30.78337
296.22        30.89082
296.68        31.00747
297.13        31.07409
297.58        31.09451
298.04        31.09871
298.49        31.14883
298.95        31.35541
299.40        31.72583
299.85        32.21914
300.31        32.75238
300.76        33.18883
301.21        33.49198
301.67        33.70457
302.12        33.85357
302.58        34.04325
303.03        34.26901
303.48        34.51639
303.94        34.75526
304.39        34.90947
304.84        34.98116
305.30         35.0097
305.75        35.01495
306.20        35.07825
306.66        35.21898
307.11        35.39084
307.57         35.5594
308.02        35.62679
308.47        35.58475
308.93        35.47063
309.38        35.31288
309.83        35.20168
310.29        35.15675
310.74        35.14687
311.19        35.13175
311.65        35.04189
312.10        34.86054
312.55        34.61803
313.00        34.36872
313.46        34.18718
313.91        34.07922
314.36        34.03191
314.82        34.00016
315.27        33.92283
315.72        33.78069
316.18        33.59937
316.63        33.41291
317.08        33.29019
317.53        33.24105
317.99        33.23384
318.44        33.22407
318.89        33.13077
319.35        32.93476
319.80        32.66281
320.25        32.36078
320.70        32.10079
321.16         31.9051
321.61        31.76984
322.06        31.66124
322.51        31.52647
322.97        31.34607
323.42        31.13371
323.87        30.93846
324.32        30.84441
324.78        30.85111
325.23         30.9487
325.68        31.01625
326.13        30.86188
326.59         30.4517
327.04        29.86489
327.49        29.26351
327.94        28.90176
328.39        28.83792
328.85        28.99041
329.30        29.25541
329.75        29.38077
330.20        29.28248
330.66        29.02459
331.11        28.71193
331.56        28.49179
332.01        28.40994
332.46        28.40936
332.92        28.42228
333.37        28.38704
333.82        28.26555
334.27        28.10137
334.72        27.92994
335.17        27.79787
335.63         27.7225
336.08        27.70055
336.53        27.72716
336.98        27.80862
337.43        27.93319
337.88        28.08492
338.34        28.23322
338.79         28.3552
339.24        28.42472
339.69        28.45175
340.14        28.41268
340.59        28.27768
341.05        28.06748
341.50        27.79793
341.95        27.55826
342.40        27.48158
342.85        27.59031
343.30        27.84188
343.75        28.13953
344.20        28.32108
344.66         28.3413
345.11        28.24185
345.56        28.08168
346.01        27.95997
346.46        27.91236
346.91        27.91132
347.36        27.93508
347.81        27.95397
348.26         27.9572
348.72        27.95738
349.17        27.96534
349.62        28.00657
350.07        28.07989
350.52        28.17261
350.97        28.23901
351.42        28.20989
351.87        28.07855
352.32        27.87526
352.77        27.66455
353.22        27.53971
353.67        27.52004
354.13        27.57634
354.58        27.66345
355.03        27.70646
355.48        27.67855
355.93        27.60037
356.38        27.49241
356.83        27.38589
357.28        27.28755
357.73        27.18008
358.18        27.05487
358.63        26.90379
359.08        26.72949
359.53        26.54716
359.98        26.35949
360.43        26.16275
360.88        25.95961
361.33        25.75129
361.78         25.5592
362.23        25.41882
362.68        25.33488
363.13        25.29512
363.58        25.26185
364.03        25.17574
364.48        25.02109
364.93        24.81078
365.38        24.58107
365.83        24.39429
366.28        24.26856
366.73        24.18882
367.18        24.11834
367.63        23.99895
368.08         23.8186
368.53        23.59652
368.98        23.37608
369.43         23.2235
369.88         23.1527
370.33        23.14338
370.78        23.14546
371.23         23.0774
371.68        22.92017
372.13        22.69925
372.58        22.46901
373.03         22.3166
373.48        22.25878
373.93        22.26006
374.38        22.27119
374.83        22.21536
375.28        22.07248
375.72        21.86953
376.17         21.6438
376.62        21.42014
377.07        21.21793
377.52        21.03438
377.97        20.88927
378.42         20.8184
378.87        20.82071
379.32        20.87274
379.77        20.94885
380.22        21.01012
380.67        21.03865
381.11        21.04879
381.56        20.99693
382.01         20.8411
382.46        20.59143
382.91        20.27528
383.36        19.97595
383.81        19.80527
384.26        19.77786
384.71        19.86357
385.15         19.9871
385.60        20.02125
386.05        19.92994
386.50        19.74945
386.95         19.5443
387.40        19.41536
387.85        19.38509
388.29        19.40591
388.74        19.44534
389.19        19.41585
389.64         19.3017
390.09        19.12516
390.54        18.93853
390.98        18.82168
391.43        18.80305
391.88        18.85105
392.33        18.90075
392.78        18.85985
393.23        18.71849
393.67        18.50621
394.12        18.30669
394.57        18.20386
395.02        18.21357
395.47         18.2974
395.91        18.40924
396.36         18.4605
396.81        18.43509
397.26        18.36618
397.71        18.27211
398.15        18.18956
398.60        18.15417
399.05         18.0784
399.50        17.99248
399.95        18.07652
400.39        18.27239
400.84        18.24714
401.29        18.01926
401.74        17.90338
402.18        17.91797
402.63        17.87506
403.08        17.77701
403.53        17.70909
403.97         17.6757
404.42        17.65983
404.87         17.6485
405.32         17.6176
405.76        17.56066
406.21         17.4935
406.66        17.43959
407.11        17.43846
407.55        17.50018
408.00        17.60181
408.45        17.70757
408.90        17.74535
409.34        17.69466
409.79        17.58231
410.24        17.44942
410.68        17.34904
411.13        17.30006
411.58        17.28537
412.03        17.28767
412.47        17.27904
412.92        17.24577
413.37        17.20663
413.81        17.16934
414.26         17.1577
414.71        17.16984
415.15        17.20077
415.60        17.23773
416.05        17.27566
416.49        17.31039
416.94        17.33994
417.39        17.36012
417.83        17.36419
418.28        17.34965
418.73        17.31304
419.17        17.26778
419.62        17.23643
420.07        17.22531
420.51        17.22974
420.96        17.22935
421.41        17.18782
421.85        17.09659
422.30        16.96324
422.74        16.82352
423.19        16.80535
423.64        16.89132
424.08        16.96002
424.53        16.97183
424.98         16.9921
425.42        17.02048
425.87        16.96238
426.31         16.8568
426.76        16.88935
427.21        17.02461
427.65         17.0037
428.10        16.86394
428.54        16.84161
428.99        16.95008
429.44        17.11838
429.88        17.27021
430.33        17.21885
430.77        17.01129
431.22        16.97981
431.66        17.13025
432.11        17.17971
432.56        17.13229
433.00        17.21769
433.45        17.34358
433.89        17.22223
434.34        16.96862
434.78        16.51934
435.23        16.83381
435.67         16.8591
436.12        16.83767
436.57        16.80457
437.01         16.7733
437.46        16.77453
437.90        16.79818
438.35        16.78629
438.79         16.7417
439.24        16.72682
439.68        16.74404
440.13        16.77352
440.57        16.79618
441.02         16.7946
441.46        16.76356
441.91        16.68718
442.35        16.58856
442.80        16.62631
443.24        16.75146
443.69        16.75204
444.13        16.64171
444.58        16.63652
445.02        16.73769
445.47        16.82288
445.91        16.87445
446.36         16.9276
446.80        16.97251
447.24        16.99919
447.69        17.00513
448.13        16.98065
448.58        16.93237
449.02        16.86467
449.47        16.79681
449.91        16.74927
450.36        16.73311
450.80        16.74027
451.25        16.76534
451.69        16.78744
452.13        16.80186
452.58        16.80937
453.02        16.81163
453.47        16.81447
453.91        16.81862
454.36        16.82443
454.80        16.81935
455.24        16.78391
455.69        16.72289
456.13        16.63321
456.58        16.55712
457.02        16.53031
457.46         16.5652
457.91        16.64803
458.35        16.72786
458.79        16.72786
459.24        16.65014
459.68        16.51274
460.13         16.3855
460.57        16.33099
461.01        16.37514
461.46        16.47769
461.90        16.61377
462.34        16.72751
462.79        16.79064
463.23        16.82597
463.68        16.81408
464.12        16.73631
464.56        16.59971
465.01        16.43678
465.45        16.27443
465.89        16.19365
466.34        16.20344
466.78        16.28007
467.22        16.39167
467.67        16.46288
468.11        16.47954
468.55        16.45416
468.99        16.41295
469.44        16.39759
469.88         16.4206
470.32        16.46416
470.77        16.51267
471.21        16.54706
471.65        16.55818
472.10        16.55609
472.54        16.54313
472.98        16.52743
473.42         16.5133
473.87         16.5054
474.31        16.49277
474.75        16.47527
475.20        16.45819
475.64        16.43685
476.08        16.42727
476.52         16.4444
476.97        16.48882
477.41        16.56167
477.85        16.64693
478.29        16.69341
478.74        16.70668
479.18        16.73994
479.62        16.79045
480.06        16.82718
480.50        16.85489
480.95        16.86857
481.39        16.86086
481.83        16.99117
482.27        17.00347
482.72        17.08362
483.16        17.15788
483.60        17.19285
484.04        17.17822
484.48        17.25343
484.93        17.39912
485.37        17.26761
485.81        17.40234
486.25        17.59252
486.69        16.58299
487.14        17.48697
487.58        18.50372
488.02        18.37246
488.46        17.72817
488.90        17.75477
489.34        17.86744
489.79        18.12514
490.23        18.12955
490.67         18.3018
491.11        18.54097
491.55        18.50219
491.99         18.2685
492.43         18.2244
492.88        18.40679
493.32        18.60555
493.76        18.76747
494.20        18.91188
494.64        19.02898
495.08        19.07963
495.52        19.09574
495.96        19.25375
496.41         19.5238
496.85        19.59164
497.29        19.48577
497.73        19.71061
498.17        19.97274
498.61         20.1496
499.05         20.1363
499.49        20.14273
499.93        20.13879
500.37        20.22435
500.82         20.3714
501.26        20.48105
501.70        20.54283
502.14        20.63063
502.58        20.74663
503.02        20.84934
503.46        20.93526
503.90        21.01756
504.34        21.08669
504.78        21.12706
505.22        21.13979
505.66        21.12926
506.10        21.12216
506.54         21.1623
506.98        21.25657
507.42        21.39006
507.86        21.53304
508.30        21.63481
508.74        21.68225
509.18        21.69352
509.62        21.68488
510.06        21.68419
510.50        21.70219
510.94        21.72657
511.38        21.76657
511.82        21.83728
512.26        21.93629
512.70        22.06169
513.14        22.17831
513.58        22.22765
514.02            22.2
514.46        22.11201
514.90        22.01271
515.34        21.98289
515.78        22.04093
516.22        22.16175
516.66        22.29912
517.10        22.37793
517.54        22.37807
517.98        22.32396
518.42        22.24749
518.86        22.19913
519.30         22.1939
519.74        22.21413
520.18        22.24358
520.62        22.25802
521.06        22.25093
521.50        22.23436
521.93        22.21636
522.37        22.19985
522.81        22.18997
523.25         22.1794
523.69         22.1702
524.13        22.16807
524.57        22.16966
525.01        22.17061
525.45        22.15602
525.89        22.10203
526.32        22.00451
526.76        21.88118
527.20        21.74881
527.64        21.63452
528.08        21.54956
528.52        21.48975
528.96        21.45613
529.40        21.44847
529.83        21.46181
530.27        21.49422
530.71        21.53255
531.15        21.55819
531.59        21.56348
532.03        21.54765
532.46        21.50961
532.90        21.46597
533.34        21.41832
533.78        21.35493
534.22        21.27845
534.66        21.21798
535.09        21.16261
535.53        21.06707
535.97        20.95004
536.41        20.89421
536.85        20.90547
537.28         20.9381
537.72        20.98429
538.16        21.04628
538.60        21.11438
539.04        21.18732
539.47        21.23966
539.91        21.24704
540.35        21.20618
540.79        21.13011
541.22        21.05854
541.66        21.06239
542.10        21.15322
542.54        21.30949
542.97        21.49029
543.41         21.6387
543.85         21.7352
544.29        21.80046
544.72        21.84929
545.16         21.9199
545.60        22.01961
546.04        22.13925
546.47        22.27927
546.91        22.43771
547.35        22.60687
547.79        22.78631
548.22        22.96423
548.66        23.11632
549.10         23.2661
549.53        23.40991
549.97        23.55039
550.41        23.63923
550.84        23.70454
551.28        23.81207
551.72        23.95416
552.15        24.13764
552.59        24.38846
553.03        24.34186
553.46        24.71033
553.90        24.82795
554.34        24.90266
554.77        24.94429
555.21        24.98131
555.65        25.03813
556.08        25.11481
556.52        25.19412
556.96         25.2623
557.39        25.36635
557.83        25.48358
558.27        25.47194
558.70        25.37234
559.14        25.40197
559.57        25.55493
560.01        25.69267
560.45        25.78762
560.88           25.88
561.32        25.97602
561.75        26.03839
562.19        26.08608
562.63        26.14395
563.06        26.21347
563.50        26.29124
563.93        26.35273
564.37        26.42761
564.80        26.52435
565.24        26.57423
565.68        26.52718
566.11        26.88115
566.55        26.67281
566.98         26.7053
567.42         26.7437
567.85        26.84059
568.29         27.0072
568.72        27.24327
569.16        27.54433
569.60        27.72913
570.03        27.88032
570.47          28.041
570.90        28.26069
571.34        28.18094
571.77        28.39236
572.21        28.66737
572.64         28.6686
573.08        28.87016
573.51         29.1183
573.95        29.13174
574.38        29.00941
574.82        29.21129
575.25        29.03924
575.69        29.24987
576.12        29.54323
576.56        29.54255
576.99        29.34875
577.42        29.16176
577.86        29.51473
578.29        29.73846
578.73        29.53057
579.16         29.4877
579.60        29.43892
580.03         29.4944
580.47        29.19403
580.90        29.54835
581.33        29.28385
581.77        29.28164
582.20        28.65245
582.64        28.78141
583.07        28.95739
583.51        29.01737
583.94         28.8505
584.37        28.62262
584.81        28.42184
585.24        28.25612
585.68        28.20612
586.11         28.0014
586.54        28.16479
586.98        27.96259
587.41        27.91096
587.85        27.73071
588.28        27.57628
588.71        27.62533
589.15        27.62963
589.58        27.52864
590.01        27.77325
590.45        27.75804
590.88        27.93869
591.31        27.78289
591.75        27.52898
592.18        27.29139
592.61        27.05323
593.05        27.82928
593.48        27.70022
593.91         27.5581
594.35        27.84042
594.78        27.70591
595.21        27.78708
595.65        27.92857
596.08        28.29178
596.51        28.49116
596.94         28.4272
597.38        28.56758
597.81        28.88998
598.24        29.21244
598.68        29.33608
599.11        29.71161
599.54        29.96526
599.97        29.86698
600.41        30.43227
600.84        30.39289
601.27        30.85454
601.70        31.20912
602.14        31.61977
602.57        31.96014
603.00        32.31055
603.43        32.27802
603.87        33.09518
604.30        33.48006
604.73         33.8824
605.16        33.79927
605.60        34.49924
606.03        34.67884
606.46        34.73542
606.89        35.20532
607.32        35.87355
607.76        36.38364
608.19        36.62175
608.62          36.888
609.05        37.26714
609.48        37.54846
609.92        38.20156
610.35        38.60235
610.78        38.33868
611.21        38.79513
611.64         39.0926
612.07        39.58133
612.50        39.79638
612.94         40.0829
613.37        40.36504
613.80        40.46155
614.23        40.50049
614.66        40.59264
615.09        41.29686
615.52        41.70966
615.96        41.92742
616.39        42.22871
616.82        42.63304
617.25        42.56664
617.68        42.76327
618.11         42.9511
618.54          43.326
618.97        43.63343
619.40        43.83368
619.84        44.12938
620.27        44.11871
620.70        44.34072
621.13        44.61642
621.56        44.52002
621.99        44.13261
622.42        44.11026
622.85        44.47611
623.28        44.46057
623.71        44.52228
624.14        44.64307
624.57        44.92152
625.00        44.90014
625.43        44.96142
625.86        44.79702
626.29        44.54976
626.72        44.52907
627.15        44.37008
627.58        44.33816
628.01        44.24996
628.44        44.12234
628.87        43.95891
629.30         43.4456
629.73        43.15772
630.16        42.98568
630.59        42.71459
631.02        42.61207
631.45        42.50579
631.88        42.30411
632.31        41.97162
632.74        41.54661
633.17        41.07481
633.60        40.62202
634.03        40.21383
634.46        39.82784
634.89        39.44518
635.32        39.04495
635.75         38.6231
636.18        38.15383
636.61        37.66807
637.04        37.23115
637.47        36.85151
637.89        36.50483
638.32          36.161
638.75        35.81099
639.18        35.45398
639.61         35.1008
640.04        34.77038
640.47        34.48626
640.90        34.25207
641.33        34.06099
641.76        33.89651
642.18        33.73806
642.61        33.57032
643.04        33.40255
643.47        33.25502
643.90        33.15931
644.33        33.12134
644.76        33.13461
645.18        33.17011
645.61        33.17166
646.04        33.13578
646.47        33.08504
646.90        33.06955
647.33        33.16066
647.75        33.36108
648.18         33.6825
648.61        34.09338
649.04         34.4052
649.47        34.56556
649.89        35.16473
650.32        35.28836
650.75        35.61245
651.18        35.90298
651.61        36.37729
652.03        37.01762
652.46        37.52658
652.89        37.89078
653.32        38.37164
653.74        38.97778
654.17        39.08018
654.60        39.71231
655.03        39.88161
655.46        39.48898
655.88        39.91203
656.31        41.19746
656.74        39.84547
657.16        43.86745
657.59        48.73026
658.02        44.82739
658.45        44.26886
658.87        43.96924
659.30        44.40116
659.73        44.52861
660.15        45.95548
660.58        45.18785
661.01        45.41424
661.44        45.77884
661.86        45.98988
662.29        46.03495
662.72        46.65252
663.14        46.92242
663.57        47.14575
664.00        47.14041
664.42        47.36752
664.85        47.85592
665.27        48.37223
665.70        48.79557
666.13        49.07808
666.55        49.19577
666.98        49.11652
667.41        48.92996
667.83        49.10127
668.26        49.16106
668.69        49.47549
669.11        49.83957
669.54        50.16488
669.96         50.4241
670.39        50.64872
670.82        50.84629
671.24        51.02269
671.67        51.18558
672.09        51.25618
672.52        51.29641
672.94        51.51541
673.37        51.86253
673.80         52.0025
674.22        51.95793
674.65        52.01411
675.07          52.196
675.50        52.32108
675.92        52.38525
676.35        52.44587
676.77        52.48785
677.20        52.56316
677.62        52.71969
678.05        52.80003
678.47        52.75723
678.90        53.51798
679.32         53.4376
679.75        53.71806
680.17        53.85502
680.60        53.97189
681.02        54.10995
681.45        54.03466
681.87        54.30303
682.30        54.47527
682.72        54.68867
683.15        54.82886
683.57        54.91427
684.00        55.02896
684.42        55.18684
684.85        55.35844
685.27        55.53531
685.70        55.74858
686.12        55.95216
686.54          56.071
686.97        56.09254
687.39        56.05156
687.82        55.97925
688.24        55.94616
688.66        55.97414
689.09        56.03542
689.51        56.14184
689.94        56.30801
690.36        56.50489
690.78        56.69788
691.21        56.76868
691.63        56.94779
692.06        57.19666
692.48         57.4576
692.90        57.66473
693.33        57.74977
693.75        57.70271
694.17        57.52763
694.60        57.34861
695.02        57.36687
695.44         57.6032
695.87        58.01967
696.29        58.48523
696.71         58.5927
697.14        58.39382
697.56        58.38324
697.98        58.60538
698.41        58.75006
698.83          58.818
699.25        59.04598
699.68        59.34962
700.10        59.52349
700.52         59.5195
700.94        59.41525
701.37          59.299
701.79        59.31738
702.21        59.49945
702.64        59.78243
703.06        60.10309
703.48        60.34322
703.90        60.46565
704.33        60.51064
704.75        60.50628
705.17          60.489
705.59        60.48707
706.01        60.49052
706.44        60.52871
706.86        60.67418
707.28        60.92093
707.70        61.22412
708.12        61.54195
708.55        61.84415
708.97        62.08635
709.39        62.16857
709.81        62.11744
710.23        62.10172
710.66        62.14521
711.08        62.17905
711.50        62.17635
711.92        62.14862
712.34        62.10129
712.76        62.04911
713.19        62.01434
713.61        62.06285
714.03        62.19234
714.45        62.38798
714.87        62.62848
715.29        62.88374
715.71        63.13311
716.13        63.36877
716.56        63.57305
716.98        63.76112
717.40        63.87449
717.82        64.02383
718.24        64.20647
718.66        63.90847
719.08        63.67797
719.50        63.73397
719.92        63.25131
720.34        63.20385
720.76        63.30522
721.19        63.52261
721.61        63.82503
722.03         64.1452
722.45        64.44418
722.87        64.71347
723.29        64.91325
723.71        64.96561
724.13        64.86411
724.55        64.66792
724.97        64.45392
725.39        64.18938
725.81        64.19589
726.23        64.20754
726.65        64.28632
727.07        64.52978
727.49        64.68667
727.91        64.94249
728.33        65.20375
728.75        65.44066
729.17        65.63079
729.59        65.77032
730.01        65.84969
730.43        65.86079
730.85         65.8105
731.27        65.70377
731.69        65.58287
732.10        65.51208
732.52        65.50677
732.94        65.57124
733.36        65.68901
733.78        65.69363
734.20        65.55613
734.62         65.5637
735.04        65.82825
735.46        65.29975
735.88        65.92424
736.30        66.09631
736.72         66.3717
737.13        66.62324
737.55        66.77099
737.97        67.07178
738.39        67.37857
738.81        66.98765
739.23        66.16119
739.65        66.15015
740.06        66.83751
740.48        67.25517
740.90        67.39164
741.32        66.98391
741.74        67.70031
742.16        67.85632
742.57        67.92525
742.99         67.9425
743.41        67.91701
743.83        67.81116
744.25        67.62699
744.67         67.3869
745.08        67.17901
745.50        67.12953
745.92        67.26366
746.34         67.5273
746.75        67.83498
747.17        67.99598
747.59        67.97055
748.01        67.92707
748.42        67.87815
748.84        67.62849
749.26        67.33682
749.68        67.43766
750.09        67.87967
750.51        68.33998
750.93        68.62887
751.35         68.5034
751.76        68.07307
752.18        67.76384
752.60        67.81499
753.01        67.77957
753.43        67.70951
753.85        67.59973
754.27        67.42001
754.68        67.89145
755.10         67.7356
755.52        67.85963
755.93        67.89797
756.35        68.00549
756.77        68.21609
757.18        68.39825
757.60        68.55242
758.02        68.91164
758.43         69.3864
758.85        69.00153
759.26         69.1781
759.68        68.67308
760.10        68.08056
760.51        68.27419
760.93        69.27888
761.34        68.82157
761.76         69.6702
762.18        69.58701
762.59        69.51421
763.01        69.50488
763.42        69.63731
763.84        69.65186
764.26        69.51664
764.67        69.27979
765.09        69.07764
765.50        69.01212
765.92        69.08996
766.33         69.2876
766.75        69.45128
767.16        69.17076
767.58        68.58911
768.00        68.68189
768.41        69.41675
768.83        69.87111
769.24        69.85679
769.66        69.73802
770.07         69.5815
770.49        69.12682
770.90        68.68171
771.32        69.30938
771.73        70.70847
772.15        71.30654
772.56        70.97586
772.97        70.43211
773.39        69.95052
773.80        69.88056
774.22        70.19416
774.63        70.37101
775.05        70.29481
775.46         70.3501
775.88        70.48463
776.29        70.45409
776.70        70.31957
777.12        70.35145
777.53         70.5864
777.95        70.89235
778.36        71.18296
778.77        71.28257
779.19        71.17321
779.60        70.94536
780.02        70.66611
780.43        70.51259
780.84        70.55469
781.26        70.46072
781.67        70.33942
782.09        70.97127
782.50        72.04762
782.91         72.0902
783.33        71.20564
783.74        70.89931
784.15        71.24749
784.57        71.38042
784.98        71.28496
785.39        71.32465
785.81        71.50285
786.22        71.74287
786.63        71.98434
787.04        72.12652
787.46        72.15511
787.87        72.06812
788.28        71.97832
788.70        71.99483
789.11        72.11427
789.52        72.45992
789.93         72.8581
790.35        72.73157
790.76        72.15584
791.17        71.82681
791.58        71.87627
792.00        71.80067
792.41        71.61943
792.82        72.04746
793.23        72.80141
793.65        72.35896
794.06        71.10801
794.47        71.17458
794.88        72.34629
795.29        73.20988
795.71        72.48587
796.12        72.54813
796.53        73.05175
796.94         72.8105
797.35        72.04695
797.76        72.36751
798.18        73.57465
798.59        74.02708
799.00        73.58147
799.41        73.12788
799.82        72.86082
800.23        72.70631
800.64        72.72912
801.06         72.9118
801.47         73.1817
801.88        73.32079
802.29        73.26498
802.70        73.06094
803.11        72.80038
803.52        72.64224
803.93        72.65662
804.34        72.80572
804.75        73.01983
805.17        73.28618
805.58        73.63038
805.99        73.69279
806.40        73.58407
806.81        74.32519
807.22        75.53459
807.63        75.25199
808.04        73.73022
808.45        73.06981
808.86        73.43884
809.27         73.7153
809.68        73.71474
810.09        73.66792
810.50          73.529
810.91        73.23579
811.32        72.98397
811.73        73.07062
812.14        73.53899
812.55        74.34399
812.96        75.19395
813.37        75.43361
813.78        74.97003
814.19        74.24257
814.60        73.50887
815.01        72.92497
815.42         72.5835
815.83        72.49917
816.24        72.64141
816.65        72.87732
817.05        73.15384
817.46        73.49227
817.87        73.83066
818.28        74.01474
818.69        74.02046
819.10        73.84682
819.51        73.63616
819.92        73.66964
820.33        74.00632
820.74         74.5558
821.14        75.11834
821.55        75.36514
821.96        75.22201
822.37        74.79378
822.78        74.25395
823.19        73.89571
823.60        73.81948
824.00        73.97232
824.41        74.20364
824.82        74.36962
825.23        74.40372
825.64        74.36038
826.04        74.30036
826.45        74.27004
826.86        74.30538
827.27        74.38839
827.68        74.47112
828.08        74.51163
828.49        74.44489
828.90        74.30293
829.31        74.18732
829.72        74.26238
830.12        74.58018
830.53        75.03322
830.94        75.45091
831.35        75.49241
831.75        75.10391
832.16        74.37987
832.57        73.59305
832.97        73.14882
833.38        73.15607
833.79        73.47521
834.20         73.9597
834.60        74.37304
835.01        74.63359
835.42        74.85217
835.82        75.02724
836.23        75.06663
836.64        75.00347
837.04         74.8095
837.45        74.66121
837.86        74.92811
838.26        75.68538
838.67         76.7825
839.08         77.8439
839.48        78.14762
839.89        77.51509
840.29        76.21111
840.70        74.82381
841.11        74.00716
841.51         73.9359
841.92        74.39729
842.33         75.1578
842.73        75.80071
843.14        76.05072
843.54        76.08411
843.95        76.01036
844.35        76.06091
844.76        76.27312
845.17        76.55585
845.57        76.78845
845.98        76.76199
846.38        76.46627
846.79          75.979
847.19        75.48071
847.60        75.22591
848.00         75.2869
848.41        75.54931
848.81        75.90411
849.22        76.07721
849.62        76.03201
850.03        75.84129
850.43        75.57916
850.84         75.2859
851.24        75.05404
851.65        74.80186
852.05        74.70322
852.46        74.93814
852.86        75.50273
853.27        76.29147
853.67        77.00348
854.07        77.35673
854.48        77.26792
854.88        76.85819
855.29        76.18887
855.69        75.53977
856.10          74.967
856.50         74.5036
856.90         74.1692
857.31         74.0088
857.71         74.0732
858.12        74.28969
858.52        74.62421
858.92        74.87467
859.33        74.95039
859.73         74.9308
860.13        74.76259
860.54        74.40387
860.94        73.93098
861.34        73.35616
861.75        72.83256
862.15        72.65881
862.55        72.87299
862.96        73.35464
863.36        73.99376
863.76        74.48928
864.17        74.71322
864.57        74.76718
864.97         74.6078
865.38        74.19063
865.78        73.58099
866.18        72.78881
866.58        72.03121
866.99        71.70154
867.39        71.92271
867.79        72.57641
868.19        73.41405
868.60         74.0146
869.00        74.28619
869.40         74.2989
869.80         74.1525
870.21        74.05312
870.61        74.13726
871.01        74.27687
871.41        74.34804
871.81        74.18411
872.22        73.75964
872.62        73.14671
873.02        72.53646
873.42        72.23593
873.82          72.318
874.22        72.67363
874.63        73.08388
875.03        73.21767
875.43        72.97836
875.83        72.48964
876.23        71.90329
876.63        71.44789
877.03        71.20808
877.44        71.09464
877.84        71.11278
878.24        71.27629
878.64        71.51074
879.04        71.67326
879.44        71.79195
879.84        71.99909
880.24        72.27348
880.64        72.54171
881.04        72.62385
881.44         72.2663
881.84        71.46262
882.24        70.33633
882.65        69.23443
883.05        68.68017
883.45        68.80161
883.85          69.465
884.25        70.38494
884.65        71.05317
885.05        71.29814
885.45        71.24849
885.85        71.08208
886.25        71.08186
886.65        71.32697
887.05        71.71608
887.45        72.11916
887.85        72.34274
888.25        72.32686
888.65        72.12984
889.04        71.88759
889.44        71.83207
889.84        71.98976
890.24        72.28923
890.64        72.54075
891.04        72.44178
891.44        71.95126
891.84        71.20872
892.24         70.4494
892.64        70.00799
893.04        69.97332
893.44        70.25953
893.83        70.75095
894.23        71.19066
894.63        71.51144
895.03        71.75878
895.43        71.99678
895.83        72.34164
896.23        72.78593
896.63        73.22115
897.02        73.52451
897.42        73.55067
897.82        73.27517
898.22         72.8141
898.62        72.21693
899.01        71.53094
899.41        70.84264
899.81        70.14561
900.21        69.63106
900.61        69.60259
901.00        70.08276
901.40        70.95203
901.80        71.88738
902.20         72.3569
902.59        72.24135
902.99         71.6937
903.39        70.95006
903.79         70.4147
904.18        70.21531
904.58        70.22241
904.98        70.41843
905.38        70.78751
905.77         71.2861
906.17        71.95901
906.57        72.58492
906.96        72.78144
907.36         72.4621
907.76        71.72562
908.15        70.96442
908.55        70.79856
908.95        71.36429
909.34         72.4904
909.74        73.69049
910.14        74.24226
910.53         73.9319
910.93        73.02147
911.33        71.87418
911.72        71.03648
912.12        70.73444
912.52        70.79276
912.91        71.03684
913.31        71.23177
913.70        71.30206
914.10         71.3054
914.49        71.38518
914.89        71.67048
915.29        72.19815
915.68        72.89309
916.08        73.49406
916.47        73.66727
916.87        73.36057
917.26        72.67193
917.66        71.94205
918.05        71.53154
918.45        71.53927
918.84        71.90903
919.24        72.39553
919.64        72.70492
920.03         72.7524
920.42        72.58761
920.82        72.42516
921.21        72.54517
921.61        72.97337
922.00        73.63177
922.40        74.23866
922.79        74.46961
923.19        74.20683
923.58        73.61691
923.98        72.91219
924.37        72.32249
924.77        71.94508
925.16        71.66398
925.55        71.52107
925.95        71.56177
926.34        71.78362
926.74        72.17308
927.13        72.49987
927.52         72.3197
927.92         71.6333
928.31        70.57177
928.70        69.54651
929.10        69.17037
929.49        69.54657
929.89        70.41473
930.28        71.54906
930.67        72.42018
931.07        72.80127
931.46        72.94716
931.85        72.75237
932.24        72.11481
932.64        71.16156
933.03        69.88969
933.42        68.85529
933.82         68.8763
934.21        70.06482
934.60        72.25179
934.99        74.67941
935.39        75.94091
935.78         75.6773
936.17        74.16827
936.56         72.2254
936.96         71.1702
937.35         71.3357
937.74        72.31226
938.13        73.44393
938.53        73.70349
938.92        72.86752
939.31        71.39393
939.70        69.80167
940.09        68.78426
940.49        68.50674
940.88        68.75688
941.27        69.39837
941.66        70.18783
942.05        70.97305
942.44        71.82977
942.84        72.63049
943.23        73.15632
943.62        73.37169
944.01        73.25038
944.40        72.98442
944.79        72.95216
945.18        73.21913
945.57        73.67088
945.97        74.00743
946.36        73.81905
946.75        72.99976
947.14        71.81596
947.53        70.55818
947.92        69.59968
948.31        69.06698
948.70        68.85215
949.09        68.98367
949.48        69.50995
949.87        70.35835
950.26        71.45737
950.65        72.55222
951.04        73.22234
951.43        73.33852
951.82        72.99603
952.21        72.31919
952.60        71.55343
952.99        70.85194
953.38         70.2115
953.77        69.76987
954.16        69.72501
954.55        70.09138
954.94        70.80618
955.33        71.70941
955.72        72.48186
956.11        72.97608
956.50        73.23734
956.89        73.19751
957.28        72.79968
957.66        72.08062
958.05        71.11655
958.44        70.17281
958.83        69.62595
959.22         69.5435
959.61        69.86346
960.00        70.34664
960.39        70.52904
960.78        70.27497
961.16        69.70373
961.55        69.12063
961.94        68.89728
962.33        69.13021
962.72        69.73718
963.11        70.47556
963.49        70.92005
963.88        70.83878
964.27        70.35019
964.66        69.84449
965.04        69.93255
965.43        70.67539
965.82        71.96729
966.21        73.22034
966.60        73.32298
966.98        71.99808
967.37        69.73416
967.76        67.45099
968.15        66.29108
968.53        66.45269
968.92        67.64796
969.31        69.21391
969.69        69.84238
970.08        69.05608
970.47        67.33399
970.86        65.57298
971.24         65.0099
971.63        65.90215
972.02        67.90532
972.40        70.32349
972.79         71.4901
973.17         70.9403
973.56        69.24332
973.95         67.3094
974.33        66.32347
974.72        66.54807
975.11        67.59063
975.49        69.02227
975.88        69.94695
976.26        70.07097
976.65         69.6356
977.04        68.93642
977.42        68.36596
977.81        68.04566
978.19        67.84998
978.58        67.81511
978.96         67.9905
979.35        68.32598
979.74        68.82424
980.12        69.48908
980.51        70.04768
980.89        70.51219
981.28         70.8883
981.66        71.10868
982.05        71.07866
982.43        70.83206
982.82         70.3535
983.20        70.02865
983.59        70.44924
983.97        71.83208
984.35        73.97165
984.74        76.12991
985.12        77.28702
985.51        77.08885
985.89        75.86827
986.28        74.34432
986.66        73.53592
987.04        73.77851
987.43        74.74007
987.81        76.02576
988.20        76.71775
988.58        76.52905
988.96         75.6725
989.35        74.54931
989.73        73.68493
990.12        73.19946
990.50        72.97089
990.88        72.67305
991.27        71.81497
991.65        70.37484
992.03        68.61998
992.42         67.1258
992.80        66.58141
993.18        67.13976
993.56        68.64235
993.95        70.48572
994.33        71.70797
994.71        71.82568
995.10         71.1515
995.48        70.29607
995.86        70.31557
996.24        71.44364
996.63        73.22709
997.01        75.23621
997.39        76.21057
997.77        75.68362
998.15        74.20663
998.54        72.24356
998.92         70.2968
999.30        68.70338
999.68        67.33801
1000.06        66.58652
1000.45         66.9556
1000.83        68.56783
1001.21         71.4106
1001.59        74.80486
1001.97        76.97485
1002.35        77.20659
1002.73        75.94546
1003.12        74.23388
1003.50        73.39579
1003.88        73.84098
1004.26        75.04225
1004.64        76.69392
1005.02        78.09277
1005.40        78.82993
1005.78        79.32651
1006.16        79.12673
1006.54        77.46015
1006.92        74.53232
1007.30        70.72852
1007.69        67.52124
1008.07        66.87568
1008.45        69.33092
1008.83        74.48062
1009.21        81.03084
1009.59        85.55548
1009.97         86.2599
1010.35        83.98584
1010.73        79.90785
1011.11        75.86867
1011.49        72.67428
1011.86         69.9372
1012.24         67.9632
1012.62        67.08482
1013.00        67.24337
1013.38        68.48038
1013.76        70.43569
1014.14        71.95522
1014.52        72.41965
1014.90        71.98848
1015.28        70.96066
1015.66        69.88694
1016.04        68.97446
1016.41        68.07781
1016.79        67.31979
1017.17        67.05425
1017.55        67.32207
1017.93        68.00384
1018.31        68.89227
1018.69        69.65526
1019.06        70.23759
1019.44        70.76767
1019.82        71.01635
1020.20         70.5636
1020.58        69.37733
1020.95        67.51736
1021.33        65.94039
1021.71        65.61524
1022.09        66.67091
1022.46        69.21789
1022.84        72.14157
1023.22        72.77792
1023.60        70.24937
1023.97        65.32037
1024.35        60.77965
1024.73        59.76154
