SpectraSmart Spectrum 2.9.0.0
--------- Device Information -----------
Spectrum Name :  反射率_0
Saving Time :  2024/04/26 21:26:50
Spectro-Module Model Name : SE2030-DUVN
Spectro-Module Serial Number : OS361AC55029948
Wavelength Start : 200
Wavelength End : 1025
Wavelength Unit : Wavelength(nm)
Spectrum Unit : Reflectance(%)
-----------Spectrum Setting ------------
Integration Time : 20ms
Average : 10
Boxcar : 0
Background removal :  enabled
linearity correction :  enabled
SC :  disabled
Intensity correction :  disabled
DWT denoise :  enabled
savitzky-golay :  disabled
FFT :  disabled
Running average :  disabled
Kalman :  disabled
High pass :  disabled
---------------BEGIN--------------------
Wavelength(nm)             Reflectance(%)
200.29               0
200.75        48.64734
201.21         47.0432
201.67        45.58061
202.13        44.41954
202.58        43.43783
203.04        42.88614
203.50        43.31624
203.96        45.67568
204.42        50.32123
204.88        56.93464
205.34        63.41865
205.80        66.38557
206.26        65.09639
206.72        60.66788
207.18        55.79539
207.64         52.6841
208.10        51.35714
208.55        51.69742
209.01        52.55589
209.47        51.53514
209.93        48.71412
210.39        46.30895
210.85        45.65657
211.31        47.75204
211.77         53.7286
212.23        67.65856
212.69        103.7125
213.14        170.5662
213.60        178.5552
214.06        139.7002
214.52        110.0912
214.98        95.03698
215.44        86.64202
215.90          79.504
216.36        73.95348
216.81        71.51341
217.27        73.08652
217.73        80.78773
218.19        93.60084
218.65        100.1612
219.11        95.79589
219.57        87.00156
220.02        82.30093
220.48        88.11514
220.94        104.9731
221.40        135.1313
221.86        178.3826
222.32         208.307
222.77        200.3531
223.23        172.0389
223.69        142.2891
224.15         121.788
224.61        109.6259
225.06        101.2419
225.52        96.90195
225.98         96.5308
226.44        99.32412
226.90         105.174
227.36        111.5694
227.81        113.9419
228.27        111.7747
228.73        106.4591
229.19        101.4685
229.65        100.9523
230.10        104.9758
230.56        112.1243
231.02        119.0955
231.48        120.7146
231.93        116.3058
232.39        108.7418
232.85        101.2952
233.31        98.12457
233.77        99.61356
234.22        104.0836
234.68        109.5831
235.14        113.1245
235.60        113.6875
236.05        112.2972
236.51        109.2107
236.97        105.4492
237.43        101.7818
237.88        97.97948
238.34        94.68141
238.80        93.27044
239.26        94.15054
239.71        98.18414
240.17        104.3977
240.63        109.9211
241.08        112.8831
241.54         112.396
242.00        110.6341
242.46        112.8328
242.91         122.791
243.37         141.781
243.83        170.9317
244.28        198.1873
244.74        203.1055
245.20        184.1727
245.66          157.41
246.11        137.7675
246.57        126.4594
247.03        119.3173
247.48         112.314
247.94        101.4538
248.40        89.64285
248.85        80.13593
249.31        74.34663
249.77        71.92282
250.22        71.86423
250.68        73.39176
251.14         76.3232
251.59        79.41551
252.05        81.49969
252.51         83.1991
252.96        82.88914
253.42        79.80209
253.88         74.8784
254.33        68.86542
254.79        65.37798
255.25        67.27156
255.70        73.90007
256.16        83.83856
256.62         92.8933
257.07        94.58191
257.53        90.36391
257.99        84.15726
258.44        78.98836
258.90         77.7274
259.35        79.16167
259.81        82.24094
260.27        85.39021
260.72        86.73721
261.18        86.44845
261.63        84.99283
262.09        83.62407
262.55        82.95557
263.00        82.86587
263.46        83.24475
263.91        83.35598
264.37        82.78286
264.83        81.47758
265.28        79.70573
265.74        78.19114
266.19        77.37145
266.65        77.39254
267.11        77.89668
267.56         78.5218
268.02        78.71828
268.47        78.30875
268.93        77.53804
269.38         76.4872
269.84        75.37886
270.30        74.28912
270.75        73.12708
271.21         72.0848
271.66        71.36981
272.12        70.99191
272.57        70.82768
273.03        70.60525
273.48        69.83743
273.94         68.5277
274.39        66.82178
274.85        65.06319
275.31        63.49791
275.76        62.18408
276.22        61.12092
276.67        60.24415
277.13         59.6426
277.58        59.18628
278.04        58.87246
278.49        58.50729
278.95         57.9888
279.40        57.20452
279.86        56.31635
280.31        55.25104
280.77        54.10434
281.22        52.86553
281.68        51.64869
282.13        50.54313
282.59        49.82661
283.04        49.44498
283.50        49.34204
283.95        49.29788
284.41         49.0055
284.86        48.37952
285.32        47.55956
285.77        46.66452
286.22        45.95885
286.68        45.48977
287.13        45.12373
287.59        44.78658
288.04        44.29881
288.50        43.66989
288.95        42.93748
289.41        42.20771
289.86        41.52214
290.32         40.9546
290.77        40.45889
291.22        40.05088
291.68        39.73381
292.13        39.48038
292.59        39.30318
293.04        39.19254
293.50         39.1665
293.95        39.19928
294.40        39.27442
294.86         39.3506
295.31        39.35238
295.77        39.28392
296.22        39.17335
296.68        39.06756
297.13        39.01437
297.58        39.04497
298.04        39.14291
298.49        39.33241
298.95        39.67202
299.40        40.13476
299.85        40.68865
300.31        41.22532
300.76        41.56141
301.21        41.66871
301.67        41.61898
302.12        41.48457
302.58        41.45323
303.03        41.54025
303.48        41.71161
303.94        41.93632
304.39        42.12307
304.84         42.2584
305.30        42.37908
305.75        42.45526
306.20        42.50009
306.66        42.52916
307.11        42.51966
307.57        42.49192
308.02        42.42421
308.47        42.33201
308.93        42.22844
309.38        42.12282
309.83        42.08273
310.29        42.11297
310.74        42.18713
311.19        42.24134
311.65         42.1656
312.10        41.93677
312.55         41.5953
313.00        41.23111
313.46        40.97668
313.91        40.84701
314.36         40.8115
314.82        40.80037
315.27        40.71257
315.72        40.51655
316.18        40.25751
316.63        39.97397
317.08        39.74234
317.53        39.58016
317.99        39.45293
318.44        39.33729
318.89        39.18643
319.35        38.98577
319.80        38.75167
320.25        38.49808
320.70        38.24542
321.16        37.99997
321.61        37.76968
322.06        37.54292
322.51        37.30684
322.97        37.05455
323.42        36.79203
323.87        36.55087
324.32        36.38665
324.78        36.29274
325.23        36.27704
325.68        36.24299
326.13        36.03999
326.59        35.64536
327.04         35.1232
327.49        34.60995
327.94        34.32438
328.39         34.3102
328.85        34.48736
329.30        34.76093
329.75        34.88337
330.20        34.77565
330.66        34.50241
331.11        34.16528
331.56        33.90433
332.01        33.76598
332.46        33.69085
332.92        33.63879
333.37        33.60204
333.82        33.54508
334.27        33.49636
334.72        33.42371
335.17        33.26141
335.63        33.00541
336.08         32.6942
336.53        32.40702
336.98        32.29087
337.43        32.37836
337.88        32.61816
338.34        32.92405
338.79        33.18028
339.24        33.31664
339.69        33.35705
340.14        33.29767
340.59         33.1425
341.05         32.9216
341.50        32.64024
341.95        32.35186
342.40        32.13784
342.85        32.02534
343.30        32.00309
343.75        32.05853
344.20         32.1627
344.66         32.2967
345.11        32.45232
345.56        32.59813
346.01        32.69032
346.46        32.71711
346.91        32.68454
347.36         32.6057
347.81        32.50986
348.26        32.41118
348.72        32.30922
349.17        32.21374
349.62        32.15181
350.07        32.12866
350.52        32.14527
350.97        32.17299
351.42        32.16158
351.87        32.10108
352.32        32.00346
352.77        31.90659
353.22        31.86763
353.67        31.89309
354.13        31.96039
354.58          32.023
355.03        32.00592
355.48        31.89119
355.93         31.7054
356.38        31.49416
356.83        31.32495
357.28        31.21081
357.73        31.12369
358.18        31.03455
358.63        30.90025
359.08        30.70757
359.53        30.47497
359.98        30.20905
360.43        29.91245
360.88        29.59287
361.33        29.25634
361.78        28.92127
362.23        28.61983
362.68        28.36646
363.13        28.15846
363.58        27.99228
364.03        27.85681
364.48        27.74103
364.93        27.63983
365.38        27.54054
365.83        27.42643
366.28        27.29001
366.73        27.13009
367.18        26.94616
367.63         26.7406
368.08        26.51816
368.53        26.28452
368.98        26.04827
369.43        25.82084
369.88        25.60817
370.33        25.41086
370.78        25.23652
371.23        25.09509
371.68        24.98857
372.13        24.91587
372.58        24.85847
373.03        24.78693
373.48        24.68917
373.93        24.56095
374.38        24.42152
374.83         24.3071
375.28        24.22035
375.72        24.14299
376.17        24.04751
376.62        23.86146
377.07        23.58284
377.52        23.24679
377.97        22.91656
378.42        22.69658
378.87        22.61262
379.32        22.62329
379.77        22.68906
380.22         22.7504
380.67        22.77996
381.11        22.79844
381.56         22.7641
382.01        22.63602
382.46        22.42092
382.91        22.14131
383.36        21.86599
383.81         21.6895
384.26        21.62714
384.71        21.65598
385.15        21.72611
385.60        21.75183
386.05        21.70566
386.50        21.60808
386.95        21.49462
387.40        21.42216
387.85        21.39968
388.29        21.38904
388.74        21.37736
389.19        21.29859
389.64        21.14375
390.09        20.93215
390.54        20.70471
390.98        20.52453
391.43        20.42432
391.88        20.38337
392.33        20.36526
392.78        20.31586
393.23        20.22466
393.67         20.1008
394.12        19.99344
394.57        19.93335
395.02        19.92557
395.47        19.94923
395.91        19.98046
396.36         19.9699
396.81        19.91803
397.26        19.84594
397.71        19.76893
398.15        19.72059
398.60        19.73068
399.05        19.70275
399.50        19.65653
399.95        19.76841
400.39        19.97274
400.84        19.91365
401.29        19.61896
401.74        19.44654
402.18        19.42463
402.63        19.34492
403.08        19.22476
403.53        19.17823
403.97        19.20733
404.42         19.2831
404.87        19.35767
405.32        19.35015
405.76        19.24316
406.21        19.07425
406.66        18.89726
407.11        18.79861
407.55        18.80432
408.00         18.8786
408.45        18.98392
408.90        19.04323
409.34        19.02783
409.79        18.96377
410.24        18.87769
410.68        18.80055
411.13        18.74758
411.58        18.70658
412.03         18.6658
412.47        18.61191
412.92        18.54026
413.37        18.46874
413.81        18.41413
414.26        18.41328
414.71        18.46416
415.15         18.5599
415.60           18.67
416.05        18.75759
416.49        18.80685
416.94        18.82001
417.39        18.81012
417.83        18.79889
418.28        18.79235
418.73         18.7823
419.17        18.76463
419.62          18.734
420.07         18.6926
420.51        18.64465
420.96        18.60078
421.41        18.57019
421.85        18.54812
422.30        18.52322
422.74        18.48773
423.19        18.51488
423.64         18.5737
424.08        18.54941
424.53         18.4451
424.98        18.41142
425.42        18.46877
425.87        18.48986
426.31        18.47264
426.76        18.54844
427.21        18.66202
427.65        18.55901
428.10        18.31348
428.54        18.23146
428.99        18.34043
429.44        18.54033
429.88        18.74655
430.33        18.75489
430.77        18.60534
431.22        18.66199
431.66        18.90076
432.11        18.95647
432.56        18.82379
433.00        18.76709
433.45        18.73293
433.89        18.51015
434.34        18.25353
434.78        17.86263
435.23        18.32217
435.67        18.41539
436.12        18.38594
436.57         18.2984
437.01        18.19654
437.46        18.16218
437.90        18.19926
438.35        18.22453
438.79        18.22746
439.24        18.25943
439.68        18.31776
440.13        18.38984
440.57        18.44912
441.02        18.47025
441.46        18.44795
441.91        18.34772
442.35        18.21401
442.80        18.28864
443.24         18.5011
443.69         18.5195
444.13        18.35999
444.58        18.33978
445.02        18.46072
445.47        18.54181
445.91        18.55906
446.36          18.567
446.80        18.55784
447.24        18.51978
447.69        18.46498
448.13        18.40564
448.58        18.35304
449.02        18.30539
449.47        18.26903
449.91        18.24177
450.36        18.22782
450.80        18.22346
451.25        18.22966
451.69        18.23461
452.13        18.23675
452.58        18.23364
453.02        18.22279
453.47        18.20445
453.91        18.17927
454.36        18.15131
454.80        18.11536
455.24        18.06273
455.69        18.00018
456.13        17.91933
456.58        17.85538
457.02        17.83134
457.46        17.85753
457.91        17.92499
458.35        17.98503
458.79        17.96592
459.24        17.87267
459.68        17.71945
460.13        17.58138
460.57        17.52637
461.01        17.58109
461.46        17.70471
461.90        17.86117
462.34        17.97451
462.79        18.01277
463.23        18.00474
463.68        17.95064
464.12        17.86463
464.56        17.75883
465.01        17.65371
465.45        17.55056
465.89        17.50094
466.34        17.50762
466.78        17.55289
467.22        17.62118
467.67        17.66487
468.11        17.67803
468.55        17.66532
468.99        17.63102
469.44        17.58154
469.88        17.52482
470.32        17.45839
470.77        17.39966
471.21        17.37969
471.65        17.40215
472.10        17.46238
472.54        17.53247
472.98        17.57371
473.42        17.57489
473.87        17.54903
474.31         17.5068
474.75        17.48281
475.20        17.48897
475.64        17.51036
476.08        17.53234
476.52        17.52294
476.97        17.47856
477.41        17.42003
477.85        17.38037
478.29        17.38595
478.74         17.4581
479.18        17.62304
479.62        17.82618
480.06        17.95145
480.50        17.98106
480.95        17.93972
481.39        17.84923
481.83        17.91314
482.27        17.88089
482.72        17.95597
483.16         18.0502
483.60        18.08978
484.04        18.05393
484.48        18.11141
484.93        18.28934
485.37        18.11376
485.81        18.28137
486.25        18.57804
486.69        18.52095
487.14        18.93686
487.58        19.39841
488.02        18.85448
488.46        18.57528
488.90         18.7337
489.34        18.57505
489.79        18.75168
490.23        18.83791
490.67        18.96015
491.11        19.06651
491.55        19.07509
491.99        19.02996
492.43        19.05308
492.88        19.16399
493.32         19.2955
493.76        19.42928
494.20        19.56873
494.64        19.70737
495.08        19.82869
495.52        19.92789
495.96        20.05149
496.41        20.17982
496.85        20.19249
497.29         20.1071
497.73        20.20521
498.17        20.23073
498.61        20.36524
499.05        20.49037
499.49        20.54732
499.93        20.49092
500.37        20.57427
500.82         20.7652
501.26        20.89177
501.70        20.94129
502.14         21.0013
502.58          21.099
503.02        21.23672
503.46        21.41415
503.90        21.62398
504.34        21.81171
504.78        21.88948
505.22        21.84259
505.66        21.70309
506.10        21.53914
506.54        21.45935
506.98        21.49432
507.42        21.61368
507.86        21.77991
508.30        21.92911
508.74        22.03466
509.18        22.11094
509.62         22.1636
510.06        22.20159
510.50        22.22971
510.94        22.24348
511.38         22.2392
511.82        22.21497
512.26        22.17664
512.70        22.13224
513.14        22.10509
513.58         22.1293
514.02        22.20856
514.46        22.32759
514.90        22.45749
515.34        22.55127
515.78        22.59383
516.22        22.59797
516.66        22.57129
517.10        22.52874
517.54        22.48023
517.98          22.422
518.42         22.3703
518.86        22.35151
519.30        22.36887
519.74        22.41628
520.18         22.4702
520.62        22.49018
521.06        22.46792
521.50        22.41692
521.93        22.35713
522.37        22.31487
522.81        22.30226
523.25        22.30649
523.69        22.32256
524.13        22.34422
524.57        22.36395
525.01        22.38103
525.45        22.38247
525.89         22.3462
526.32        22.26913
526.76        22.16821
527.20        22.05641
527.64        21.95729
528.08        21.87945
528.52          21.814
528.96        21.77065
529.40        21.76326
529.83        21.78675
530.27        21.83714
530.71         21.8754
531.15        21.84059
531.59        21.72486
532.03        21.54967
532.46        21.36123
532.90        21.24895
533.34        21.22901
533.78        21.26192
534.22        21.31521
534.66        21.36355
535.09        21.37633
535.53         21.3229
535.97        21.22053
536.41        21.15148
536.85        21.12842
537.28        21.10523
537.72        21.09746
538.16        21.14826
538.60        21.25497
539.04        21.40291
539.47        21.54339
539.91        21.61381
540.35        21.59969
540.79         21.5265
541.22        21.43727
541.66        21.40942
542.10         21.4608
542.54        21.56706
542.97         21.7033
543.41          21.839
543.85        21.95724
544.29        22.07097
544.72        22.17087
545.16        22.25644
545.60        22.32716
546.04        22.38604
546.47        22.45371
546.91        22.56378
547.35        22.71918
547.79        22.90388
548.22        23.09483
548.66        23.26089
549.10        23.41457
549.53        23.53437
549.97        23.63132
550.41        23.69052
550.84         23.7436
551.28        23.83812
551.72         23.9603
552.15        24.11403
552.59        24.32588
553.03         24.2396
553.46        24.57043
553.90        24.66174
554.34        24.72385
554.77        24.76336
555.21        24.81556
555.65         24.9157
556.08        25.06012
556.52        25.22306
556.96        25.36825
557.39        25.51023
557.83        25.61972
558.27        25.56369
558.70        25.40193
559.14        25.38255
559.57         25.5098
560.01        25.63855
560.45        25.73489
560.88        25.82807
561.32        25.92041
561.75        25.97838
562.19        26.02308
562.63        26.08153
563.06        26.15461
563.50        26.23617
563.93        26.29635
564.37        26.35786
564.80        26.42889
565.24        26.44489
565.68        26.36425
566.11        26.69316
566.55        26.47819
566.98        26.51525
567.42        26.56676
567.85        26.67648
568.29        26.85559
568.72        27.10613
569.16        27.41827
569.60         27.6304
570.03        27.82995
570.47        27.98425
570.90        28.12918
571.34        28.17022
571.77         28.4175
572.21        28.57515
572.64        28.64038
573.08        28.94841
573.51        28.89843
573.95        28.91552
574.38        28.87945
574.82        29.45747
575.25        29.29921
575.69        29.38963
576.12        29.40279
576.56        29.21124
576.99        29.29335
577.42        29.47013
577.86        29.62211
578.29        29.70226
578.73        29.93815
579.16         29.8206
579.60        29.44917
580.03        29.40934
580.47        29.34021
580.90        29.65221
581.33        29.52005
581.77        29.70911
582.20        29.17864
582.64        29.40822
583.07        29.36363
583.51        29.24673
583.94        28.89954
584.37         28.7823
584.81        28.59268
585.24        28.54883
585.68        28.56554
586.11        28.27502
586.54        28.35075
586.98        28.16356
587.41        27.97293
587.85        27.97414
588.28        27.79682
588.71         28.0859
589.15        27.79415
589.58        27.70135
590.01        27.66673
590.45        27.74793
590.88        27.91249
591.31        27.91267
591.75        27.80644
592.18        27.63324
592.61         27.4237
593.05        28.01471
593.48        28.15164
593.91        28.05665
594.35        28.12564
594.78        27.97038
595.21        27.88245
595.65        28.05871
596.08        28.52769
596.51        28.71989
596.94        28.54778
597.38        28.63774
597.81        28.96379
598.24        29.24997
598.68        29.54458
599.11        29.55088
599.54        30.05092
599.97        30.08667
600.41        30.39131
600.84        30.44853
601.27        30.86687
601.70        31.16056
602.14        31.52652
602.57        31.88775
603.00        32.34039
603.43        32.34357
603.87        33.13609
604.30        33.51171
604.73        33.88682
605.16        33.89302
605.60        34.13678
606.03        34.31887
606.46        34.64292
606.89        34.78142
607.32        35.67793
607.76        35.91685
608.19         36.3215
608.62         36.5597
609.05        36.89395
609.48        37.17279
609.92        37.85237
610.35        38.06389
610.78        37.97935
611.21        38.12222
611.64         38.5946
612.07        39.07562
612.50        39.33879
612.94        39.62003
613.37        39.82029
613.80         40.1042
614.23        39.87017
614.66        40.12957
615.09        40.66995
615.52        41.06449
615.96        41.24143
616.39        41.52924
616.82         41.9595
617.25        41.84352
617.68        42.07351
618.11        42.27093
618.54        42.61139
618.97        42.80251
619.40        42.82871
619.84        43.06833
620.27        43.12139
620.70        43.34401
621.13        43.56319
621.56        43.42903
621.99        43.16198
622.42        43.14377
622.85        43.45034
623.28        43.50861
623.71        43.27026
624.14        43.84149
624.57         43.8004
625.00        43.84633
625.43        43.79182
625.86        43.67634
626.29        43.65683
626.72        43.09641
627.15        43.28937
627.58        43.18288
628.01        43.09734
628.44         42.9483
628.87        42.73146
629.30        42.41129
629.73        42.01514
630.16        41.87043
630.59        41.58708
631.02        41.45448
631.45        41.30371
631.88        41.06809
632.31        40.72253
632.74        40.29623
633.17        39.82376
633.60         39.3502
634.03        38.89918
634.46        38.45957
634.89        38.03127
635.32        37.62162
635.75        37.23315
636.18        36.83051
636.61        36.43108
637.04         36.0786
637.47        35.77262
637.89        35.49286
638.32        35.20575
638.75        34.89658
639.18        34.56338
639.61        34.21512
640.04        33.87996
640.47        33.59788
640.90        33.37732
641.33        33.21073
641.76        33.07125
642.18        32.91902
642.61          32.736
643.04         32.5379
643.47         32.3621
643.90        32.26748
644.33        32.26392
644.76         32.3331
645.18        32.42524
645.61        32.45212
646.04         32.4009
646.47        32.30423
646.90        32.22562
647.33         32.2592
647.75        32.42008
648.18         32.7154
648.61        33.11187
649.04         33.4346
649.47        33.63457
649.89        34.24519
650.32        34.37742
650.75        34.79997
651.18        35.23662
651.61        35.63548
652.03        36.00902
652.46         36.4817
652.89        37.08476
653.32        37.56016
653.74        37.86637
654.17        38.48599
654.60        39.03579
655.03        38.94146
655.46         39.0528
655.88        39.99283
656.31         40.9156
656.74        42.64283
657.16        45.55064
657.59        48.39622
658.02         44.4271
658.45        43.78292
658.87        43.33309
659.30        43.73372
659.73        44.28925
660.15        45.09719
660.58        44.69514
661.01        44.81826
661.44         45.1547
661.86        45.32967
662.29        45.33059
662.72        45.89248
663.14        46.10851
663.57        46.34002
664.00        46.40132
664.42        46.68866
664.85        47.22239
665.27        47.79614
665.70        48.27901
666.13         48.5953
666.55        48.71618
666.98        48.61458
667.41        48.38956
667.83        48.52211
668.26        48.55461
668.69        48.84301
669.11        49.18855
669.54          49.505
669.96        49.76702
670.39        50.02293
670.82        50.26574
671.24        50.45854
671.67        50.62668
672.09        50.71576
672.52        50.78773
672.94        51.12713
673.37        51.61137
673.80        51.62021
674.22         51.2511
674.65        51.19535
675.07        51.51619
675.50        51.80515
675.92        52.00175
676.35        52.18001
676.77        52.31971
677.20        52.40249
677.62        52.46331
678.05        52.53822
678.47        52.63726
678.90        52.79269
679.32        52.99171
679.75        53.04311
680.17        53.20375
680.60        53.28411
681.02        53.39238
681.45        53.48846
681.87        53.60586
682.30        53.89998
682.72        54.29367
683.15        54.37746
683.57        54.20872
684.00        54.24325
684.42        54.51157
684.85        54.71289
685.27          54.842
685.70        55.09849
686.12        55.40791
686.54        55.57332
686.97        55.59212
687.39        55.48171
687.82        55.43641
688.24        55.47201
688.66        55.61988
689.09        55.68146
689.51        55.67768
689.94        55.80636
690.36        56.05803
690.78        56.21366
691.21        56.28833
691.63        56.48293
692.06        56.76856
692.48        56.94217
692.90         56.9921
693.33        57.03812
693.75          57.083
694.17        57.07675
694.60         57.0636
695.02        57.07107
695.44        57.14304
695.87          57.445
696.29        57.88666
696.71         58.0206
697.14        57.86859
697.56        57.83097
697.98        57.96352
698.41        58.08125
698.83        58.18669
699.25        58.42626
699.68        58.70434
700.10        58.87779
700.52        58.90541
700.94        58.78791
701.37        58.60009
701.79        58.77573
702.21        58.85917
702.64        59.17094
703.06          59.498
703.48        59.72283
703.90        59.80387
704.33        59.79451
704.75        59.72725
705.17        59.63188
705.59        59.54018
706.01        59.44251
706.44        59.39152
706.86         59.4913
707.28        59.74064
707.70        60.10365
708.12        60.49452
708.55        60.77791
708.97        60.91502
709.39        60.90773
709.81        60.81858
710.23        60.80039
710.66        60.88702
711.08        61.03283
711.50        61.16853
711.92        61.21766
712.34        61.16694
712.76        61.05733
713.19        60.93386
713.61        60.90074
714.03        60.97349
714.45        61.12737
714.87        61.33959
715.29        61.57845
715.71        61.82274
716.13        62.06543
716.56        62.27734
716.98        62.49409
717.40        62.67445
717.82        62.80873
718.24        62.86083
718.66        62.78225
719.08        62.59601
719.50        62.33043
719.92        62.05948
720.34        61.95795
720.76        62.07631
721.19        62.06096
721.61        62.46139
722.03        62.75602
722.45         63.0634
722.87         63.3811
723.29        63.62662
723.71        63.65167
724.13        63.43889
724.55         63.0508
724.97        62.62418
725.39        62.36694
725.81        62.33505
726.23        62.50478
726.65        62.82116
727.07        63.04136
727.49        63.27747
727.91        63.58056
728.33        63.71405
728.75        63.85867
729.17        63.93114
729.59        63.92673
730.01        63.88093
730.43        63.88234
730.85        63.95096
731.27        64.04597
731.69        64.13293
732.10        64.18874
732.52        64.18136
732.94        64.06589
733.36        63.89354
733.78        63.74642
734.20        63.66909
734.62        63.78049
735.04        64.07078
735.46        64.02097
735.88        64.29362
736.30        64.50099
736.72        64.93011
737.13        65.23706
737.55        65.35032
737.97         65.5262
738.39        65.68822
738.81         65.3018
739.23        64.58065
739.65         64.5924
740.06        65.22844
740.48        65.49571
740.90        65.32961
741.32        65.32323
741.74        65.49665
742.16        65.57392
742.57        65.54968
742.99        65.48539
743.41        65.40517
743.83        65.33002
744.25        65.27695
744.67        65.22382
745.08        65.20052
745.50        65.26223
745.92        65.39218
746.34        65.49614
746.75        65.56197
747.17        65.58263
747.59         65.5367
748.01        65.56929
748.42        65.61878
748.84        65.38325
749.26         65.0251
749.68        65.00928
750.09        65.34776
750.51        65.95245
750.93        66.54833
751.35        66.41886
751.76        65.69691
752.18        65.36335
752.60        65.47259
753.01        65.46561
753.43        65.32329
753.85        65.25449
754.27        65.25744
754.68        65.62156
755.10        65.70602
755.52        65.90508
755.93        65.99546
756.35        65.98875
756.77        66.01777
757.18        66.09332
757.60        66.21413
758.02        66.84212
758.43        67.74741
758.85        66.83095
759.26        66.33335
759.68        65.85979
760.10        66.13789
760.51        66.60973
760.93        67.06723
761.34        67.20647
761.76        67.06721
762.18        66.98121
762.59        67.08564
763.01        67.21269
763.42        67.36094
763.84        67.52026
764.26        67.63944
764.67        67.33411
765.09        66.80364
765.50        66.86449
765.92        67.44814
766.33        67.38924
766.75        66.64157
767.16        66.90047
767.58        66.67323
768.00        66.57435
768.41        66.30292
768.83        66.66604
769.24        67.43226
769.66        67.79196
770.07         67.6794
770.49        67.13029
770.90         66.5107
771.32        67.03538
771.73        68.42526
772.15        68.88544
772.56        68.30497
772.97        67.58298
773.39        67.22154
773.80        66.98735
774.22        67.01612
774.63        67.36227
775.05        67.81793
775.46        68.09917
775.88        68.09017
776.29        67.89843
776.70        67.63965
777.12         67.5345
777.53        67.64565
777.95        67.84037
778.36        68.06521
778.77        68.20347
779.19        68.24348
779.60        68.26462
780.02        68.21854
780.43        68.14629
780.84        68.10234
781.26        67.65105
781.67         67.0652
782.09        67.77192
782.50        69.38212
782.91        69.42865
783.33        68.35283
783.74        67.96098
784.15        68.43723
784.57        68.57753
784.98        68.37756
785.39        68.29605
785.81        68.39301
786.22        68.75804
786.63        69.27531
787.04        69.54313
787.46        69.52409
787.87        69.40173
788.28        69.27184
788.70        69.18795
789.11        69.16531
789.52        69.22031
789.93        69.30814
790.35        69.34456
790.76        69.31042
791.17        69.21412
791.58        69.12605
792.00        69.04636
792.41        68.99528
792.82        69.23704
793.23        69.60892
793.65         69.2468
794.06        68.46171
794.47        68.67684
794.88        69.66257
795.29        70.49613
795.71        69.94135
796.12         69.9031
796.53         70.1039
796.94         69.9863
797.35        69.65749
797.76        69.81918
798.18        70.35451
798.59        70.53017
799.00        70.26745
799.41        69.95791
799.82        69.72592
800.23        69.61155
800.64        69.65668
801.06        69.81304
801.47        70.03493
801.88        70.15569
802.29        70.12257
802.70         69.9679
803.11        69.76043
803.52        69.61809
803.93        69.60161
804.34        69.69354
804.75        69.83575
805.17        70.03179
805.58        70.31456
805.99         70.3185
806.40        70.16888
806.81        70.90887
807.22        72.16138
807.63        71.96865
808.04        70.54525
808.45         69.9295
808.86        70.27566
809.27        70.46636
809.68        70.38058
810.09        70.36304
810.50        70.38605
810.91         70.3492
811.32        70.33842
811.73        70.47102
812.14         70.7524
812.55        71.20791
812.96        71.66055
813.37        71.63858
813.78        71.14219
814.19        70.61671
814.60         70.2138
815.01        69.87508
815.42        69.64764
815.83        69.63093
816.24        69.78873
816.65        69.95496
817.05        70.08267
817.46        70.19534
817.87        70.28732
818.28        70.29691
818.69        70.23209
819.10        70.09243
819.51        69.97011
819.92         70.0841
820.33        70.47478
820.74        70.94437
821.14        71.38592
821.55        71.90606
821.96        72.31937
822.37        72.03854
822.78        71.22831
823.19        70.77307
823.60        70.80151
824.00        70.88672
824.41        70.91963
824.82        71.02098
825.23        71.15235
825.64        71.29745
826.04        71.43399
826.45        71.47227
826.86        71.41435
827.27         71.2905
827.68        71.13514
828.08        71.04086
828.49        70.98386
828.90        70.95094
829.31        70.97895
829.72        71.12612
830.12        71.40805
830.53        71.75367
830.94         72.0201
831.35        71.91445
831.75        71.40939
832.16        70.59197
832.57        69.73705
832.97        69.25684
833.38        69.25726
833.79        69.59446
834.20        70.12389
834.60         70.6078
835.01        70.95764
835.42        71.28288
835.82        71.54191
836.23        71.58071
836.64        71.42366
837.04        71.06342
837.45        70.74847
837.86        70.96336
838.26        71.80793
838.67        73.09926
839.08        74.39855
839.48        74.86456
839.89        74.27755
840.29        72.94398
840.70        71.47416
841.11        70.55932
841.51        70.39067
841.92         70.7398
842.33        71.41018
842.73        72.05297
843.14        72.41307
843.54        72.65657
843.95        72.81525
844.35        72.98997
844.76        73.18763
845.17        73.33729
845.57        73.41206
845.98        73.36685
846.38        73.21997
846.79        72.99445
847.19        72.74164
847.60        72.51048
848.00        72.33284
848.41        72.17371
848.81        72.05775
849.22        71.93342
849.62        71.83605
850.03        71.78145
850.43        71.76213
850.84        71.68941
851.24        71.59961
851.65        71.43922
852.05        71.40552
852.46         71.7178
852.86        72.38412
853.27        73.29103
853.67        74.08682
854.07        74.42247
854.48        74.21922
854.88        73.61004
855.29        72.79237
855.69        72.27721
856.10        72.15887
856.50        72.38345
856.90        72.73087
857.31        72.84334
857.71        72.67078
858.12        72.26746
858.52        71.81434
858.92        71.48549
859.33        71.32848
859.73        71.31931
860.13        71.34792
860.54         71.2665
860.94         71.0787
861.34        70.82666
861.75        70.58301
862.15        70.50221
862.55        70.59592
862.96        70.77064
863.36        71.00335
863.76        71.17155
864.17        71.21996
864.57        71.22054
864.97        71.11685
865.38        70.83034
865.78        70.40028
866.18        69.84201
866.58        69.33505
866.99        69.19879
867.39        69.51836
867.79        70.17336
868.19        70.93024
868.60        71.40002
869.00        71.51641
869.40        71.37189
869.80        71.07616
870.21        70.85785
870.61        70.87102
871.01        70.97099
871.41        71.10938
871.81        71.23003
872.22        71.29409
872.62        71.33144
873.02        71.31142
873.42        71.15358
873.82        70.85728
874.22        70.45625
874.63        70.02161
875.03         69.6956
875.43         69.5024
875.83        69.40269
876.23        69.38774
876.63        69.43236
877.03        69.52253
877.44        69.65844
877.84        69.77953
878.24         69.7888
878.64        69.63281
879.04        69.19718
879.44        68.72865
879.84        68.71013
880.24        69.17691
880.64        69.95577
881.04        70.65451
881.44        70.64342
881.84        69.81062
882.24        68.39963
882.65        66.91316
883.05        66.12421
883.45        66.23552
883.85        67.02136
884.25         68.1393
884.65        68.99356
885.05        69.36433
885.45        69.40915
885.85        69.27824
886.25        69.20587
886.65         69.2651
887.05        69.35407
887.45        69.39487
887.85        69.29391
888.25        69.03181
888.65        68.66978
889.04        68.29861
889.44         68.0626
889.84        67.98129
890.24          68.021
890.64        68.08929
891.04        68.03489
891.44        67.83405
891.84        67.55443
892.24        67.30006
892.64        67.21761
893.04        67.34938
893.44        67.65736
893.83        68.09428
894.23        68.52962
894.63        68.92245
895.03        69.25243
895.43        69.55106
895.83        69.88525
896.23        70.23296
896.63        70.54048
897.02        70.64388
897.42        70.32021
897.82         69.5751
898.22        68.57265
898.62        67.54712
899.01        66.82285
899.41        66.51217
899.81        66.50337
900.21        66.76597
900.61        67.23646
901.00        67.83172
901.40        68.53622
901.80        69.15726
902.20        69.38813
902.59        69.18552
902.99        68.62182
903.39        67.91931
903.79        67.46466
904.18        67.36267
904.58        67.50936
904.98         67.8168
905.38        68.14513
905.77        68.43781
906.17         68.7699
906.57        69.03629
906.96        69.05832
907.36        68.80271
907.76        68.31213
908.15        67.85863
908.55        67.86539
908.95        68.41621
909.34        69.39671
909.74        70.41515
910.14         70.9072
910.53        70.69999
910.93        69.99023
911.33        69.06535
911.72        68.36189
912.12        68.07413
912.52        68.07194
912.91        68.21228
913.31        68.30101
913.70        68.28043
914.10        68.19182
914.49        68.19417
914.89        68.44749
915.29        68.99851
915.68        69.78509
916.08        70.50574
916.47        70.74828
916.87        70.44255
917.26        69.69251
917.66        68.92001
918.05        68.61852
918.45        68.89465
918.84        69.64523
919.24        70.48186
919.64        70.85799
920.03        70.63145
920.42        69.94524
920.82          69.194
921.21        68.92542
921.61        69.25202
922.00        70.04636
922.40        70.93616
922.79        71.41498
923.19        71.29531
923.58         70.7758
923.98         70.1612
924.37        69.82629
924.77        69.88382
925.16        70.16236
925.55        70.52227
925.95        70.71569
926.34        70.66989
926.74        70.45346
927.13        70.09657
927.52        69.56582
927.92        68.95567
928.31        68.29549
928.70        67.72522
929.10        67.42693
929.49        67.42583
929.89        67.61015
930.28        68.04385
930.67         68.7044
931.07        69.49182
931.46        70.45464
931.85        71.21711
932.24        71.23533
932.64        70.48742
933.03        69.12582
933.42        67.76154
933.82        67.29158
934.21        67.89471
934.60        69.35432
934.99        71.10964
935.39        72.12728
935.78        72.12513
936.17        71.30737
936.56        70.14785
936.96        69.39477
937.35        69.25717
937.74        69.50472
938.13        69.78917
938.53        69.60125
938.92        68.85011
939.31        67.78781
939.70        66.75479
940.09        66.19556
940.49        66.18481
940.88        66.60346
941.27        67.27348
941.66        67.86397
942.05        68.24625
942.44         68.5275
942.84        68.75784
943.23        69.01517
943.62        69.32164
944.01         69.5593
944.40         69.7852
944.79        70.13316
945.18        70.58443
945.57        71.11243
945.97        71.39023
946.36        70.97243
946.75        69.79585
947.14        68.13123
947.53        66.48336
947.92        65.54968
948.31        65.49039
948.70        66.11356
949.09        67.16061
949.48        68.15919
949.87        68.90391
950.26         69.4841
950.65        69.92516
951.04        70.29795
951.43        70.60601
951.82        70.74319
952.21        70.69096
952.60        70.46693
952.99        70.11569
953.38        69.73444
953.77        69.33139
954.16        68.88673
954.55        68.41698
954.94         67.9002
955.33         67.5517
955.72        67.72542
956.11         68.4716
956.50        69.71358
956.89        70.91814
957.28        71.19125
957.66        70.33838
958.05        68.65911
958.44        66.89738
958.83        66.14231
959.22        66.59715
959.61        67.96938
960.00        69.57044
960.39        70.12762
960.78        69.28996
961.16        67.49792
961.55        65.55746
961.94        64.51637
962.33        64.63123
962.72        65.62933
963.11        67.02821
963.49        67.92893
963.88          67.926
964.27        67.30738
964.66        66.61911
965.04        66.69633
965.43        67.66125
965.82        69.28244
966.21         70.9327
966.60        71.43151
966.98        70.42692
967.37        68.44254
967.76         66.2978
968.15         64.9892
968.53        64.72626
968.92        65.25155
969.31        66.13251
969.69        66.53967
970.08        66.12557
970.47        65.18795
970.86        64.29381
971.24        64.22462
971.63        65.12889
972.02        66.78554
972.40        68.60717
972.79        69.18964
973.17        68.23853
973.56        66.28621
973.95        64.25614
974.33        63.34238
974.72        63.79193
975.11        65.22384
975.49        67.19276
975.88         68.7226
976.26         69.4329
976.65        69.52747
977.04        69.19596
977.42        68.71375
977.81        68.18597
978.19        67.50021
978.58        66.83826
978.96        66.49306
979.35        66.49449
979.74        66.83309
980.12        67.39204
980.51        67.66634
980.89        67.65266
981.28        67.48122
981.66        67.29015
982.05        67.26579
982.43        67.47511
982.82        67.77514
983.20        68.37431
983.59        69.53206
983.97        71.30334
984.35        73.56758
984.74        75.56516
985.12        76.27632
985.51        75.42473
985.89        73.36146
986.28        71.06696
986.66        69.95293
987.04        70.41211
987.43        72.02894
987.81        74.12028
988.20        75.18207
988.58        74.73788
988.96        73.20641
989.35        71.23608
989.73        69.70937
990.12        68.85856
990.50        68.44545
990.88        68.18343
991.27         67.6464
991.65        66.76744
992.03        65.78306
992.42        65.05436
992.80         64.9852
993.18        65.66524
993.56        66.94598
993.95        68.38379
994.33        69.36339
994.71        69.50916
995.10         69.0493
995.48        68.33391
995.86        68.00733
996.24         68.2227
996.63        68.65444
997.01        69.22132
997.39        69.40797
997.77        69.04607
998.15        68.46962
998.54        67.73605
998.92        66.74807
999.30        65.66261
999.68        64.50009
1000.06        63.80817
1000.45        64.35799
1000.83        66.33624
1001.21        69.61501
1001.59        73.38782
1001.97        75.62708
1002.35         75.5441
1002.73        73.75648
1003.12         71.4332
1003.50        70.01049
1003.88        69.94453
1004.26        70.67423
1004.64         72.0657
1005.02        73.73911
1005.40        75.33172
1005.78        77.13462
1006.16        78.28958
1006.54        77.41525
1006.92        74.57214
1007.30        70.28324
1007.69        66.34557
1008.07        65.22778
1008.45        67.59229
1008.83         72.9133
1009.21         79.6738
1009.59        83.97121
1009.97        83.88807
1010.35        80.53589
1010.73        75.45053
1011.11        70.90491
1011.49        67.76311
1011.86        65.45449
1012.24        64.07245
1012.62        63.71983
1013.00        64.28455
1013.38        65.89224
1013.76        68.21212
1014.14        70.09628
1014.52        70.90009
1014.90        70.71407
1015.28        69.83662
1015.66        68.89138
1016.04        68.08548
1016.41        67.21915
1016.79        66.42967
1017.17        66.07158
1017.55        66.21653
1017.93        66.86185
1018.31        67.64481
1018.69        67.97332
1019.06        67.75607
1019.44        67.08652
1019.82        66.31848
1020.20        66.27047
1020.58        67.14834
1020.95        68.44602
1021.33        69.81016
1021.71        70.79174
1022.09        71.37004
1022.46        71.87464
1022.84        72.03865
1023.22        71.44128
1023.60        70.11207
1023.97        68.09011
1024.35        66.57155
1024.73        66.75122
