SpectraSmart Spectrum 2.9.0.0
--------- Device Information -----------
Spectrum Name :  反射率_0
Saving Time :  2024/04/26 22:06:35
Spectro-Module Model Name : SE2030-DUVN
Spectro-Module Serial Number : OS361AC55029948
Wavelength Start : 200
Wavelength End : 1025
Wavelength Unit : Wavelength(nm)
Spectrum Unit : Reflectance(%)
-----------Spectrum Setting ------------
Integration Time : 20ms
Average : 10
Boxcar : 0
Background removal :  enabled
linearity correction :  enabled
SC :  disabled
Intensity correction :  disabled
DWT denoise :  enabled
savitzky-golay :  disabled
FFT :  disabled
Running average :  disabled
Kalman :  disabled
High pass :  disabled
---------------BEGIN--------------------
Wavelength(nm)             Reflectance(%)
200.29               0
200.75        62.54388
201.21        57.57414
201.67        52.87823
202.13         49.6688
202.58        47.74267
203.04        46.61973
203.50        46.75299
203.96        49.06901
204.42        53.92252
204.88        61.56901
205.34        68.85935
205.80        70.46038
206.26        65.72241
206.72        56.67564
207.18        48.44623
207.64        45.40984
208.10        47.82241
208.55        56.28395
209.01        68.22763
209.47        71.13963
209.93        61.05735
210.39        47.23925
210.85        38.08592
211.31        37.49813
211.77        46.39161
212.23        71.66204
212.69        137.3753
213.14        244.7014
213.60        234.9107
214.06        154.9472
214.52        103.4511
214.98        83.32012
215.44        78.45117
215.90        79.18953
216.36        82.60681
216.81        85.51811
217.27        87.11062
217.73        90.56258
218.19        95.17133
218.65        95.12101
219.11        90.26124
219.57        83.85439
220.02        81.38445
220.48        87.74232
220.94        103.4806
221.40        131.2702
221.86        170.7277
222.32        197.0542
222.77        187.9506
223.23        159.9149
223.69        131.3102
224.15        112.4331
224.61        102.0091
225.06        95.56026
225.52        92.47246
225.98        91.74319
226.44        92.74336
226.90        95.72025
227.36        99.41279
227.81        101.3904
228.27        101.3039
228.73          99.522
229.19        97.87204
229.65        98.68187
230.10        101.9572
230.56        106.9947
231.02        111.5795
231.48        112.2777
231.93        108.7128
232.39        102.9274
232.85        97.35999
233.31        95.16345
233.77        96.58063
234.22        100.3811
234.68        104.8958
235.14        107.5439
235.60        107.4796
236.05        105.5296
236.51        102.1054
236.97        98.54514
237.43        95.66821
237.88        93.23089
238.34        91.39708
238.80        90.70632
239.26        91.27253
239.71        93.86993
240.17        97.81302
240.63        101.5068
241.08        103.9372
241.54        104.2367
242.00        103.8199
242.46        106.1023
242.91        113.7621
243.37        127.6376
243.83        148.4056
244.28        166.9967
244.74        168.5348
245.20        152.4352
245.66        131.4235
246.11        116.8026
246.57          109.26
247.03         105.423
247.48        101.5387
247.94         93.2422
248.40        82.99081
248.85        74.17239
249.31        68.43357
249.77        65.66712
250.22        64.98942
250.68        65.65405
251.14         67.8521
251.59        71.36089
252.05        75.37371
252.51        79.81671
252.96        82.17524
253.42        81.05611
253.88        77.33001
254.33        71.76366
254.79        68.40315
255.25        70.51266
255.70        77.51794
256.16        88.09895
256.62        97.43193
257.07        98.23134
257.53        92.47441
257.99        84.71043
258.44        78.74945
258.90        78.03022
259.35        80.99268
259.81        86.09062
260.27        91.00661
260.72        92.88417
261.18        91.95161
261.63        89.23622
262.09        86.57188
262.55         85.1058
263.00        84.74049
263.46        85.13558
263.91        85.36864
264.37        84.81702
264.83         83.3889
265.28        81.43614
265.74        79.75185
266.19        78.83451
266.65        78.84066
267.11        79.38125
267.56        80.03378
268.02        80.16854
268.47         79.5948
268.93        78.58014
269.38        77.30064
269.84         76.1225
270.30        75.13567
270.75        74.19812
271.21        73.36687
271.66        72.64119
272.12        72.00269
272.57        71.41131
273.03         70.7405
273.48        69.73513
273.94        68.45158
274.39        66.93967
274.85        65.44698
275.31        64.09035
275.76        62.88194
276.22        61.85888
276.67        60.95114
277.13        60.23805
277.58        59.60387
278.04        59.05722
278.49        58.44954
278.95        57.75097
279.40        56.86967
279.86        55.95383
280.31        54.91336
280.77        53.81241
281.22        52.62762
281.68        51.47818
282.13        50.44868
282.59         49.8102
283.04        49.50943
283.50        49.49104
283.95        49.53606
284.41        49.33998
284.86        48.81504
285.32        48.09464
285.77        47.30312
286.22        46.71755
286.68        46.38419
287.13        46.16311
287.59        45.95962
288.04        45.55936
288.50        44.97009
288.95        44.24557
289.41        43.51646
289.86        42.85909
290.32         42.3553
290.77        41.94028
291.22        41.62907
291.68        41.42223
292.13        41.28857
292.59        41.25318
293.04        41.27919
293.50        41.33733
293.95        41.40641
294.40        41.49461
294.86        41.62673
295.31        41.83201
295.77        42.12498
296.22        42.47678
296.68        42.87081
297.13        43.25644
297.58        43.62854
298.04        44.00061
298.49        44.37716
298.95        44.79168
299.40        45.23383
299.85        45.68871
300.31        46.14328
300.76        46.55803
301.21        46.92912
301.67        47.28431
302.12        47.59423
302.58          47.892
303.03        48.15097
303.48        48.38939
303.94         48.6382
304.39        48.89271
304.84        49.16574
305.30        49.45798
305.75        49.71505
306.20        49.92494
306.66        50.09373
307.11        50.20984
307.57        50.28669
308.02        50.27656
308.47         50.1983
308.93        50.07091
309.38        49.93405
309.83        49.91273
310.29        50.02222
310.74        50.22217
311.19        50.40298
311.65        50.37812
312.10        50.10617
312.55        49.64842
313.00        49.15421
313.46        48.84536
313.91        48.75149
314.36        48.81876
314.82        48.90951
315.27        48.81491
315.72        48.48183
316.18         47.9963
316.63        47.47758
317.08        47.12788
317.53        46.99132
317.99        46.99228
318.44        47.03421
318.89        46.94905
319.35        46.68936
319.80        46.31079
320.25        45.88439
320.70        45.52185
321.16        45.25344
321.61        45.05626
322.06        44.88239
322.51        44.66197
322.97        44.37063
323.42        44.04035
323.87        43.71834
324.32        43.48393
324.78        43.33589
325.23        43.27049
325.68        43.19555
326.13        42.97402
326.59        42.58113
327.04        42.08204
327.49        41.57627
327.94        41.22427
328.39         41.0596
328.85        41.01182
329.30        41.04631
329.75        41.01608
330.20        40.87207
330.66          40.647
331.11        40.38626
331.56        40.12944
332.01        39.89399
332.46        39.65381
332.92        39.39463
333.37        39.16414
333.82        38.95215
334.27        38.77376
334.72        38.61342
335.17        38.43317
335.63        38.22585
336.08        38.02344
336.53         37.8635
336.98        37.82287
337.43        37.91012
337.88        38.08358
338.34        38.27903
338.79         38.4308
339.24         38.4893
339.69        38.47722
340.14        38.38136
340.59        38.18792
341.05        37.92743
341.50        37.61093
341.95        37.32327
342.40        37.19324
342.85        37.24192
343.30        37.42471
343.75        37.66225
344.20        37.81966
344.66        37.85399
345.11        37.80063
345.56        37.67505
346.01        37.50736
346.46        37.32745
346.91        37.13598
347.36        36.97493
347.81        36.91441
348.26        36.96085
348.72        37.08722
349.17        37.25085
349.62         37.3941
350.07        37.48963
350.52         37.5549
350.97        37.54789
351.42        37.40907
351.87        37.14487
352.32        36.77674
352.77        36.41838
353.22        36.23634
353.67        36.25824
354.13        36.44352
354.58        36.66388
355.03         36.6977
355.48         36.4922
355.93        36.11347
356.38         35.7051
356.83        35.48557
357.28         35.4919
357.73        35.64076
358.18        35.79594
358.63        35.74009
359.08        35.42408
359.53        34.93824
359.98        34.38872
360.43         33.9245
360.88        33.59136
361.33        33.34147
361.78        33.15412
362.23        33.00085
362.68         32.8626
363.13        32.75081
363.58        32.63895
364.03        32.47752
364.48        32.25573
364.93        31.98171
365.38        31.68305
365.83        31.41403
366.28        31.19588
366.73        31.01876
367.18        30.87328
367.63         30.7422
368.08        30.61429
368.53        30.48894
368.98        30.36596
369.43        30.24226
369.88        30.11484
370.33        29.98561
370.78        29.83186
371.23        29.62203
371.68        29.35691
372.13        29.04612
372.58        28.75077
373.03        28.56631
373.48        28.50577
373.93        28.53824
374.38        28.57867
374.83        28.48889
375.28        28.24226
375.72        27.88394
376.17        27.51055
376.62        27.23299
377.07        27.08387
377.52        27.02643
377.97        27.02578
378.42        27.02962
378.87        27.01009
379.32        26.97062
379.77        26.91653
380.22        26.85292
380.67        26.77684
381.11        26.69369
381.56        26.55307
382.01        26.31124
382.46        25.98578
382.91        25.61799
383.36        25.29814
383.81        25.14398
384.26        25.16391
384.71        25.31063
385.15        25.50505
385.60        25.61201
386.05        25.58646
386.50        25.46935
386.95        25.28496
387.40        25.07689
387.85        24.87445
388.29        24.65448
388.74        24.48189
389.19        24.38851
389.64        24.37239
390.09        24.41807
390.54        24.47996
390.98        24.47206
391.43         24.3888
391.88        24.25427
392.33        24.10048
392.78        23.97448
393.23        23.88951
393.67        23.81821
394.12        23.77974
394.57         23.7566
395.02        23.74183
395.47        23.73294
395.91        23.72642
396.36        23.70124
396.81        23.66675
397.26        23.63134
397.71        23.58952
398.15        23.54933
398.60        23.54147
399.05        23.46557
399.50        23.36296
399.95         23.4675
400.39        23.70545
400.84        23.64392
401.29        23.30963
401.74        23.11685
402.18        23.09594
402.63        23.00814
403.08        22.86613
403.53        22.79087
403.97        22.78739
404.42        22.82619
404.87        22.88066
405.32        22.90489
405.76         22.8805
406.21        22.82604
406.66        22.76368
407.11         22.7329
407.55        22.74831
408.00        22.78897
408.45        22.82272
408.90        22.78461
409.34         22.6635
409.79        22.49049
410.24        22.32462
410.68         22.2401
411.13        22.25628
411.58        22.34895
412.03          22.466
412.47        22.51658
412.92        22.46754
413.37        22.35623
413.81        22.22895
414.26        22.17326
414.71        22.19821
415.15        22.28192
415.60         22.3821
416.05        22.44681
416.49        22.45951
416.94        22.43907
417.39        22.40162
417.83        22.36832
418.28        22.34672
418.73        22.32048
419.17         22.3061
419.62        22.33288
420.07        22.40007
420.51        22.49576
420.96        22.57377
421.41        22.55587
421.85        22.42758
422.30        22.21206
422.74         21.9715
423.19        21.89481
423.64        21.96811
424.08        22.02591
424.53        22.02819
424.98        22.07682
425.42        22.16812
425.87        22.16976
426.31        22.10177
426.76        22.15651
427.21        22.27949
427.65        22.15313
428.10         21.8506
428.54        21.72184
428.99        21.79761
429.44        21.95837
429.88        22.12882
430.33        22.12385
430.77        21.98849
431.22        22.09781
431.66        22.40476
432.11         22.5105
432.56        22.40933
433.00         22.3203
433.45        22.20807
433.89        22.08394
434.34        22.04353
434.78        21.51483
435.23        21.76545
435.67         21.7945
436.12        21.91382
436.57        21.95319
437.01        21.90276
437.46        21.86383
437.90        21.82537
438.35        21.69952
438.79        21.53469
439.24         21.4802
439.68        21.55215
440.13        21.70912
440.57        21.88858
441.02        22.00365
441.46        22.02286
441.91        21.92023
442.35        21.74977
442.80        21.80042
443.24        21.99268
443.69        21.93333
444.13        21.65668
444.58         21.5611
445.02        21.65836
445.47        21.73448
445.91        21.76448
446.36        21.81283
446.80        21.86565
447.24         21.9047
447.69        21.92886
448.13        21.92949
448.58        21.91148
449.02        21.87422
449.47        21.83119
449.91        21.79166
450.36        21.76636
450.80        21.75025
451.25        21.74436
451.69        21.73311
452.13        21.71722
452.58        21.69796
453.02        21.68077
453.47        21.67711
453.91        21.68853
454.36        21.71449
454.80        21.73684
455.24        21.72655
455.69        21.68559
456.13         21.6079
456.58         21.5402
457.02        21.51944
457.46        21.55979
457.91        21.64538
458.35         21.7189
458.79        21.69723
459.24        21.58643
459.68         21.4071
460.13        21.24006
460.57        21.15206
461.01        21.17534
461.46        21.26716
461.90        21.40531
462.34        21.53544
462.79        21.62613
463.23        21.69776
463.68        21.72445
464.12        21.67852
464.56        21.56179
465.01        21.41513
465.45        21.25437
465.89        21.16026
466.34        21.14421
466.78        21.18057
467.22        21.25785
467.67        21.33196
468.11        21.39644
468.55        21.45157
468.99        21.49004
469.44        21.49824
469.88        21.47824
470.32        21.43055
470.77        21.37414
471.21         21.3463
471.65        21.35414
472.10        21.39113
472.54        21.43922
472.98        21.47536
473.42        21.49165
473.87        21.50185
474.31        21.49689
474.75        21.48318
475.20        21.46931
475.64        21.44561
476.08        21.42601
476.52        21.42146
476.97        21.43393
477.41        21.47096
477.85        21.52839
478.29        21.56586
478.74         21.5956
479.18        21.67733
479.62        21.79009
480.06          21.865
480.50        21.90017
480.95         21.8994
481.39        21.86219
481.83        22.00505
482.27         22.0041
482.72        22.10396
483.16        22.20488
483.60        22.25778
484.04        22.25617
484.48        22.34004
484.93        22.49682
485.37        22.34911
485.81        22.64765
486.25        22.66658
486.69         21.9048
487.14        22.75838
487.58        23.74466
488.02        23.53266
488.46        23.13492
488.90         23.2085
489.34        23.20135
489.79        23.52675
490.23        23.73232
490.67        23.90807
491.11        23.98656
491.55        23.92629
491.99        23.80485
492.43        23.79079
492.88        23.91653
493.32        24.08673
493.76        24.26379
494.20        24.44627
494.64        24.62686
495.08        24.75734
495.52        24.84479
495.96        25.06436
496.41         25.3661
496.85        25.35932
497.29        25.11542
497.73        25.33519
498.17        25.65302
498.61         25.8954
499.05        25.91706
499.49        25.96986
499.93        26.00502
500.37        26.15713
500.82        26.38109
501.26        26.53312
501.70        26.59848
502.14        26.67635
502.58        26.78502
503.02        26.89853
503.46        27.01836
503.90        27.15201
504.34        27.27703
504.78        27.35509
505.22        27.38064
505.66        27.36676
506.10        27.34448
506.54        27.36432
506.98        27.43847
507.42        27.55049
507.86        27.68045
508.30        27.79425
508.74        27.87981
509.18        27.94883
509.62        28.00241
510.06        28.04279
510.50        28.07416
510.94        28.09299
511.38         28.1148
511.82        28.16612
512.26        28.25019
512.70        28.35999
513.14        28.47026
513.58        28.53836
514.02        28.55499
514.46        28.53331
514.90        28.49809
515.34        28.49003
515.78        28.52008
516.22        28.57473
516.66        28.63775
517.10        28.68342
517.54        28.70286
517.98        28.70428
518.42        28.69286
518.86        28.67616
519.30        28.65777
519.74        28.63497
520.18        28.60861
520.62        28.58038
521.06        28.55235
521.50        28.52825
521.93        28.51108
522.37        28.49444
522.81        28.48137
523.25        28.46933
523.69        28.46116
524.13        28.46264
524.57        28.46949
525.01        28.47362
525.45        28.46133
525.89        28.41156
526.32        28.31946
526.76        28.20515
527.20        28.07537
527.64         27.9432
528.08        27.81812
528.52         27.6976
528.96        27.60392
529.40        27.56982
529.83        27.59464
530.27        27.66917
530.71        27.74492
531.15        27.74695
531.59        27.65945
532.03        27.50198
532.46        27.32073
532.90        27.20987
533.34        27.18552
533.78        27.20592
534.22         27.2292
534.66        27.22407
535.09        27.15725
535.53        26.99013
535.97        26.77292
536.41        26.65186
536.85        26.64821
537.28        26.69439
537.72        26.76586
538.16        26.84316
538.60        26.91104
539.04        26.97803
539.47        27.03474
539.91        27.08371
540.35         27.1219
540.79        27.14738
541.22        27.17726
541.66         27.2504
542.10        27.36883
542.54        27.52333
542.97        27.68195
543.41        27.80495
543.85        27.88193
544.29        27.93209
544.72        27.97912
545.16        28.07874
545.60        28.23701
546.04         28.4382
546.47        28.66907
546.91        28.90172
547.35        29.11952
547.79        29.33108
548.22        29.52298
548.66        29.66859
549.10        29.80373
549.53        29.92139
549.97         30.0463
550.41        30.15257
550.84        30.27848
551.28        30.49515
551.72        30.75535
552.15        31.00618
552.59         31.2701
553.03        31.10492
553.46         31.4563
553.90        31.52616
554.34        31.59611
554.77        31.66129
555.21        31.75086
555.65        31.88484
556.08        32.05186
556.52        32.22946
556.96        32.38242
557.39        32.54378
557.83        32.68046
558.27        32.61824
558.70        32.42541
559.14        32.40779
559.57        32.56751
560.01        32.72084
560.45        32.83408
560.88        32.95887
561.32        33.09929
561.75        33.20799
562.19        33.29517
562.63        33.36951
563.06        33.42957
563.50        33.47838
563.93        33.50163
564.37        33.56522
564.80        33.68776
565.24        33.77398
565.68        33.74911
566.11        34.23402
566.55         33.9971
566.98        34.05214
567.42        34.10424
567.85        34.25605
568.29        34.50844
568.72        34.79222
569.16        35.11235
569.60         35.3167
570.03        35.52153
570.47        35.71082
570.90         35.9338
571.34        35.82225
571.77        36.16485
572.21        36.28188
572.64        36.34001
573.08        36.60663
573.51        36.74086
573.95        36.75162
574.38        36.62201
574.82        37.14996
575.25        36.82779
575.69        37.03467
576.12        37.28868
576.56        37.16657
576.99        37.05086
577.42        36.87716
577.86        37.27603
578.29        37.35702
578.73        37.18817
579.16        37.42628
579.60        37.24114
580.03          37.136
580.47        37.07003
580.90        37.20051
581.33        36.86714
581.77        37.02633
582.20        36.21415
582.64        36.65163
583.07        36.52263
583.51         36.5357
583.94        36.40552
584.37        36.24008
584.81        36.09787
585.24         35.8751
585.68        35.72494
586.11        35.39094
586.54        35.63653
586.98        35.48244
587.41        35.21296
587.85        34.98005
588.28        34.82062
588.71        35.06349
589.15        34.78417
589.58        34.82513
590.01        34.84083
590.45        35.05468
590.88        35.34586
591.31        35.17591
591.75        34.70055
592.18        34.57705
592.61        34.79095
593.05        35.16462
593.48        35.31644
593.91        34.87665
594.35        35.08715
594.78         34.9586
595.21        35.41366
595.65        35.66415
596.08        35.93282
596.51        36.08346
596.94        36.00817
597.38        36.13296
597.81        36.42632
598.24        36.71675
598.68        37.00875
599.11        37.24228
599.54         37.4245
599.97        37.57797
600.41         38.1475
600.84        38.33252
601.27        38.87097
601.70        38.99231
602.14        39.57862
602.57         39.9119
603.00        40.33456
603.43        40.22901
603.87        41.14779
604.30         41.6297
604.73        42.21433
605.16        42.02378
605.60        42.62318
606.03        42.84632
606.46        43.18983
606.89        43.30398
607.32        44.34188
607.76        44.60287
608.19        45.10695
608.62        45.37055
609.05         45.6837
609.48        46.14275
609.92        47.30724
610.35        47.22345
610.78        46.66458
611.21        47.35241
611.64        47.43423
612.07        48.06659
612.50        48.32656
612.94        48.65723
613.37        48.92476
613.80        49.10169
614.23        49.04758
614.66        49.07558
615.09        49.83786
615.52        50.15657
615.96        50.20442
616.39        50.47553
616.82        51.02432
617.25        50.84807
617.68        51.25926
618.11        51.50615
618.54        51.82052
618.97        52.19565
619.40        52.46133
619.84        52.73745
620.27        52.53889
620.70        52.63171
621.13        52.83123
621.56        52.70701
621.99        52.32164
622.42         52.2138
622.85        52.46106
623.28        52.61807
623.71        52.64068
624.14        53.15875
624.57        53.41485
625.00        53.04401
625.43        53.36447
625.86        53.17987
626.29        53.05748
626.72        52.29568
627.15        52.48957
627.58        52.27137
628.01        52.03318
628.44        51.89874
628.87        51.90725
629.30        51.36352
629.73         51.2574
630.16        51.28461
630.59        50.90737
631.02        50.74937
631.45        50.55051
631.88        50.29872
632.31        49.96845
632.74        49.58525
633.17        49.15697
633.60        48.67595
634.03        48.15715
634.46        47.61048
634.89        47.06065
635.32        46.55473
635.75        46.10881
636.18        45.66494
636.61        45.23894
637.04         44.8782
637.47        44.57588
637.89        44.30954
638.32        44.02626
638.75        43.68665
639.18        43.28647
639.61        42.84636
640.04        42.41476
640.47         42.0651
640.90        41.81478
641.33        41.64321
641.76        41.52357
642.18        41.41552
642.61        41.29107
643.04        41.16848
643.47        41.05462
643.90        40.95953
644.33        40.88787
644.76        40.83674
645.18        40.80777
645.61        40.79466
646.04         40.8071
646.47        40.85589
646.90        40.95666
647.33        41.12579
647.75        41.34756
648.18        41.64569
648.61        42.03073
649.04        42.37479
649.47        42.63205
649.89         43.4467
650.32        43.63706
650.75        44.08831
651.18         44.4645
651.61        44.77475
652.03        45.12001
652.46        45.73436
652.89        46.56078
653.32        47.25007
653.74        47.72245
654.17        47.87883
654.60        48.54991
655.03        48.60616
655.46        48.00492
655.88        48.93011
656.31         49.9067
656.74        48.33989
657.16        53.23373
657.59        59.12304
658.02        54.24564
658.45        53.20207
658.87        53.12518
659.30        53.10091
659.73        53.65112
660.15        54.91525
660.58        54.17396
661.01        54.31314
661.44         54.6167
661.86        54.76727
662.29         54.7426
662.72        55.38231
663.14         55.5935
663.57        55.81079
664.00        55.81454
664.42        56.08639
664.85        56.64869
665.27        57.25174
665.70        57.73219
666.13        57.98724
666.55        57.98723
666.98        57.71597
667.41        57.30604
667.83        57.34666
668.26        57.30058
668.69        57.57828
669.11        57.95145
669.54        58.31472
669.96        58.62812
670.39        58.98347
670.82        59.32837
671.24        59.45259
671.67        59.42006
672.09        59.41043
672.52        59.50387
672.94        59.83115
673.37        60.27079
673.80        60.29313
674.22        59.98171
674.65        59.95174
675.07        60.25626
675.50        60.50536
675.92        60.64212
676.35        60.74827
676.77        60.81207
677.20        60.80884
677.62        60.79045
678.05         60.8426
678.47        60.98242
678.90        61.19505
679.32        61.43171
679.75        61.62234
680.17        61.74664
680.60        61.83065
681.02        61.91289
681.45        62.05964
681.87        62.29532
682.30        62.54843
682.72        62.79499
683.15        63.04045
683.57         63.2403
684.00        63.21999
684.42        63.05569
684.85        63.04009
685.27        63.19546
685.70        63.38724
686.12         63.5521
686.54        63.66102
686.97        63.69553
687.39        63.66637
687.82        63.59116
688.24        63.56196
688.66        63.60715
689.09        63.51933
689.51        63.65777
689.94        63.74784
690.36        63.89589
690.78        64.07937
691.21        64.29523
691.63         64.5202
692.06        64.73754
692.48        64.95752
692.90        65.14129
693.33        65.20992
693.75        65.14825
694.17         65.0264
694.60        64.92997
695.02        64.80874
695.44        64.74899
695.87        65.18774
696.29        65.92984
696.71        65.95609
697.14        65.36205
697.56        65.21912
697.98         65.5733
698.41        65.73494
698.83        65.69456
699.25        65.89668
699.68        66.25645
700.10         66.4481
700.52        66.40415
700.94        66.37976
701.37        66.18713
701.79        66.20126
702.21        66.36845
702.64         66.6226
703.06        66.89566
703.48        67.07037
703.90        67.11279
704.33        67.06355
704.75        66.95718
705.17        66.83802
705.59        66.74133
706.01        66.66044
706.44         66.6293
706.86        66.73605
707.28        66.97749
707.70        67.27993
708.12        67.60091
708.55        67.96693
708.97        68.30048
709.39        68.36057
709.81        68.19492
710.23        68.13858
710.66        68.22816
711.08        68.30481
711.50        68.30892
711.92        68.24255
712.34        68.10417
712.76        67.91492
713.19        67.73215
713.61        67.68304
714.03         67.7816
714.45        67.99957
714.87        68.28266
715.29        68.54769
715.71          68.761
716.13        68.92448
716.56        69.03746
716.98        69.19826
717.40        69.37949
717.82        69.55643
718.24        69.66038
718.66        69.58564
719.08         69.3381
719.50        68.98917
719.92        68.65469
720.34        68.50404
720.76        68.57828
721.19        68.79935
721.61        69.14959
722.03         69.5427
722.45        69.91833
722.87        70.28078
723.29        70.53817
723.71        70.54691
724.13        70.29854
724.55        69.84779
724.97         69.3418
725.39        69.03226
725.81        68.99298
726.23        69.13969
726.65         69.3948
727.07        69.76865
727.49        69.97134
727.91        70.22234
728.33        70.44341
728.75        70.62611
729.17        70.76292
729.59        70.83788
730.01        70.85426
730.43        70.84045
730.85         70.8083
731.27        70.73589
731.69        70.63834
732.10        70.63174
732.52        70.56257
732.94        70.57626
733.36        70.62149
733.78        70.54454
734.20        70.32558
734.62        70.28166
735.04        70.53936
735.46        69.95052
735.88        70.61222
736.30        70.86791
736.72        71.28346
737.13        71.60929
737.55         71.7391
737.97        71.99602
738.39        72.24921
738.81        71.75824
739.23        70.79239
739.65        70.76051
740.06        71.53342
740.48        71.86898
740.90        71.70325
741.32        71.68784
741.74        71.82866
742.16        72.27718
742.57        72.17017
742.99        72.26543
743.41        72.28336
743.83        72.19001
744.25        71.98716
744.67        71.68573
745.08        71.41564
745.50        71.34346
745.92         71.5101
746.34        71.85793
746.75        72.23863
747.17        72.37889
747.59        72.22573
748.01        71.91547
748.42         71.5813
748.84        71.33053
749.26        71.28399
749.68        71.58939
750.09        72.10178
750.51        72.45859
750.93        72.53259
751.35        72.31841
751.76        71.91704
752.18        71.63818
752.60        71.52619
753.01        71.42917
753.43        71.35873
753.85        71.33953
754.27        71.35367
754.68        71.61939
755.10        72.08776
755.52        71.75049
755.93        71.84422
756.35        71.83189
756.77        72.09677
757.18        72.28219
757.60        72.42685
758.02        72.71976
758.43        72.97079
758.85          72.941
759.26         73.2847
759.68        72.10236
760.10        71.65073
760.51        72.44865
760.93         72.9929
761.34        72.73022
761.76        72.83606
762.18        72.73792
762.59        73.01447
763.01        73.28059
763.42        73.51548
763.84        73.55795
764.26        73.40236
764.67        73.05643
765.09        72.69971
765.50        72.63412
765.92        72.83602
766.33        72.81561
766.75        72.51721
767.16        72.43758
767.58        72.53459
768.00        72.50878
768.41        72.44267
768.83        72.54012
769.24        72.76495
769.66        73.18119
770.07        73.60378
770.49        73.28327
770.90        72.49524
771.32        72.74221
771.73        73.87637
772.15        74.24563
772.56        73.77487
772.97        73.36706
773.39        73.19102
773.80         73.1169
774.22        73.16708
774.63        73.42756
775.05        73.72806
775.46         73.8699
775.88        73.77016
776.29        73.50895
776.70        73.21761
777.12         73.1436
777.53        73.34755
777.95        73.69349
778.36         74.0752
778.77        74.27548
779.19          74.261
779.60        74.13867
780.02        73.92381
780.43        73.75108
780.84         73.6944
781.26        73.32156
781.67        72.87123
782.09        73.60145
782.50        75.12101
782.91        75.31858
783.33        74.26257
783.74        73.90556
784.15          74.322
784.57        74.34172
784.98        74.01681
785.39         73.9788
785.81        74.25694
786.22        74.68617
786.63        75.12561
787.04        75.34769
787.46        75.31512
787.87        75.08402
788.28        74.81554
788.70        74.72534
789.11        74.83858
789.52          75.123
789.93        75.43666
790.35        75.53448
790.76        75.36627
791.17        74.99762
791.58        74.60503
792.00        74.36219
792.41        74.33632
792.82        74.71554
793.23        75.26729
793.65        75.06864
794.06        74.37691
794.47        74.53072
794.88        75.31355
795.29        76.12855
795.71        75.37035
796.12        75.17319
796.53        75.18517
796.94        75.05663
797.35        74.87969
797.76        75.12354
798.18         75.6682
798.59        75.96603
799.00        75.92869
799.41        75.77742
799.82          75.672
800.23        75.61245
800.64        75.65178
801.06        75.72886
801.47        75.81863
801.88        75.78904
802.29        75.60419
802.70        75.29733
803.11         74.9512
803.52        74.69817
803.93        74.60995
804.34        74.68033
804.75        74.83079
805.17        75.05034
805.58        75.37315
805.99        75.34882
806.40        75.14611
806.81        76.09497
807.22        77.72513
807.63        77.56784
808.04        75.88278
808.45        75.20979
808.86        75.73185
809.27        76.05435
809.68         75.9958
810.09        75.93745
810.50        75.84621
810.91        75.61855
811.32          75.426
811.73        75.53828
812.14        75.99349
812.55        76.72594
812.96        77.46942
813.37         77.7141
813.78        77.33474
814.19        76.52934
814.60        75.60527
815.01        74.97604
815.42        74.74185
815.83        74.78465
816.24        75.01391
816.65        75.24918
817.05        75.41249
817.46        75.54007
817.87        75.64475
818.28        75.68345
818.69        75.66127
819.10        75.55629
819.51        75.45985
819.92        75.55599
820.33        75.87558
820.74        76.35873
821.14        76.85996
821.55        77.13499
821.96        77.12667
822.37        76.90455
822.78        76.58392
823.19         76.3653
823.60        76.31738
824.00        76.41016
824.41        76.52781
824.82        76.59533
825.23         76.5686
825.64        76.48145
826.04         76.3763
826.45        76.26471
826.86        76.18204
827.27        76.14544
827.68        76.11879
828.08        76.07389
828.49        75.95613
828.90        75.78242
829.31        75.69875
829.72        75.94437
830.12        76.56989
830.53        77.43748
830.94        78.24497
831.35        78.42726
831.75        77.87522
832.16        76.74318
832.57        75.46148
832.97        74.69457
833.38        74.61999
833.79        75.02621
834.20        75.65872
834.60        76.10155
835.01        76.23029
835.42        76.23249
835.82        76.16921
836.23        76.04906
836.64        75.94453
837.04         75.7762
837.45          75.726
837.86        76.18319
838.26        77.20464
838.67         78.6329
839.08        79.98464
839.48         80.3434
839.89        79.49793
840.29        77.78972
840.70        75.96305
841.11        74.88616
841.51        74.78379
841.92        75.38927
842.33        76.40308
842.73        77.27712
843.14        77.67533
843.54        77.80667
843.95        77.79996
844.35        77.92065
844.76        78.21519
845.17         78.5668
845.57        78.83334
845.98        78.78567
846.38        78.40997
846.79        77.79353
847.19        77.15566
847.60        76.80264
848.00        76.82715
848.41        77.12246
848.81         77.5289
849.22        77.68227
849.62        77.53259
850.03        77.16802
850.43        76.77519
850.84        76.57918
851.24        76.69783
851.65        76.98326
852.05         77.4201
852.46        77.84778
852.86        78.19009
853.27        78.48571
853.67        78.63423
854.07        78.62804
854.48         78.4521
854.88        78.14385
855.29        77.72726
855.69        77.41239
856.10        77.19646
856.50        77.12866
856.90        77.15074
857.31        77.17736
857.71        77.22854
858.12        77.23917
858.52         77.2597
858.92        77.24827
859.33        77.17546
859.73        77.10476
860.13        76.94022
860.54        76.55687
860.94        76.00795
861.34        75.32822
861.75        74.72866
862.15        74.59547
862.55        74.97549
862.96        75.71397
863.36        76.58562
863.76        77.09833
864.17        77.08961
864.57        76.73049
864.97         76.1347
865.38        75.50264
865.78        74.95848
866.18        74.43736
866.58        74.04586
866.99        73.97426
867.39        74.27073
867.79        74.87865
868.19        75.59422
868.60        76.06066
869.00        76.21662
869.40        76.10653
869.80        75.85401
870.21        75.72187
870.61        75.85914
871.01        76.12272
871.41        76.34631
871.81        76.29893
872.22        75.93395
872.62        75.33275
873.02         74.6922
873.42        74.33002
873.82        74.33614
874.22        74.61741
874.63        74.95428
875.03        75.01818
875.43        74.71455
875.83        74.14876
876.23        73.53549
876.63        73.19819
877.03         73.2194
877.44        73.48685
877.84         73.8278
878.24        73.94905
878.64        73.73933
879.04        73.18387
879.44        72.58067
879.84        72.45789
880.24        72.87757
880.64        73.65071
881.04        74.38373
881.44        74.45287
881.84        73.73721
882.24        72.46479
882.65        71.13196
883.05        70.50407
883.45        70.76448
883.85        71.67422
884.25        72.83965
884.65        73.58268
885.05        73.69328
885.45        73.39955
885.85        72.92809
886.25        72.62154
886.65        72.59132
887.05        72.69533
887.45         72.9039
887.85         73.1912
888.25        73.50484
888.65        73.86049
889.04        74.13998
889.44        74.17625
889.84        73.92973
890.24        73.44367
890.64        72.85551
891.04        72.41299
891.44        72.19869
891.84        72.16689
892.24        72.22871
892.64        72.22865
893.04        72.14198
893.44        72.04502
893.83        72.03141
894.23        72.18754
894.63        72.54824
895.03        73.02905
895.43        73.57938
895.83         74.1376
896.23        74.63397
896.63        75.04198
897.02         75.2486
897.42        75.11256
897.82        74.63558
898.22        73.92078
898.62        73.10943
899.01         72.3969
899.41         71.8832
899.81        71.52274
900.21        71.36662
900.61        71.47762
901.00         71.8339
901.40        72.40272
901.80        73.00401
902.20        73.34376
902.59        73.35725
902.99        73.09035
903.39        72.70879
903.79          72.502
904.18        72.53333
904.58         72.7187
904.98        72.95299
905.38        73.08066
905.77        73.07191
906.17        73.02444
906.57        72.93926
906.96        72.81723
907.36        72.66153
907.76        72.45552
908.15        72.37068
908.55        72.65755
908.95         73.3406
909.34        74.35372
909.74        75.29585
910.14        75.60775
910.53        75.13943
910.93        74.07771
911.33        72.82008
911.72        71.97293
912.12        71.76333
912.52        72.03548
912.91        72.48302
913.31        72.65679
913.70        72.44746
914.10        71.94606
914.49        71.52254
914.89        71.70037
915.29        72.60246
915.68        74.04977
916.08        75.43288
916.47        75.83093
916.87        75.07782
917.26        73.48859
917.66        71.81254
918.05        70.99173
918.45        71.24237
918.84        72.32001
919.24        73.70344
919.64        74.60719
920.03        74.77673
920.42        74.41757
920.82        73.91984
921.21        73.82911
921.61         74.2628
922.00        75.05604
922.40        75.86846
922.79        76.29111
923.19        76.16001
923.58        75.66704
923.98        75.05845
924.37        74.60062
924.77        74.39509
925.16        74.31004
925.55        74.30306
925.95        74.28576
926.34        74.24118
926.74        74.20728
927.13        74.10899
927.52        73.74253
927.92        73.15844
928.31        72.41414
928.70        71.76907
929.10        71.59734
929.49        71.94331
929.89        72.61446
930.28        73.49244
930.67        74.23548
931.07        74.67323
931.46        74.99266
931.85        75.01155
932.24        74.50578
932.64        73.56905
933.03        72.25653
933.42         71.1526
933.82        71.10974
934.21         72.2581
934.60        74.40248
934.99        76.82602
935.39        78.20065
935.78        78.16634
936.17        76.96902
936.56        75.30426
936.96        74.30368
937.35        74.27446
937.74          74.888
938.13        75.59794
938.53        75.56597
938.92         74.6228
939.31        73.14195
939.70        71.64548
940.09        70.83231
940.49        70.83644
940.88        71.46487
941.27        72.39836
941.66        73.06687
942.05        73.26917
942.44        73.18381
942.84        73.02809
943.23         73.1304
943.62        73.57894
944.01        74.20287
944.40        74.86852
944.79        75.40193
945.18        75.71124
945.57        75.83557
945.97        75.71226
946.36        75.35613
946.75        74.76649
947.14        74.01576
947.53         73.2171
947.92        72.51009
948.31        71.95387
948.70        71.54753
949.09        71.33949
949.48         71.3913
949.87        71.69749
950.26        72.22091
950.65        72.84638
951.04        73.38734
951.43        73.75648
951.82        73.95168
952.21        73.99651
952.60        73.95456
952.99        73.87595
953.38        73.78915
953.77        73.68395
954.16        73.54847
954.55        73.38527
954.94        73.16391
955.33        73.05483
955.72        73.33255
956.11        74.02638
956.50        75.08319
956.89         76.0239
957.28        76.04975
957.66         75.0162
958.05        73.23064
958.44        71.42292
958.83        70.64813
959.22        71.09967
959.61         72.4892
960.00        74.16574
960.39         74.9121
960.78        74.36451
961.16         72.9187
961.55        71.27912
961.94         70.3563
962.33        70.38952
962.72        71.13875
963.11        72.22103
963.49        72.94708
963.88        72.96681
964.27        72.49502
964.66        71.98492
965.04          72.129
965.43        73.00807
965.82        74.46053
966.21        75.85061
966.60        75.99499
966.98        74.60822
967.37        72.24934
967.76        69.88059
968.15        68.68913
968.53        68.89356
968.92        70.17841
969.31        71.94945
969.69        73.00396
970.08        72.82533
970.47        71.81201
970.86        70.64521
971.24        70.29036
971.63        70.95163
972.02        72.31085
972.40        73.84856
972.79        74.30014
973.17        73.38716
973.56        71.61794
973.95        69.67899
974.33        68.39875
974.72        67.96873
975.11        68.10445
975.49        68.62979
975.88        69.13136
976.26        69.47659
976.65        69.74802
977.04        69.91843
977.42        69.89693
977.81        69.65508
978.19        69.15824
978.58        68.66473
978.96        68.59881
979.35         69.0032
979.74        69.77978
980.12        70.66687
980.51        70.93404
980.89         70.5522
981.28        69.78246
981.66        68.95425
982.05         68.5029
982.43        68.56291
982.82        68.92878
983.20        69.77418
983.59        71.27415
983.97        73.41555
984.35        76.07201
984.74        78.39767
985.12        79.23866
985.51        78.28173
985.89        75.90665
986.28        73.16714
986.66        71.58543
987.04        71.61846
987.43        72.87168
987.81        74.71027
988.20        75.71488
988.58        75.41874
988.96        74.15925
989.35        72.60038
989.73        71.65345
990.12        71.51994
990.50         71.9762
990.88        72.40223
991.27        71.79453
991.65        70.02545
992.03        67.55038
992.42        65.38882
992.80        64.86573
993.18        66.23991
993.56        69.16096
993.95        72.59589
994.33        74.70345
994.71        74.67697
995.10        73.12046
995.48        71.04455
995.86        70.07298
996.24        70.59953
996.63        71.99211
997.01        73.81216
997.39        74.78732
997.77        74.42596
998.15        73.36656
998.54        71.86923
998.92        70.09959
999.30        68.34992
999.68        66.53604
1000.06        65.36001
1000.45        65.83532
1000.83        68.18572
1001.21        72.31604
1001.59        77.11435
1001.97        79.82854
1002.35        79.39378
1002.73        76.55884
1003.12        73.10183
1003.50        71.31316
1003.88        71.81661
1004.26         73.9219
1004.64        76.81447
1005.02        78.73615
1005.40        78.90927
1005.78         78.0278
1006.16        76.44041
1006.54         74.6216
1006.92        72.94199
1007.30        71.29292
1007.69        70.16809
1008.07        70.12625
1008.45        71.36115
1008.83        73.75453
1009.21        76.79103
1009.59        79.00309
1009.97        79.54492
1010.35        78.72271
1010.73        76.78628
1011.11        74.21611
1011.49        71.45369
1011.86        68.55869
1012.24        66.15382
1012.62        64.94418
1013.00         65.0031
1013.38        66.25285
1013.76        68.23151
1014.14        69.65498
1014.52        69.88815
1014.90         69.1657
1015.28        68.11134
1015.66        67.70937
1016.04        68.17152
1016.41        69.17712
1016.79        70.24845
1017.17        70.64309
1017.55        70.13833
1017.93        69.04339
1018.31        67.82874
1018.69        67.06598
1019.06        66.94029
1019.44        67.37533
1019.82        68.04117
1020.20        68.22569
1020.58        67.63617
1020.95        66.33141
1021.33        65.21834
1021.71        65.23724
1022.09        66.54569
1022.46        69.29416
1022.84        72.14155
1023.22        72.04875
1023.60        68.18107
1023.97        61.53994
1024.35        55.64844
1024.73         54.4917
