SpectraSmart Spectrum 2.9.0.0
--------- Device Information -----------
Spectrum Name :  反射率_0
Saving Time :  2024/04/26 22:10:54
Spectro-Module Model Name : SE2030-DUVN
Spectro-Module Serial Number : OS361AC55029948
Wavelength Start : 200
Wavelength End : 1025
Wavelength Unit : Wavelength(nm)
Spectrum Unit : Reflectance(%)
-----------Spectrum Setting ------------
Integration Time : 20ms
Average : 10
Boxcar : 0
Background removal :  enabled
linearity correction :  enabled
SC :  disabled
Intensity correction :  disabled
DWT denoise :  enabled
savitzky-golay :  disabled
FFT :  disabled
Running average :  disabled
Kalman :  disabled
High pass :  disabled
---------------BEGIN--------------------
Wavelength(nm)             Reflectance(%)
200.29               0
200.75        35.02822
201.21        32.36345
201.67        30.84377
202.13        31.25798
202.58        33.51804
203.04        38.16312
203.50        44.48251
203.96        48.86783
204.42        48.65205
204.88         43.7128
205.34        36.53956
205.80         32.8415
206.26        33.98561
206.72        37.66169
207.18        41.11927
207.64        41.85129
208.10        39.53828
208.55        34.73809
209.01        27.16873
209.47        21.40209
209.93        21.31264
210.39        24.32862
210.85        27.75678
211.31        30.67339
211.77        34.00881
212.23        40.58651
212.69        56.98817
213.14        88.31689
213.60        93.17719
214.06        75.33759
214.52        62.72807
214.98        59.30204
215.44        60.79631
215.90        63.92182
216.36        67.37351
216.81        69.00906
217.27        68.37395
217.73        67.36412
218.19        64.22534
218.65        56.10213
219.11        47.06486
219.57        40.10189
220.02        38.61279
220.48        45.11473
220.94        60.08429
221.40        86.86948
221.86        124.0208
222.32        145.2174
222.77        130.3615
223.23        97.67413
223.69         68.3033
224.15        53.98553
224.61        51.34446
225.06        53.92153
225.52        58.13668
225.98        60.48419
226.44        60.49825
226.90        59.60905
227.36        58.24854
227.81        56.87541
228.27        55.91034
228.73        54.92398
229.19        54.07952
229.65        53.68405
230.10        53.66977
230.56        54.03288
231.02        54.47081
231.48        54.46655
231.93         53.9218
232.39        53.29361
232.85         52.7411
233.31        52.59809
233.77        52.84126
234.22        53.22926
234.68        53.74161
235.14        54.50025
235.60        55.46172
236.05        56.77369
236.51        57.66866
236.97        56.67192
237.43         53.4777
237.88        48.56239
238.34        43.63569
238.80        41.71489
239.26        43.88016
239.71        50.45848
240.17        60.35771
240.63        69.22906
241.08        73.81649
241.54        73.43945
242.00        70.17854
242.46        69.52554
242.91        74.98267
243.37        86.92287
243.83        105.5453
244.28        121.3066
244.74        120.4732
245.20        104.2279
245.66        85.41438
246.11        74.64843
246.57        72.23332
247.03        74.66155
247.48         76.9076
247.94        71.69399
248.40        61.12746
248.85        50.28094
249.31         42.4849
249.77        39.01484
250.22         38.9508
250.68        41.45267
251.14        45.66053
251.59        48.36104
252.05        47.94255
252.51        46.13655
252.96          43.647
253.42        41.39855
253.88        39.61924
254.33        37.66726
254.79        37.16136
255.25        39.36605
255.70        43.88705
256.16        50.21614
256.62        55.44738
257.07        55.26387
257.53        51.04107
257.99        45.57481
258.44        41.34656
258.90        40.52051
259.35        42.07723
259.81         44.9996
260.27        47.70537
260.72        48.26488
261.18        46.86206
261.63        44.31641
262.09        41.93926
262.55         40.6849
263.00        40.47076
263.46        40.91134
263.91        41.28894
264.37        40.92708
264.83        39.78791
265.28        38.22329
265.74        36.84146
266.19        36.14942
266.65         36.2436
267.11        36.80011
267.56        37.49909
268.02         37.8371
268.47        37.66167
268.93        37.17365
269.38        36.44849
269.84        35.65004
270.30        34.84823
270.75        33.97306
271.21         33.1898
271.66        32.71209
272.12        32.55749
272.57        32.65802
273.03        32.75667
273.48         32.4146
273.94        31.60935
274.39        30.48414
274.85        29.37038
275.31         28.6116
275.76        28.24882
276.22         28.1625
276.67        28.18119
277.13        28.13786
277.58        27.92988
278.04        27.64145
278.49        27.23277
278.95        26.74232
279.40        26.15833
279.86        25.54677
280.31        24.91729
280.77        24.37713
281.22        23.91895
281.68        23.56583
282.13        23.29534
282.59        23.14015
283.04        23.05757
283.50        23.03755
283.95        23.01377
284.41          22.894
284.86        22.65458
285.32        22.34319
285.77        21.98805
286.22        21.67875
286.68        21.43923
287.13        21.22647
287.59        21.04458
288.04        20.86216
288.50         20.6903
288.95        20.51761
289.41        20.35803
289.86         20.1779
290.32        19.99749
290.77        19.81207
291.22        19.64431
291.68        19.51595
292.13        19.43251
292.59        19.41258
293.04        19.45429
293.50        19.57249
293.95        19.75774
294.40        19.99456
294.86        20.29599
295.31        20.67653
295.77        21.12699
296.22        21.63025
296.68        22.10847
297.13        22.43283
297.58        22.59589
298.04        22.64411
298.49        22.69648
298.95        22.95713
299.40        23.45585
299.85         24.1173
300.31        24.81932
300.76         25.3687
301.21        25.71187
301.67        25.91974
302.12        26.02808
302.58        26.13925
303.03        26.26912
303.48        26.40527
303.94        26.55536
304.39        26.71217
304.84        26.87807
305.30        27.06439
305.75        27.24587
306.20        27.42158
306.66        27.59099
307.11        27.74267
307.57        27.86032
308.02        27.88775
308.47         27.8293
308.93         27.7037
309.38         27.5634
309.83        27.52684
310.29        27.61213
310.74        27.78484
311.19        27.94767
311.65        27.93646
312.10        27.71816
312.55        27.34888
313.00         26.9572
313.46        26.73469
313.91        26.70876
314.36        26.82336
314.82        26.96094
315.27        26.93755
315.72         26.7063
316.18        26.34134
316.63        25.93298
317.08        25.62996
317.53        25.47042
317.99          25.398
318.44        25.36699
318.89        25.29675
319.35        25.15815
319.80        24.97841
320.25        24.76766
320.70        24.53784
321.16        24.29735
321.61        24.04941
322.06        23.79898
322.51        23.56267
322.97        23.34233
323.42        23.13627
323.87        22.95851
324.32        22.83098
324.78        22.74434
325.23        22.70774
325.68        22.64973
326.13          22.459
326.59        22.11959
327.04         21.6746
327.49        21.23707
327.94        20.98632
328.39        20.95604
328.85        21.08704
329.30        21.27942
329.75        21.30954
330.20        21.11132
330.66        20.74739
331.11        20.33222
331.56        20.03364
332.01        19.90333
332.46         19.8872
332.92        19.91783
333.37        19.91513
333.82        19.83363
334.27         19.7078
334.72        19.56326
335.17        19.43476
335.63        19.33474
336.08         19.2588
336.53        19.19175
336.98        19.12247
337.43        19.04549
337.88         18.9588
338.34        18.88082
338.79        18.85907
339.24        18.89036
339.69        18.96255
340.14        19.01157
340.59        18.93611
341.05        18.72974
341.50        18.42902
341.95        18.12471
342.40        17.95514
342.85         17.9507
343.30        18.06403
343.75        18.22842
344.20        18.33464
344.66        18.34812
345.11        18.29961
345.56        18.20845
346.01         18.1061
346.46        18.01292
346.91        17.92159
347.36        17.84621
347.81        17.81398
348.26        17.82744
348.72        17.87897
349.17        17.95335
349.62         18.0322
350.07        18.10416
350.52        18.17369
350.97        18.21378
351.42        18.18478
351.87        18.08595
352.32        17.92982
352.77        17.77298
353.22        17.70045
353.67         17.7261
354.13         17.8278
354.58        17.94223
355.03        17.96687
355.48        17.87774
355.93        17.71182
356.38        17.52816
356.83        17.41491
357.28        17.39178
357.73        17.42553
358.18        17.47902
358.63        17.49424
359.08           17.45
359.53        17.36411
359.98         17.2482
360.43        17.11689
360.88        16.97662
361.33         16.8227
361.78        16.65771
362.23        16.48902
362.68        16.32513
363.13        16.17479
363.58        16.04368
364.03        15.93544
364.48        15.84928
364.93        15.77999
365.38        15.73061
365.83        15.70576
366.28        15.70127
366.73        15.71314
367.18        15.71507
367.63        15.66809
368.08        15.56699
368.53        15.42273
368.98        15.27352
369.43        15.18141
369.88        15.15965
370.33        15.19019
370.78        15.23384
371.23        15.22405
371.68         15.1432
372.13        15.01293
372.58        14.86566
373.03        14.75329
373.48        14.68917
373.93        14.65276
374.38        14.62626
374.83        14.58272
375.28          14.513
375.72        14.42622
376.17         14.3316
376.62        14.22127
377.07        14.10011
377.52        13.97061
377.97        13.85318
378.42        13.78414
378.87        13.76774
379.32        13.78728
379.77        13.81844
380.22        13.82436
380.67        13.79234
381.11         13.7355
381.56        13.64594
382.01        13.52915
382.46        13.39911
382.91         13.2646
383.36        13.14745
383.81        13.07528
384.26        13.05016
384.71        13.06286
385.15        13.09987
385.60        13.14037
386.05        13.17129
386.50         13.1957
386.95        13.20293
387.40        13.18046
387.85        13.12867
388.29        13.04165
388.74        12.95659
389.19         12.8968
389.64        12.86551
390.09        12.85579
390.54        12.84328
390.98        12.78376
391.43        12.68217
391.88        12.55728
392.33          12.442
392.78        12.38159
393.23          12.381
393.67        12.41307
394.12        12.46635
394.57        12.50078
395.02        12.50352
395.47         12.4798
395.91        12.43442
396.36        12.36813
396.81        12.29537
397.26        12.22104
397.71        12.14688
398.15        12.08257
398.60        12.04594
399.05         11.9854
399.50        11.92297
399.95        11.97718
400.39        12.10877
400.84        12.09563
401.29        11.94191
401.74        11.84467
402.18        11.81541
402.63        11.73558
403.08        11.62524
403.53        11.56934
403.97         11.5751
404.42        11.61927
404.87        11.67338
405.32        11.68863
405.76        11.65106
406.21        11.58243
406.66        11.50676
407.11        11.46348
407.55        11.46564
408.00        11.49372
408.45        11.53087
408.90        11.54253
409.34        11.51717
409.79        11.46875
410.24        11.41183
410.68        11.36121
411.13        11.32512
411.58        11.29684
412.03        11.27016
412.47        11.23858
412.92         11.1973
413.37        11.15297
413.81        11.11161
414.26        11.08867
414.71        11.08156
415.15        11.08838
415.60        11.09195
416.05         11.0719
416.49        11.02422
416.94        10.95339
417.39        10.87873
417.83        10.82909
418.28        10.80922
418.73        10.81069
419.17        10.81607
419.62        10.79638
420.07        10.74713
420.51         10.6785
420.96        10.60952
421.41        10.56705
421.85        10.55227
422.30        10.55008
422.74        10.54699
423.19        10.57395
423.64        10.60933
424.08        10.59304
424.53        10.52462
424.98        10.48892
425.42        10.49849
425.87        10.47943
426.31        10.43945
426.76        10.46832
427.21        10.53625
427.65        10.49624
428.10        10.37408
428.54        10.31782
428.99        10.33928
429.44        10.38976
429.88         10.4395
430.33        10.40355
430.77        10.31047
431.22        10.35275
431.66        10.50241
432.11        10.52864
432.56        10.42352
433.00        10.34112
433.45        10.27021
433.89         10.1276
434.34        10.00746
434.78        9.835649
435.23        10.13622
435.67        10.21373
436.12        10.19466
436.57        10.12417
437.01        10.02665
437.46        9.948315
437.90        9.898614
438.35        9.835038
438.79        9.770523
439.24        9.757216
439.68        9.797587
440.13        9.877839
440.57        9.966123
441.02        10.01684
441.46        10.01526
441.91        9.947721
442.35        9.849597
442.80        9.866117
443.24        9.963202
443.69         9.96043
444.13         9.85771
444.58        9.814563
445.02        9.831337
445.47        9.817705
445.91        9.782633
446.36         9.78639
446.80        9.828132
447.24         9.88905
447.69        9.945467
448.13        9.955895
448.58        9.915484
449.02        9.838174
449.47        9.751775
449.91        9.695724
450.36        9.683041
450.80        9.699598
451.25        9.732386
451.69        9.755725
452.13         9.76278
452.58        9.761592
453.02        9.754752
453.47        9.747252
453.91        9.741395
454.36        9.734352
454.80        9.726584
455.24        9.718755
455.69        9.713503
456.13        9.703835
456.58        9.697628
457.02        9.689941
457.46        9.684633
457.91        9.681059
458.35        9.668765
458.79         9.63203
459.24        9.580018
459.68        9.513805
460.13        9.459548
460.57        9.429725
461.01        9.435627
461.46        9.461064
461.90        9.504952
462.34        9.554494
462.79        9.599142
463.23        9.645945
463.68        9.672581
464.12        9.650593
464.56        9.578712
465.01        9.481473
465.45        9.382068
465.89        9.338733
466.34        9.358361
466.78        9.422307
467.22        9.506681
467.67        9.558516
468.11        9.566915
468.55        9.543969
468.99        9.507578
469.44        9.485766
469.88        9.487736
470.32        9.501807
470.77        9.524629
471.21         9.55485
471.65        9.587053
472.10        9.624608
472.54        9.655125
472.98        9.662166
473.42        9.645144
473.87        9.614657
474.31        9.579177
474.75        9.562388
475.20        9.572546
475.64        9.597927
476.08        9.638101
476.52        9.686745
476.97        9.739024
477.41         9.80001
477.85        9.861257
478.29         9.89379
478.74        9.902648
479.18        9.918395
479.62        9.942486
480.06        9.963765
480.50         9.98514
480.95         9.99908
481.39        10.00151
481.83         10.0876
482.27         10.1082
482.72        10.17808
483.16         10.2434
483.60        10.28241
484.04        10.28276
484.48         10.3026
484.93        10.38778
485.37        10.39723
485.81        10.54557
486.25        10.87722
486.69        10.04712
487.14        10.33078
487.58        11.29412
488.02         11.2959
488.46        10.89171
488.90        10.87204
489.34        10.91358
489.79        11.09012
490.23        11.14991
490.67        11.28407
491.11         11.4317
491.55        11.44796
491.99        11.38041
492.43        11.41457
492.88        11.56702
493.32        11.72705
493.76        11.86346
494.20        11.98868
494.64        12.09732
495.08        12.15839
495.52        12.19602
495.96        12.33138
496.41        12.54631
496.85        12.63953
497.29        12.61228
497.73         12.7671
498.17         12.9121
498.61        12.97328
499.05        12.91619
499.49        12.92934
499.93        13.00294
500.37        13.18668
500.82        13.41808
501.26        13.55757
501.70        13.58334
502.14        13.56923
502.58        13.56536
503.02        13.62352
503.46        13.75854
503.90        13.94809
504.34        14.14779
504.78        14.28455
505.22         14.3372
505.66        14.33121
506.10        14.29189
506.54        14.25941
506.98        14.25116
507.42        14.25572
507.86        14.28059
508.30        14.33838
508.74        14.42679
509.18        14.54298
509.62        14.66398
510.06        14.75017
510.50        14.79197
510.94        14.79916
511.38        14.78916
511.82        14.79285
512.26        14.81995
512.70        14.86083
513.14        14.91078
513.58        14.96177
514.02        15.00972
514.46        15.05893
514.90        15.10341
515.34        15.13266
515.78        15.14444
516.22         15.1382
516.66        15.12526
517.10        15.12524
517.54        15.14197
517.98        15.17165
518.42        15.19694
518.86        15.18935
519.30        15.14546
519.74        15.07647
520.18        15.00781
520.62         14.9784
521.06        14.99642
521.50        15.04903
521.93        15.11369
522.37        15.14711
522.81        15.13909
523.25        15.10072
523.69        15.04796
524.13        15.00589
524.57        14.98094
525.01        14.96366
525.45        14.94461
525.89        14.90998
526.32        14.85536
526.76        14.79164
527.20        14.72508
527.64        14.66478
528.08        14.61444
528.52         14.5716
528.96        14.53517
529.40        14.50373
529.83        14.47524
530.27        14.44928
530.71        14.42363
531.15        14.39605
531.59        14.36573
532.03        14.33294
532.46        14.29349
532.90        14.25132
533.34        14.20661
533.78        14.15417
534.22        14.10129
534.66        14.07605
535.09        14.07027
535.53        14.04628
535.97        14.00773
536.41         13.9974
536.85         14.0157
537.28        14.03737
537.72        14.05681
538.16        14.07516
538.60         14.0905
539.04        14.10457
539.47        14.11538
539.91        14.12902
540.35        14.14606
540.79        14.16757
541.22        14.20141
541.66        14.26481
542.10        14.35647
542.54        14.46959
542.97        14.58822
543.41        14.69283
543.85         14.7767
544.29        14.84832
544.72        14.91186
545.16        14.98583
545.60        15.07277
546.04        15.16879
546.47        15.28104
546.91        15.41698
547.35        15.57274
547.79        15.74634
548.22         15.9158
548.66        16.04432
549.10        16.14585
549.53        16.22194
549.97        16.29844
550.41        16.38028
550.84        16.49214
551.28        16.66712
551.72        16.86498
552.15        17.03457
552.59        17.18464
553.03        17.08049
553.46        17.26037
553.90        17.31426
554.34        17.40204
554.77        17.51099
555.21        17.63842
555.65        17.76487
556.08        17.87584
556.52        17.96856
556.96        18.03759
557.39        18.12358
557.83        18.21371
558.27         18.2023
558.70        18.11898
559.14        18.12191
559.57        18.20884
560.01        18.28327
560.45        18.32989
560.88        18.38116
561.32        18.44315
561.75        18.49067
562.19        18.53236
562.63        18.57757
563.06        18.62649
563.50         18.6786
563.93        18.72617
564.37        18.80556
564.80        18.92373
565.24        19.02414
565.68        19.05571
566.11        19.35435
566.55        19.22259
566.98        19.24621
567.42        19.26687
567.85        19.34053
568.29        19.48002
568.72        19.67452
569.16        19.91251
569.60        20.07899
570.03        20.24144
570.47         20.3733
570.90        20.48546
571.34        20.56675
571.77        20.68389
572.21        20.76887
572.64        20.77583
573.08         21.0026
573.51        21.27682
573.95        21.36442
574.38         21.2804
574.82        21.46689
575.25         21.3532
575.69        21.51364
576.12         21.7064
576.56         21.7789
576.99        21.77582
577.42         21.5626
577.86        21.54959
578.29        21.96392
578.73         21.7758
579.16        21.97272
579.60        21.66152
580.03        21.68086
580.47        21.54901
580.90        21.72575
581.33        21.57032
581.77        21.49007
582.20        20.93093
582.64        21.08993
583.07        21.14012
583.51        21.20572
583.94        21.10886
584.37        20.98692
584.81        20.86399
585.24        20.69554
585.68        20.58578
586.11        20.34133
586.54        20.43371
586.98        20.40248
587.41        20.39755
587.85        20.22892
588.28        19.93953
588.71        20.08435
589.15        20.01339
589.58        19.82731
590.01        20.13739
590.45        19.93185
590.88        20.07164
591.31        19.94514
591.75        19.83896
592.18        19.78187
592.61        19.73156
593.05        20.19991
593.48        20.22266
593.91        19.99381
594.35        20.13787
594.78         20.1035
595.21        20.15973
595.65        20.26605
596.08        20.50748
596.51        20.59554
596.94        20.80008
597.38         20.9656
597.81        21.16785
598.24        21.35076
598.68        21.54498
599.11        21.63769
599.54        22.06414
599.97        21.88302
600.41        22.53714
600.84        22.63564
601.27        22.91408
601.70        23.13074
602.14        23.38274
602.57        23.72119
603.00        24.23698
603.43        24.28255
603.87          24.831
604.30        25.23504
604.73         25.7841
605.16        25.86997
605.60        26.26448
606.03        26.44148
606.46        26.61301
606.89        27.21522
607.32        27.62596
607.76        28.08588
608.19        28.37463
608.62        28.67798
609.05        29.04537
609.48        29.31456
609.92        29.87776
610.35        30.22886
610.78         30.0861
611.21        30.63793
611.64        30.84173
612.07        31.26709
612.50        31.43265
612.94        31.86583
613.37        32.12942
613.80        32.33192
614.23         32.4235
614.66        32.72346
615.09        33.20104
615.52        33.52343
615.96        33.68701
616.39        33.90982
616.82        34.21422
617.25        34.53054
617.68        34.83748
618.11        35.08897
618.54        35.29794
618.97        35.55113
619.40        35.82264
619.84        36.12732
620.27        36.12551
620.70        36.25227
621.13        36.40139
621.56        36.38425
621.99        36.26011
622.42         36.3406
622.85        36.62234
623.28        36.72239
623.71        36.91539
624.14        36.93639
624.57        37.08703
625.00        37.04992
625.43         37.0779
625.86        37.01641
626.29        36.94282
626.72        36.73565
627.15        36.70666
627.58        36.59401
628.01        36.46093
628.44        36.29178
628.87        36.09069
629.30        35.75227
629.73        35.51482
630.16        35.27384
630.59        35.09652
631.02         34.9542
631.45        34.80277
631.88        34.56799
632.31         34.2262
632.74        33.80205
633.17        33.32764
633.60        32.85064
634.03        32.39193
634.46        31.97249
634.89         31.5202
635.32         31.0919
635.75        30.64051
636.18        30.16668
636.61        29.69117
637.04        29.27315
637.47        28.91761
637.89        28.60321
638.32        28.28711
638.75         27.9305
639.18        27.52879
639.61        27.10042
640.04        26.69203
640.47        26.37144
640.90        26.15152
641.33        26.01305
641.76        25.91118
642.18        25.77559
642.61        25.58128
643.04        25.35302
643.47        25.13528
643.90        24.99906
644.33        24.96028
644.76        24.99553
645.18        25.06256
645.61        25.08856
646.04        25.05978
646.47        25.00334
646.90        24.96313
647.33        25.00399
647.75         25.1383
648.18        25.36868
648.61         25.6745
649.04        25.95066
649.47        26.14966
649.89         26.6327
650.32        26.73154
650.75        27.10789
651.18        27.54726
651.61        28.02283
652.03        28.49529
652.46        28.87407
652.89         29.2065
653.32        29.57793
653.74        29.93251
654.17        30.42066
654.60        30.83306
655.03        30.84044
655.46        30.94148
655.88        31.58464
656.31        32.31553
656.74        30.76174
657.16        34.11729
657.59        38.05172
658.02        35.21597
658.45        35.22172
658.87        34.98384
659.30        35.50495
659.73        35.72066
660.15         36.3148
660.58        36.26065
661.01        36.54894
661.44        36.98507
661.86         37.1358
662.29        37.06361
662.72        37.62182
663.14        38.06565
663.57          38.454
664.00        38.59527
664.42        38.92321
664.85        39.45327
665.27         39.9612
665.70        40.36486
666.13        40.66417
666.55        40.84746
666.98        40.88409
667.41        40.82012
667.83        40.99398
668.26        41.00765
668.69        41.18855
669.11        41.41606
669.54        41.67584
669.96        41.95488
670.39        42.31355
670.82        42.70009
671.24        42.87254
671.67        42.87457
672.09        43.01988
672.52        43.32235
672.94        43.52853
673.37        43.64521
673.80        43.82507
674.22        44.06637
674.65        44.25712
675.07        44.39758
675.50        44.51285
675.92        44.61429
676.35        44.71044
676.77         44.8113
677.20        44.91072
677.62        45.02184
678.05        45.16639
678.47        45.34413
678.90        45.55157
679.32        45.76548
679.75        45.95039
680.17        46.08453
680.60        46.20496
681.02        46.33535
681.45        46.41537
681.87        46.45288
682.30        46.79176
682.72        46.87508
683.15        47.01078
683.57        47.04241
684.00        47.03959
684.42        47.05251
684.85        47.14412
685.27        47.32523
685.70        47.58627
686.12        47.85968
686.54        48.02339
686.97        48.07203
687.39        48.08667
687.82        48.07756
688.24        48.08954
688.66        48.14912
689.09         47.9957
689.51        48.12333
689.94        48.19051
690.36        48.34286
690.78        48.54015
691.21        48.76612
691.63        48.98138
692.06        49.16826
692.48        49.34623
692.90         49.4878
693.33        49.55787
693.75         49.5578
694.17        49.47544
694.60        49.40129
695.02        49.49454
695.44        49.76193
695.87        50.15304
696.29        50.55391
696.71         50.6534
697.14        50.48811
697.56        50.41622
697.98        50.51499
698.41        50.62749
698.83        50.76439
699.25        51.08792
699.68        51.47697
700.10        51.68486
700.52        51.65105
700.94        51.46267
701.37        51.25612
701.79        51.25575
702.21        51.50805
702.64         51.9292
703.06        52.40501
703.48        52.73252
703.90        52.85114
704.33         52.8428
704.75        52.78435
705.17        52.74628
705.59         52.7594
706.01         52.9662
706.44         53.0671
706.86        53.28238
707.28        53.48678
707.70        53.81176
708.12        54.23249
708.55         54.1637
708.97        54.39932
709.39        54.44247
709.81        54.54589
710.23        54.63189
710.66        54.71007
711.08        54.83386
711.50        54.95419
711.92        55.00247
712.34        54.97425
712.76        54.90623
713.19        54.83002
713.61        54.82624
714.03         54.9058
714.45        55.05069
714.87        55.25227
715.29        55.49953
715.71         55.7747
716.13        56.06742
716.56        56.34132
716.98        56.57165
717.40         56.7022
717.82        56.81047
718.24        56.90265
718.66        56.59431
719.08        56.50638
719.50        56.26567
719.92        56.11257
720.34         55.9683
720.76        55.92982
721.19        56.28768
721.61        56.96182
722.03        57.46632
722.45        57.71232
722.87        57.93013
723.29        58.08963
723.71        58.05044
724.13        57.82622
724.55        57.46547
724.97        57.08829
725.39        56.89251
725.81        56.93001
726.23        57.15375
726.65          57.469
727.07        57.78833
727.49          57.877
727.91        58.06135
728.33        58.28451
728.75        58.44997
729.17        58.55419
729.59        58.64701
730.01        58.72926
730.43        58.77592
730.85        58.78875
731.27        58.77822
731.69        58.75237
732.10        58.72085
732.52        58.68538
732.94        58.65613
733.36         58.6515
733.78        58.58233
734.20        58.45013
734.62        58.50726
735.04        58.81312
735.46        58.39837
735.88        58.99511
736.30        59.06646
736.72        59.19018
737.13        59.63166
737.55         60.2169
737.97        60.59404
738.39        60.61901
738.81        60.05878
739.23          59.199
739.65        59.14863
740.06        59.82146
740.48        60.13334
740.90        60.03405
741.32        60.14557
741.74        60.61734
742.16        60.87785
742.57        60.93336
742.99        60.88803
743.41        60.78715
743.83         60.6787
744.25        60.59322
744.67        60.51079
745.08        60.46409
745.50        60.49054
745.92        60.59224
746.34        60.74437
746.75        60.91463
747.17        61.00565
747.59        60.99963
748.01        61.01422
748.42        61.02547
748.84        60.81915
749.26        60.51253
749.68        60.48469
750.09        60.72224
750.51        61.00499
750.93         61.1994
751.35        61.09821
751.76        60.75391
752.18        60.54719
752.60        60.50184
753.01        60.39461
753.43        60.22618
753.85        60.12976
754.27        60.12016
754.68         60.2799
755.10        60.39046
755.52        60.57486
755.93        60.74184
756.35        60.88328
756.77        61.05826
757.18        61.21727
757.60        61.35206
758.02           61.74
758.43        62.27556
758.85        61.56128
759.26        61.77346
759.68        60.98323
760.10        60.46275
760.51        60.73104
760.93        61.95575
761.34         61.2592
761.76        62.13571
762.18        62.27433
762.59        62.18557
763.01        62.27095
763.42        62.39494
763.84         62.5578
764.26        62.64784
764.67        62.22526
765.09        61.56532
765.50         61.5709
765.92        62.13506
766.33        62.30615
766.75        61.98103
767.16        61.65453
767.58        61.43568
768.00        61.59838
768.41        61.91006
768.83        62.23168
769.24        62.37965
769.66        62.43724
770.07         62.4116
770.49        62.21459
770.90        61.99967
771.32        62.28204
771.73        62.94062
772.15        63.20251
772.56        63.02426
772.97        62.80424
773.39          62.667
773.80        62.65556
774.22        62.78723
774.63        63.08238
775.05         63.3984
775.46        63.57535
775.88        63.53918
776.29        63.36611
776.70        63.14288
777.12        63.03326
777.53        63.08847
777.95        63.21491
778.36        63.37496
778.77        63.47088
779.19        63.49133
779.60        63.49643
780.02        63.45021
780.43        63.38069
780.84        63.32508
781.26        62.97264
781.67        62.53292
782.09        63.02288
782.50        64.15713
782.91        64.28214
783.33        63.45769
783.74        63.21429
784.15        63.60486
784.57        63.72631
784.98        63.59425
785.39        63.62832
785.81        63.85176
786.22        64.20057
786.63        64.55989
787.04        64.72829
787.46        64.68486
787.87        64.44386
788.28        64.13042
788.70        64.16514
789.11        64.10933
789.52        64.37772
789.93         64.7005
790.35        64.75915
790.76        64.54179
791.17        64.31082
791.58         64.2252
792.00        64.19773
792.41        64.24604
792.82        64.78549
793.23        65.48653
793.65        64.98367
794.06        63.69923
794.47        63.59713
794.88        64.49091
795.29        65.59948
795.71        64.88386
796.12        64.86381
796.53        65.76301
796.94        65.47242
797.35         64.4743
797.76        64.59297
798.18        65.71967
798.59        66.13078
799.00        65.69949
799.41        65.39972
799.82        65.35765
800.23        65.33412
800.64        65.35825
801.06        65.46167
801.47        65.60953
801.88        65.65956
802.29        65.57093
802.70        65.35742
803.11        65.09243
803.52        64.90974
803.93        64.87451
804.34        64.97099
804.75        65.11889
805.17        65.30549
805.58        65.55883
805.99        65.45512
806.40        65.16723
806.81        65.96557
807.22        67.42046
807.63        67.22551
808.04        65.60017
808.45        64.88507
808.86        65.24869
809.27        65.39037
809.68        65.21375
810.09        65.20313
810.50        65.34796
810.91        65.50734
811.32        65.71281
811.73        66.01651
812.14        66.40205
812.55        66.85078
812.96        67.22954
813.37         67.2871
813.78         66.9794
814.19        66.42408
814.60         65.7932
815.01        65.30957
815.42        65.03145
815.83        64.90011
816.24        64.91099
816.65        65.04214
817.05        65.26655
817.46        65.56477
817.87        65.86121
818.28         65.9915
818.69        65.92756
819.10        65.68967
819.51        65.41356
819.92        65.36089
820.33        65.59612
820.74        66.03449
821.14        66.52074
821.55        66.79887
821.96        66.80175
822.37        66.60991
822.78        66.32412
823.19         66.1133
823.60        66.04304
824.00        66.08883
824.41        66.16824
824.82        66.24826
825.23        66.29669
825.64         66.3263
826.04        66.36338
826.45        66.40299
826.86        66.45893
827.27        66.54152
827.68        66.58739
828.08        66.52084
828.49        66.29031
828.90        65.93855
829.31        65.63611
829.72        65.66409
830.12        66.09257
830.53        66.78056
830.94        67.48198
831.35        67.72217
831.75        67.39835
832.16        66.65041
832.57        65.76212
832.97        65.16615
833.38        64.99795
833.79        65.10786
834.20        65.42035
834.60        65.81333
835.01        66.21766
835.42        66.71351
835.82        67.18349
836.23        67.33618
836.64        67.14822
837.04        66.65164
837.45        66.13529
837.86        66.14604
838.26        66.81482
838.67        67.95253
839.08        69.13969
839.48        69.57519
839.89        69.04304
840.29        67.82728
840.70        66.51186
841.11        65.75986
841.51        65.74579
841.92        66.25108
842.33        67.02232
842.73        67.61252
843.14        67.76007
843.54        67.65833
843.95        67.46451
844.35        67.47657
844.76        67.74371
845.17        68.13841
845.57        68.51434
845.98         68.6216
846.38        68.42283
846.79        68.01596
847.19        67.52551
847.60        67.12011
848.00        66.87516
848.41        66.71091
848.81        66.65644
849.22        66.68007
849.62        66.79314
850.03        66.99803
850.43          67.209
850.84        67.21097
851.24        67.00949
851.65        66.59509
852.05        66.21532
852.46        66.20881
852.86        66.64528
853.27        67.38584
853.67         68.1148
854.07         68.5134
854.48        68.49202
854.88        68.17936
855.29         67.6772
855.69        67.30074
856.10        67.09982
856.50        67.06333
856.90        67.10334
857.31         67.0953
857.71        67.04932
858.12        66.95073
858.52         66.8802
858.92        66.84758
859.33        66.83882
859.73        66.87921
860.13        66.87672
860.54        66.71065
860.94        66.40884
861.34        66.00494
861.75        65.61904
862.15        65.48677
862.55        65.63835
862.96        65.96524
863.36        66.39102
863.76        66.70057
864.17        66.79862
864.57        66.76823
864.97        66.57568
865.38        66.17973
865.78         65.6395
866.18        64.97986
866.58        64.36575
866.99        64.09225
867.39        64.26063
867.79         64.7762
868.19         65.4907
868.60        66.14833
869.00        66.68561
869.40        67.12635
869.80        67.44377
870.21        67.59676
870.61         67.6304
871.01        67.49305
871.41        67.19638
871.81        66.76551
872.22        66.22369
872.62        65.59457
873.02        64.99632
873.42        64.61123
873.82        64.49353
874.22        64.60115
874.63        64.80228
875.03        64.89553
875.43        64.80286
875.83        64.56981
876.23        64.28556
876.63        64.09576
877.03        64.04263
877.44        64.06028
877.84         64.0897
878.24        64.05914
878.64        63.91282
879.04        63.54632
879.44        63.15413
879.84        63.14177
880.24        63.53334
880.64        64.15445
881.04        64.71647
881.44        64.77783
881.84        64.24379
882.24        63.27741
882.65        62.21017
883.05        61.54819
883.45        61.44303
883.85        61.77413
884.25        62.34092
884.65        62.79069
885.05        62.99833
885.45        63.04974
885.85        63.08272
886.25        63.30948
886.65        63.76326
887.05        64.34573
887.45        64.86176
887.85        65.01283
888.25        64.73212
888.65        64.12726
889.04        63.42844
889.44        63.01099
889.84        62.96145
890.24        63.19342
890.64         63.5241
891.04        63.64521
891.44        63.48564
891.84        63.15915
892.24        62.84485
892.64        62.80019
893.04        63.08221
893.44        63.60315
893.83        64.22319
894.23        64.66858
894.63        64.87083
895.03        64.87415
895.43        64.80774
895.83        64.89261
896.23        65.16285
896.63        65.52438
897.02        65.78136
897.42        65.65707
897.82        65.11166
898.22        64.29709
898.62         63.4185
899.01        62.75782
899.41         62.4179
899.81        62.30941
900.21        62.38328
900.61        62.55603
901.00        62.76987
901.40        63.03143
901.80        63.27898
902.20        63.40642
902.59        63.40203
902.99        63.28294
903.39        63.09299
903.79        62.91661
904.18        62.78429
904.58        62.68094
904.98        62.67121
905.38        62.85755
905.77        63.24134
906.17         63.8093
906.57        64.37404
906.96        64.61889
907.36        64.46438
907.76        64.01428
908.15        63.54491
908.55        63.48197
908.95        63.92243
909.34        64.72548
909.74        65.58075
910.14        66.06853
910.53        66.02543
910.93        65.59683
911.33         64.9099
911.72        64.14506
912.12        63.46622
912.52        62.86594
912.91         62.3621
913.31        61.99179
913.70        61.77274
914.10        61.67942
914.49        61.84634
914.89        62.40023
915.29        63.32899
915.68        64.54834
916.08        65.66577
916.47        66.10678
916.87        65.76492
917.26        64.80807
917.66        63.69714
918.05        62.99637
918.45        62.85948
918.84        63.17017
919.24        63.68595
919.64        64.09825
920.03        64.29565
920.42        64.34436
920.82        64.37656
921.21        64.53643
921.61        64.83511
922.00        65.22343
922.40        65.53164
922.79        65.63163
923.19        65.46247
923.58        65.11774
923.98        64.72655
924.37         64.4077
924.77        64.22117
925.16        64.09905
925.55        64.05806
925.95        64.10218
926.34        64.22734
926.74        64.41396
927.13        64.54293
927.52        64.35738
927.92        63.87741
928.31        63.18196
928.70        62.50641
929.10        62.18646
929.49        62.27932
929.89        62.62507
930.28         63.1734
930.67        63.71986
931.07        64.13609
931.46        64.55312
931.85        64.76246
932.24        64.47813
932.64        63.74667
933.03        62.64275
933.42        61.65607
933.82        61.50094
934.21        62.30164
934.60        63.89523
934.99        65.75189
935.39        66.89058
935.78        67.03981
936.17        66.36362
936.56        65.33887
936.96        64.73967
937.35        64.76805
937.74        65.18579
938.13        65.59862
938.53        65.41564
938.92        64.54144
939.31        63.27143
939.70        61.99926
940.09        61.24382
940.49        61.10548
940.88        61.44036
941.27        62.07715
941.66        62.69655
942.05        63.15417
942.44        63.54347
942.84        63.86318
943.23        64.10378
943.62        64.27975
944.01        64.32278
944.40        64.32131
944.79        64.46472
945.18        64.76617
945.57        65.16939
945.97        65.43893
946.36        65.27195
946.75        64.58631
947.14        63.56896
947.53         62.4838
947.92        61.68237
948.31        61.27139
948.70        61.16705
949.09        61.32095
949.48        61.64277
949.87        62.06116
950.26        62.56979
950.65          63.107
951.04        63.56881
951.43        63.90723
951.82        64.12359
952.21         64.1711
952.60        64.00774
952.99        63.67524
953.38        63.22164
953.77        62.82876
954.16        62.77951
954.55        63.11512
954.94         63.7294
955.33        64.44528
955.72        64.93136
956.11        65.05762
956.50        64.92323
956.89        64.51225
957.28        63.83054
957.66        62.95321
958.05        61.94355
958.44        61.06413
958.83        60.68803
959.22        60.85238
959.61        61.45982
960.00        62.20585
960.39        62.50879
960.78        62.18999
961.16        61.41562
961.55        60.49854
961.94        59.82492
962.33        59.51461
962.72        59.48682
963.11        59.63685
963.49        59.80161
963.88        59.84948
964.27        59.83105
964.66        59.91987
965.04        60.40341
965.43        61.26126
965.82        62.43582
966.21        63.49319
966.60        63.62031
966.98        62.62947
967.37         60.9121
967.76        59.15362
968.15        58.21061
968.53        58.24892
968.92        59.04299
969.31        60.23065
969.69        61.05829
970.08        61.16552
970.47        60.80575
970.86        60.33464
971.24        60.26874
971.63        60.72342
972.02        61.49535
972.40        62.35065
972.79        62.63279
973.17        62.22787
973.56        61.41647
973.95        60.48862
974.33        59.76674
974.72        59.35331
975.11        59.10541
975.49        59.09828
975.88        59.42795
976.26        60.08998
976.65        60.96966
977.04        61.75564
977.42        61.92844
977.81        61.36719
978.19        60.24332
978.58        58.96436
978.96        58.15699
979.35         57.9997
979.74        58.34039
980.12        59.07791
980.51        59.78809
980.89        60.38702
981.28        60.91767
981.66        61.36077
982.05        61.66355
982.43         61.8486
982.82         61.8702
983.20        61.88558
983.59        62.12743
983.97        62.72685
984.35         63.6004
984.74        64.42711
985.12        64.89166
985.51        64.82531
985.89        64.35078
986.28        63.78326
986.66        63.50975
987.04        63.69485
987.43        64.21516
987.81        64.83083
988.20        64.98843
988.58        64.55662
988.96        63.61912
989.35        62.60242
989.73        62.10323
990.12        62.22121
990.50        62.87386
990.88        63.49445
991.27        63.11029
991.65        61.58805
992.03        59.32247
992.42        57.28646
992.80        56.79554
993.18        58.09648
993.56        60.83901
993.95        64.04113
994.33        65.93003
994.71        65.75278
995.10        64.12143
995.48        61.97966
995.86        60.81738
996.24        61.00945
996.63        61.98154
997.01        63.41911
997.39        64.35486
997.77        64.36718
998.15        63.93518
998.54        63.12714
998.92        61.85397
999.30        60.33258
999.68         58.5819
1000.06        57.26767
1000.45        57.35648
1000.83        59.06981
1001.21        62.24121
1001.59        66.05308
1001.97        68.41238
1002.35        68.49297
1002.73        66.95389
1003.12        64.86933
1003.50        63.56361
1003.88        63.48469
1004.26        64.05907
1004.64        65.33377
1005.02        67.30048
1005.40        69.64874
1005.78         72.4976
1006.16        74.59869
1006.54        73.99495
1006.92        70.62283
1007.30         65.1857
1007.69         59.8034
1008.07        57.36737
1008.45        58.65408
1008.83        63.09205
1009.21        69.02125
1009.59        72.32247
1009.97        71.14772
1010.35        66.76977
1010.73        61.24281
1011.11        57.46429
1011.49        56.16599
1011.86        56.38037
1012.24        57.33646
1012.62        58.08915
1013.00         58.3572
1013.38        58.47999
1013.76        58.72499
1014.14        59.45811
1014.52        60.71005
1014.90        62.13251
1015.28        63.17313
1015.66        63.25991
1016.04        62.33442
1016.41        60.57544
1016.79        58.53881
1017.17        57.31211
1017.55        57.22995
1017.93        58.00562
1018.31        59.01527
1018.69        59.31636
1019.06        58.70135
1019.44        57.42879
1019.82         55.9389
1020.20        55.28212
1020.58        55.83528
1020.95        57.02194
1021.33         58.4787
1021.71         59.7957
1022.09        60.94325
1022.46         62.2989
1022.84        63.45115
1023.22        63.42351
1023.60        62.02087
1023.97        59.42459
1024.35        57.27535
1024.73        57.40422
