SpectraSmart Spectrum 2.9.0.0
--------- Device Information -----------
Spectrum Name :  反射率_0
Saving Time :  2024/04/26 22:06:57
Spectro-Module Model Name : SE2030-DUVN
Spectro-Module Serial Number : OS361AC55029948
Wavelength Start : 200
Wavelength End : 1025
Wavelength Unit : Wavelength(nm)
Spectrum Unit : Reflectance(%)
-----------Spectrum Setting ------------
Integration Time : 20ms
Average : 10
Boxcar : 0
Background removal :  enabled
linearity correction :  enabled
SC :  disabled
Intensity correction :  disabled
DWT denoise :  enabled
savitzky-golay :  disabled
FFT :  disabled
Running average :  disabled
Kalman :  disabled
High pass :  disabled
---------------BEGIN--------------------
Wavelength(nm)             Reflectance(%)
200.29               0
200.75        40.77721
201.21        42.11749
201.67        43.47815
202.13        44.65911
202.58        45.63894
203.04        47.19749
203.50        49.23611
203.96        50.54888
204.42        50.39074
204.88        48.66872
205.34        46.42545
205.80        45.98935
206.26        47.64973
206.72        50.14615
207.18        52.32837
207.64         53.3455
208.10        53.15939
208.55        52.31491
209.01        49.88718
209.47        46.07875
209.93        43.00504
210.39        41.60641
210.85        41.47454
211.31        42.22124
211.77        44.08661
212.23         48.3941
212.69        61.54168
213.14        96.03533
213.60        115.1967
214.06        107.1454
214.52        95.10251
214.98        85.70698
215.44        77.20512
215.90        67.32574
216.36        58.16413
216.81        53.71996
217.27         55.7063
217.73        65.11684
218.19        80.86723
218.65        90.00198
219.11        85.84014
219.57        76.13673
220.02        69.40868
220.48        70.87483
220.94        80.37155
221.40         98.7652
221.86        125.8411
222.32        145.1136
222.77        140.8216
223.23        123.5578
223.69        105.6122
224.15        94.09225
224.61        88.10492
225.06           84.48
225.52        82.56752
225.98        81.26395
226.44        80.29474
226.90        80.15421
227.36         80.5162
227.81        80.69049
228.27        80.70654
228.73        80.34985
229.19        80.47678
229.65        82.27704
230.10        85.60656
230.56        90.06998
231.02        93.93067
231.48        94.46901
231.93        91.42501
232.39        86.48528
232.85        81.59543
233.31        79.29002
233.77        79.80372
234.22        82.18607
234.68        85.29674
235.14        87.41261
235.60        87.93591
236.05        87.48704
236.51         86.0991
236.97        84.13514
237.43        81.96577
237.88        79.52702
238.34        77.37462
238.80        76.74982
239.26        78.10295
239.71        82.12699
240.17        88.13437
240.63        94.00143
241.08         98.2189
241.54        99.87247
242.00        100.7317
242.46        105.3258
242.91        117.2211
243.37        138.0444
243.83         168.197
244.28        193.3667
244.74        192.1414
245.20        164.9402
245.66        132.1425
246.11        111.0853
246.57        102.2677
247.03        100.8811
247.48        101.0464
247.94        94.56087
248.40        83.39826
248.85        72.60716
249.31        65.65057
249.77        64.01064
250.22        66.86763
250.68        73.32084
251.14        82.11748
251.59        87.60869
252.05        86.58749
252.51        82.40688
252.96        76.56145
253.42        70.91692
253.88        66.21632
254.33         61.6748
254.79        60.31514
255.25        64.74047
255.70         73.9761
256.16        86.54986
256.62        97.05869
257.07         97.3821
257.53        89.87675
257.99        80.00034
258.44        71.89586
258.90        68.95567
259.35        69.73047
259.81        72.71443
260.27        76.04903
260.72        77.53377
261.18        77.22443
261.63        75.72404
262.09        74.32993
262.55         73.7678
263.00        73.90174
263.46        74.51328
263.91        74.78377
264.37        74.14138
264.83        72.56576
265.28        70.42319
265.74        68.52296
266.19        67.44958
266.65        67.35631
267.11        67.84995
267.56        68.52738
268.02        68.77011
268.47        68.37497
268.93        67.58958
269.38        66.51573
269.84        65.39217
270.30        64.30145
270.75        63.15663
271.21        62.09919
271.66        61.27327
272.12        60.69516
272.57         60.2868
273.03        59.88885
273.48        59.19613
273.94        58.21816
274.39        57.01714
274.85         55.7913
275.31         54.6212
275.76        53.52255
276.22        52.52721
276.67        51.61959
277.13        50.93229
277.58        50.37761
278.04        49.94787
278.49        49.46912
278.95        48.84443
279.40        47.99024
279.86        47.06838
280.31        46.05445
280.77        45.07526
281.22        44.11735
281.68        43.23991
282.13        42.47927
282.59        42.01754
283.04        41.79624
283.50        41.78413
283.95        41.78972
284.41        41.54324
284.86        40.98164
285.32        40.22821
285.77        39.42852
286.22        38.87227
286.68        38.60746
287.13        38.50223
287.59         38.4411
288.04        38.18506
288.50        37.72551
288.95         37.1216
289.41        36.51175
289.86          36.003
290.32        35.66961
290.77        35.43873
291.22        35.29119
291.68        35.18332
292.13        35.08207
292.59        35.02629
293.04        35.01759
293.50        35.08174
293.95        35.21397
294.40        35.40873
294.86        35.65945
295.31        35.94698
295.77        36.27488
296.22        36.63464
296.68        37.04012
297.13        37.49109
297.58        37.99067
298.04        38.53205
298.49        39.09115
298.95        39.65406
299.40        40.19891
299.85        40.72542
300.31         41.2343
300.76        41.71283
301.21        42.16184
301.67        42.59327
302.12        42.97945
302.58        43.35105
303.03        43.68078
303.48        43.98925
303.94        44.28827
304.39        44.54821
304.84        44.78289
305.30        45.00698
305.75        45.20504
306.20        45.41837
306.66        45.66151
307.11         45.9063
307.57        46.13332
308.02        46.24993
308.47        46.26044
308.93         46.1969
309.38        46.11143
309.83        46.14556
310.29        46.31815
310.74        46.57632
311.19        46.81158
311.65        46.84151
312.10         46.6225
312.55        46.21848
313.00        45.75754
313.46        45.42819
313.91        45.26016
314.36        45.21042
314.82        45.18518
315.27        45.04587
315.72        44.75586
316.18        44.38128
316.63        43.99125
317.08        43.70717
317.53        43.55463
317.99         43.4803
318.44        43.43394
318.89        43.32519
319.35        43.12389
319.80        42.85754
320.25        42.54992
320.70        42.23831
321.16        41.93661
321.61         41.6496
322.06        41.36662
322.51        41.07843
322.97        40.77883
323.42        40.47458
323.87         40.1992
324.32        40.00985
324.78         39.8949
325.23         39.8602
325.68        39.79324
326.13        39.52034
326.59        39.01522
327.04        38.35178
327.49        37.68314
327.94        37.25225
328.39         37.1096
328.85        37.16926
329.30        37.33447
329.75        37.35076
330.20         37.1376
330.66        36.76044
331.11        36.32874
331.56        35.98806
332.01        35.78618
332.46        35.66904
332.92        35.57291
333.37        35.45426
333.82        35.27317
334.27        35.06455
334.72        34.85796
335.17        34.68907
335.63        34.56899
336.08        34.50492
336.53        34.47409
336.98        34.45691
337.43        34.44041
337.88        34.41082
338.34        34.38628
338.79        34.43578
339.24        34.54557
339.69        34.69694
340.14        34.78458
340.59        34.64424
341.05         34.2697
341.50        33.72518
341.95        33.17601
342.40        32.87056
342.85        32.86497
343.30        33.08241
343.75        33.39785
344.20         33.6028
344.66        33.63179
345.11         33.5412
345.56        33.38717
346.01        33.26117
346.46        33.19812
346.91        33.16712
347.36        33.15018
347.81        33.12933
348.26         33.0974
348.72        33.06476
349.17         33.0458
349.62        33.07144
350.07        33.14028
350.52        33.23921
350.97        33.30856
351.42        33.25774
351.87        33.07421
352.32        32.79012
352.77        32.49184
353.22        32.30334
353.67         32.2518
354.13        32.30849
354.58        32.39559
355.03        32.38283
355.48        32.23761
355.93        31.99639
356.38         31.7531
356.83        31.64725
357.28        31.69939
357.73        31.85892
358.18        32.00746
358.63        31.95805
359.08        31.67153
359.53        31.21206
359.98        30.70886
360.43        30.35236
360.88        30.18123
361.33        30.13459
361.78        30.11006
362.23        29.94428
362.68        29.60627
363.13        29.16852
363.58        28.71685
364.03        28.37564
364.48        28.17929
364.93        28.08004
365.38        28.04903
365.83        28.04333
366.28        28.03513
366.73        28.03324
367.18        28.00539
367.63        27.90004
368.08        27.71034
368.53        27.44651
368.98        27.15261
369.43        26.90468
369.88        26.72462
370.33        26.59673
370.78        26.49236
371.23        26.36129
371.68        26.18835
372.13        25.98875
372.58        25.78722
373.03        25.61881
373.48         25.4916
373.93        25.39546
374.38        25.29751
374.83        25.14978
375.28        24.94468
375.72        24.69009
376.17        24.45217
376.62        24.29876
377.07        24.24167
377.52        24.26097
377.97         24.2913
378.42        24.22927
378.87        24.05586
379.32        23.80387
379.77         23.5552
380.22        23.42854
380.67        23.44349
381.11        23.56944
381.56        23.70551
382.01        23.70553
382.46        23.53662
382.91        23.25614
383.36        22.96152
383.81        22.78551
384.26        22.75158
384.71         22.8149
385.15        22.90807
385.60        22.92259
386.05        22.82845
386.50        22.66481
386.95        22.48176
387.40        22.35464
387.85        22.30134
388.29        22.27741
388.74        22.27864
389.19        22.24925
389.64        22.17711
390.09        22.07701
390.54        21.96296
390.98        21.85133
391.43        21.76527
391.88        21.69804
392.33        21.64303
392.78        21.59125
393.23           21.54
393.67        21.48023
394.12        21.44295
394.57          21.431
395.02        21.44075
395.47        21.45886
395.91        21.46695
396.36        21.42394
396.81        21.33642
397.26        21.22571
397.71        21.10545
398.15        21.00784
398.60         20.9666
399.05        20.88401
399.50         20.7916
399.95        20.88896
400.39        21.10693
400.84        21.06476
401.29        20.77929
401.74        20.60704
402.18        20.57506
402.63        20.47464
403.08        20.33346
403.53        20.28736
403.97        20.34265
404.42        20.45663
404.87        20.58854
405.32        20.66981
405.76        20.67446
406.21        20.63158
406.66        20.55407
407.11        20.46629
407.55        20.38589
408.00        20.29594
408.45        20.20933
408.90        20.14297
409.34        20.10196
409.79        20.08964
410.24        20.09519
410.68        20.09209
411.13        20.07847
411.58          20.057
412.03        20.02692
412.47        19.99255
412.92        19.95114
413.37          19.908
413.81        19.86701
414.26        19.85222
414.71        19.86059
415.15        19.89485
415.60        19.93869
416.05        19.98056
416.49        20.01588
416.94        20.04192
417.39        20.06474
417.83        20.09414
418.28        20.12844
418.73        20.15667
419.17        20.17218
419.62        20.16655
420.07         20.1389
420.51        20.09337
420.96        20.03123
421.41        19.94848
421.85         19.8455
422.30        19.72283
422.74        19.59924
423.19        19.58895
423.64        19.66628
424.08        19.69914
424.53        19.67176
424.98        19.70969
425.42        19.81982
425.87        19.86993
426.31        19.86123
426.76        19.94417
427.21        20.06133
427.65         19.9323
428.10        19.63423
428.54        19.49487
428.99        19.54628
429.44        19.68858
429.88        19.83996
430.33        19.79312
430.77        19.59838
431.22        19.64261
431.66        19.89787
432.11        19.98532
432.56        19.89947
433.00        19.88791
433.45        19.90429
433.89        19.80456
434.34        19.70918
434.78        19.34888
435.23        19.79729
435.67        19.87002
436.12        19.83711
436.57        19.68976
437.01        19.49549
437.46        19.41508
437.90        19.46394
438.35        19.53802
438.79        19.59471
439.24         19.6393
439.68         19.6609
440.13        19.66296
440.57        19.65412
441.02        19.66906
441.46        19.71074
441.91        19.71072
442.35        19.67502
442.80        19.81263
443.24        20.03681
443.69        20.00734
444.13        19.75726
444.58        19.65147
445.02        19.70538
445.47        19.72336
445.91        19.69264
446.36        19.68953
446.80        19.70781
447.24        19.72996
447.69         19.7556
448.13        19.77443
448.58        19.78735
449.02        19.79274
449.47        19.79376
449.91        19.78485
450.36        19.77205
450.80        19.75352
451.25        19.73623
451.69        19.71764
452.13        19.70121
452.58        19.68366
453.02        19.66794
453.47        19.66164
453.91        19.66391
454.36        19.67501
454.80        19.67555
455.24        19.63391
455.69        19.55305
456.13        19.43242
456.58        19.32038
457.02        19.25803
457.46        19.26231
457.91        19.31901
458.35        19.37908
458.79        19.37038
459.24        19.29653
459.68        19.17159
460.13        19.06399
460.57        19.02829
461.01        19.09103
461.46        19.21361
461.90         19.3709
462.34        19.50563
462.79        19.58844
463.23        19.64045
463.68        19.64789
464.12        19.60224
464.56        19.50895
465.01        19.39949
465.45        19.28017
465.89        19.21394
466.34        19.20799
466.78        19.24084
467.22        19.30454
467.67        19.36262
468.11        19.41164
468.55        19.45395
468.99        19.47772
469.44        19.46276
469.88        19.41115
470.32        19.32527
470.77        19.24227
471.21        19.22663
471.65        19.28837
472.10        19.41246
472.54        19.54725
472.98        19.61658
473.42        19.60361
473.87        19.53846
474.31         19.4538
474.75        19.41932
475.20        19.45458
475.64         19.5277
476.08        19.61395
476.52         19.6661
476.97        19.67187
477.41        19.65747
477.85        19.64367
478.29        19.63356
478.74        19.65084
479.18         19.7363
479.62        19.85985
480.06        19.94135
480.50        19.97494
480.95        19.97505
481.39        19.94215
481.83        20.07309
482.27        20.07229
482.72        20.15809
483.16        20.25105
483.60        20.32059
484.04        20.36321
484.48        20.51616
484.93        20.72919
485.37        20.58838
485.81        20.80443
486.25        20.73027
486.69        20.04563
487.14         20.8827
487.58        21.80496
488.02        21.56913
488.46        21.16989
488.90        21.33879
489.34        21.31911
489.79        21.61832
490.23        21.75435
490.67        21.84652
491.11        21.88363
491.55        21.98152
491.99        22.15063
492.43        22.26578
492.88        22.32538
493.32        22.39408
493.76        22.48226
494.20        22.59885
494.64        22.75715
495.08         22.9082
495.52        23.04675
495.96        23.31407
496.41         23.6531
496.85        23.70808
497.29         23.5348
497.73        23.76368
498.17        24.05614
498.61        24.27858
499.05        24.29647
499.49        24.32622
499.93        24.32738
500.37        24.44539
500.82        24.64525
501.26        24.79479
501.70        24.88129
502.14        24.99413
502.58        25.14752
503.02        25.31217
503.46         25.4833
503.90        25.66547
504.34        25.82333
504.78        25.89893
505.22        25.88558
505.66         25.8062
506.10        25.71067
506.54        25.67922
506.98        25.73402
507.42        25.85145
507.86        26.00823
508.30        26.16306
508.74        26.29615
509.18        26.41746
509.62        26.51567
510.06        26.57348
510.50        26.59107
510.94        26.57081
511.38        26.53778
511.82        26.53526
512.26         26.5761
512.70        26.65382
513.14        26.74901
513.58        26.82698
514.02         26.8771
514.46        26.90612
514.90        26.93179
515.34        26.98275
515.78        27.06234
516.22        27.15792
516.66        27.23939
517.10        27.26139
517.54        27.21604
517.98        27.11975
518.42        27.00874
518.86        26.94005
519.30        26.92849
519.74        26.95801
520.18         27.0004
520.62        27.00948
521.06        26.97454
521.50        26.91317
521.93        26.84711
522.37        26.80203
522.81        26.78964
523.25        26.79486
523.69         26.8086
524.13        26.81965
524.57        26.81929
525.01        26.80787
525.45        26.77666
525.89        26.71089
526.32        26.60949
526.76        26.48962
527.20        26.36093
527.64        26.24152
528.08         26.1397
528.52         26.0497
528.96        25.98547
529.40         25.9673
529.83        25.99027
530.27        26.04645
530.71        26.09309
531.15        26.06439
531.59        25.94988
532.03         25.7724
532.46        25.57336
532.90        25.43784
533.34        25.38248
533.78        25.36811
534.22        25.37369
534.66        25.39636
535.09        25.40566
535.53        25.35637
535.97        25.25642
536.41        25.18346
536.85        25.14708
537.28        25.10018
537.72        25.06713
538.16        25.10798
538.60        25.22448
539.04        25.39762
539.47        25.57059
539.91        25.67145
540.35        25.68168
540.79        25.62804
541.22        25.56076
541.66        25.56974
542.10        25.67309
542.54        25.84193
542.97        26.03574
543.41        26.20195
543.85         26.3213
544.29        26.41768
544.72        26.50135
545.16        26.60435
545.60        26.73224
546.04         26.8774
546.47        27.04787
546.91        27.25316
547.35         27.4858
547.79        27.74061
548.22        27.99188
548.66         28.1942
549.10        28.37297
549.53        28.52704
549.97        28.67271
550.41        28.77339
550.84         28.8667
551.28        29.02491
551.72         29.2213
552.15         29.4358
552.59        29.69722
553.03        29.57783
553.46        29.96258
553.90        30.06926
554.34        30.15937
554.77        30.23579
555.21        30.33189
555.65        30.47535
556.08        30.65775
556.52        30.85193
556.96        31.02306
557.39        31.20357
557.83        31.35952
558.27        31.32168
558.70        31.15189
559.14        31.13698
559.57        31.28013
560.01        31.41295
560.45        31.50289
560.88        31.59899
561.32         31.7082
561.75        31.78293
562.19          31.853
562.63         31.9588
563.06        32.09747
563.50        32.25681
563.93        32.38179
564.37        32.47155
564.80        32.53672
565.24        32.51276
565.68        32.36703
566.11        32.76498
566.55        32.54614
566.98        32.62543
567.42        32.71752
567.85        32.98988
568.29        33.39736
568.72        33.70762
569.16         33.9258
569.60        34.09815
570.03        34.34616
570.47        34.46812
570.90        34.52485
571.34        34.61948
571.77         34.7588
572.21        35.06104
572.64        35.27364
573.08        35.38045
573.51        35.40248
573.95        35.39866
574.38        35.45391
574.82        36.00443
575.25        35.73135
575.69        35.95974
576.12        36.22166
576.56        36.19704
576.99        35.99331
577.42        35.71434
577.86        35.93826
578.29        36.19278
578.73        36.05701
579.16        36.10452
579.60        35.88021
580.03        35.97249
580.47        35.79609
580.90        35.94715
581.33        35.70081
581.77         35.7113
582.20        35.05037
582.64        35.01811
583.07        35.15566
583.51        35.10358
583.94        34.84861
584.37        34.73573
584.81        34.63571
585.24         34.3995
585.68        34.10548
586.11        34.01316
586.54        34.27786
586.98        34.20602
587.41        33.85148
587.85        33.88714
588.28        33.69206
588.71        33.76133
589.15        33.54972
589.58        33.63274
590.01        33.77301
590.45        33.54194
590.88        33.88124
591.31        33.70401
591.75        33.44476
592.18        33.34029
592.61        33.34847
593.05        34.02747
593.48        33.90433
593.91          33.733
594.35        33.95612
594.78        33.87759
595.21        33.81492
595.65        34.03221
596.08        34.57866
596.51        34.85643
596.94        34.73941
597.38        34.88753
597.81        35.27338
598.24        35.63005
598.68        35.75724
599.11        36.13868
599.54        36.64643
599.97        36.61973
600.41        37.31008
600.84        36.89745
601.27        37.74224
601.70        38.12445
602.14        38.53984
602.57        38.93568
603.00        39.40159
603.43        39.27638
603.87        40.11464
604.30        40.66644
604.73        41.30524
605.16        41.42484
605.60        41.81849
606.03        41.97743
606.46        42.09955
606.89        42.94925
607.32        43.54938
607.76        43.79538
608.19        44.36095
608.62        44.62831
609.05        44.97527
609.48         45.3072
609.92        46.22037
610.35        46.42311
610.78        46.07934
611.21          46.674
611.64        46.87739
612.07        47.43545
612.50        47.64721
612.94        47.94835
613.37        48.23692
613.80        48.34253
614.23        48.18408
614.66         48.4361
615.09        49.02133
615.52        49.43394
615.96        49.60832
616.39        49.89722
616.82        50.31615
617.25        50.34618
617.68        50.47607
618.11        50.82381
618.54        51.41713
618.97        51.75242
619.40        51.81708
619.84        51.75521
620.27        51.75484
620.70        51.98759
621.13        52.37051
621.56        52.27224
621.99        51.76527
622.42        51.58612
622.85        51.82343
623.28        51.83764
623.71        52.14971
624.14        52.22691
624.57        52.39155
625.00        52.34132
625.43        52.42321
625.86        52.38263
626.29        52.36434
626.72        51.82385
627.15        51.93507
627.58        51.72902
628.01        51.51896
628.44        51.26383
628.87         50.9747
629.30        50.61831
629.73        50.21722
630.16        50.05908
630.59         49.7828
631.02        49.65358
631.45        49.51359
631.88        49.29476
632.31        48.96881
632.74        48.55845
633.17        48.08782
633.60         47.5899
634.03        47.08684
634.46        46.57264
634.89        46.05959
635.32        45.57528
635.75        45.12814
636.18        44.67736
636.61        44.24188
637.04        43.85041
637.47        43.49345
637.89        43.23389
638.32        42.87881
638.75        42.53387
639.18        42.15151
639.61        41.75149
640.04        41.35436
640.47        40.99089
640.90        40.67443
641.33        40.39965
641.76        40.17522
642.18        40.02002
642.61        39.92146
643.04        39.87591
643.47        39.86597
643.90        39.86174
644.33        39.85238
644.76        39.84797
645.18        39.84415
645.61        39.82549
646.04        39.80468
646.47        39.79348
646.90        39.83672
647.33        39.99596
647.75        40.26486
648.18        40.66471
648.61        41.16613
649.04        41.55165
649.47        41.76068
649.89        42.50757
650.32        42.67311
650.75        43.04591
651.18        43.35137
651.61        43.86901
652.03        44.58464
652.46        45.21675
652.89        45.72642
653.32        46.27753
653.74         46.8653
654.17        47.22668
654.60        47.71735
655.03        48.45898
655.46        47.54139
655.88        48.63876
656.31        49.64291
656.74        48.09154
657.16        52.58061
657.59        58.39648
658.02        53.49553
658.45         52.8285
658.87        52.83043
659.30        53.04976
659.73        53.48723
660.15        54.68884
660.58        53.95243
661.01        54.15313
661.44        54.56902
661.86        54.73486
662.29        54.63574
662.72        55.20591
663.14        55.38328
663.57        55.62189
664.00        55.67818
664.42        55.94195
664.85        56.43027
665.27        56.95566
665.70        57.38234
666.13        57.61857
666.55        57.64196
666.98        57.43366
667.41        57.09896
667.83        57.17919
668.26        57.12811
668.69        57.37085
669.11        57.69933
669.54        58.02211
669.96        58.29803
670.39        58.64099
670.82        59.00858
671.24         58.9897
671.67        58.94111
672.09        58.89888
672.52        59.00504
672.94        59.12915
673.37        59.25337
673.80        59.33435
674.22        59.39071
674.65        59.50513
675.07        59.68838
675.50        59.84809
675.92         59.9656
676.35        60.04834
676.77        60.09497
677.20        60.10402
677.62          60.111
678.05        60.16168
678.47        60.26598
678.90        60.47303
679.32         60.6533
679.75        60.84518
680.17        60.99937
680.60        61.12577
681.02        61.24069
681.45        61.38043
681.87          61.564
682.30        61.75454
682.72        61.91443
683.15        62.09742
683.57        62.00084
684.00        62.03479
684.42        62.13566
684.85        62.26927
685.27        62.44743
685.70        62.67597
686.12        62.87814
686.54        63.08004
686.97        63.29286
687.39        62.86725
687.82        63.02894
688.24        62.94009
688.66        62.94573
689.09        63.01732
689.51        63.13504
689.94        63.24236
690.36        63.32504
690.78        63.36106
691.21        63.38751
691.63        63.55811
692.06        63.83156
692.48        63.95818
692.90        63.93898
693.33        63.98207
693.75        64.08962
694.17         64.1308
694.60        64.12985
695.02        64.15011
695.44        64.20293
695.87         64.3746
696.29        64.61235
696.71        64.55309
697.14        64.29151
697.56        64.30925
697.98        64.66578
698.41         64.8693
698.83        64.91888
699.25         65.0573
699.68         65.2346
700.10        65.39666
700.52         65.4677
700.94        65.29057
701.37        64.98454
701.79        64.94221
702.21        65.20336
702.64        65.57038
703.06        65.94234
703.48        66.19221
703.90        66.26973
704.33        66.22289
704.75        66.09965
705.17        65.96814
705.59        65.86645
706.01        65.77532
706.44        65.73963
706.86        65.83172
707.28        66.03964
707.70        66.39454
708.12        66.80547
708.55        66.98786
708.97        66.96796
709.39        67.06364
709.81        67.26584
710.23         67.3301
710.66        67.22177
711.08        67.13908
711.50        67.08534
711.92        67.02105
712.34        66.96065
712.76        66.93741
713.19        66.93439
713.61        66.95293
714.03        66.98194
714.45        67.02802
714.87        67.12778
715.29        67.34381
715.71        67.67107
716.13        68.06124
716.56        68.42927
716.98        68.72576
717.40        68.87909
717.82         68.9169
718.24        68.82699
718.66        68.59501
719.08        68.26147
719.50        67.86507
719.92        67.52541
720.34        67.42014
720.76        67.57957
721.19        67.92767
721.61        68.39612
722.03        68.80801
722.45        69.08578
722.87        69.25935
723.29        69.30058
723.71        69.17987
724.13        68.91777
724.55        68.52735
724.97        68.12084
725.39        67.89413
725.81         67.9028
726.23        68.08749
726.65        68.34669
727.07        68.68153
727.49        68.80309
727.91        68.86656
728.33        68.87386
728.75           69.16
729.17        69.65147
729.59        69.82931
730.01        69.69023
730.43        69.71752
730.85        69.93822
731.27         69.9553
731.69        69.69517
732.10        69.93423
732.52        69.44185
732.94        69.19736
733.36        68.94204
733.78        68.78261
734.20        68.73901
734.62        68.89725
735.04        69.69891
735.46        69.12212
735.88        69.42139
736.30        69.51772
736.72        70.02274
737.13        70.29974
737.55        70.24947
737.97        70.50957
738.39        70.91451
738.81        70.41291
739.23        69.30293
739.65        69.31243
740.06            70.3
740.48        70.72786
740.90         70.5118
741.32        70.53908
741.74        70.84277
742.16        71.00453
742.57        71.00743
742.99        70.98441
743.41        70.93457
743.83        70.75787
744.25        70.50803
744.67        70.35793
745.08        70.35836
745.50        70.40312
745.92        70.49619
746.34        70.71371
746.75        70.95796
747.17        71.00423
747.59        70.83254
748.01        70.51968
748.42        70.17422
748.84        70.01306
749.26        70.09264
749.68        70.21728
750.09         70.3538
750.51        70.73409
750.93        71.17924
751.35        71.09733
751.76        70.58421
752.18        70.26842
752.60        70.16161
753.01        70.08837
753.43        70.11858
753.85        69.64793
754.27        69.73105
754.68        70.39163
755.10        70.40395
755.52        70.48087
755.93        70.26789
756.35        70.37885
756.77        70.82026
757.18        71.00827
757.60        70.92559
758.02        71.17492
758.43        71.71422
758.85        70.97372
759.26        71.35278
759.68         70.7763
760.10        70.11491
760.51        70.66145
760.93        70.84174
761.34        71.47026
761.76        71.88719
762.18         71.8891
762.59        71.61845
763.01        71.68034
763.42        72.15369
763.84        72.40268
764.26        72.34001
764.67        72.08723
765.09        71.76598
765.50        71.43961
765.92        71.22255
766.33        71.16236
766.75        71.17426
767.16         71.1712
767.58        71.09415
768.00        71.06763
768.41        71.15834
768.83        71.34542
769.24        71.56058
769.66        71.81579
770.07        72.01104
770.49        71.71889
770.90        71.17729
771.32        71.48541
771.73        72.46372
772.15        72.80553
772.56        72.46201
772.97        71.98517
773.39        71.55281
773.80        71.86161
774.22        72.04163
774.63        72.33665
775.05        72.79555
775.46         72.9534
775.88        72.86583
776.29        72.51839
776.70        72.07889
777.12        71.86989
777.53         71.9714
777.95        72.24054
778.36        72.57317
778.77        72.75569
779.19        72.75162
779.60        72.66536
780.02        72.51423
780.43        72.42741
780.84        72.47182
781.26        72.22466
781.67        71.87957
782.09        72.60635
782.50        74.00756
782.91         74.0249
783.33        72.80332
783.74        72.36337
784.15        72.80033
784.57        73.02113
784.98         72.9614
785.39        72.85119
785.81        72.77885
786.22        73.09016
786.63        73.67115
787.04        73.93951
787.46        73.85146
787.87        73.67934
788.28        73.56191
788.70         73.5219
789.11        73.56203
789.52        73.85096
789.93        74.21941
790.35        74.03312
790.76        73.40176
791.17        73.16547
791.58        73.39425
792.00        73.36996
792.41        73.08539
792.82        73.31944
793.23        73.88992
793.65        73.41276
794.06        72.25449
794.47        72.47574
794.88        73.82613
795.29        74.30361
795.71          73.783
796.12        73.52166
796.53        73.61858
796.94        73.38334
797.35        72.98423
797.76        73.29402
798.18           74.12
798.59        74.47997
799.00        74.25425
799.41        73.94975
799.82        73.73614
800.23        73.68597
800.64        73.85569
801.06        74.17439
801.47        74.55791
801.88        74.77397
802.29        74.74986
802.70        74.53963
803.11        74.23627
803.52        73.99792
803.93        73.90211
804.34        73.92051
804.75        74.00129
805.17        74.15334
805.58          74.412
805.99         74.4253
806.40        74.29682
806.81        75.01353
807.22        76.19683
807.63        75.92963
808.04        74.45879
808.45        73.84158
808.86         74.2416
809.27        74.55439
809.68        74.59856
810.09        74.59978
810.50        74.50249
810.91        74.24256
811.32        74.00665
811.73        74.03351
812.14        74.35452
812.55        75.07838
812.96        75.92279
813.37        75.89489
813.78        75.07986
814.19        74.69155
814.60         74.7763
815.01        74.54043
815.42        74.01409
815.83        73.69291
816.24        73.64892
816.65        73.72328
817.05        73.91776
817.46        74.25548
817.87        74.62483
818.28        74.79321
818.69        74.71626
819.10        74.42218
819.51        74.07191
819.92        73.99195
820.33        74.26273
820.74        74.73838
821.14        75.23305
821.55        75.53847
821.96        75.53611
822.37        75.11181
822.78        74.45466
823.19        74.07977
823.60          74.102
824.00         74.3351
824.41        74.60889
824.82        74.81656
825.23        74.88367
825.64        74.84703
826.04        74.77943
826.45        74.74744
826.86        74.79237
827.27        74.90092
827.68        74.99716
828.08        74.98964
828.49        74.80928
828.90        74.50449
829.31         74.2417
829.72        74.29085
830.12        74.72158
830.53        75.38982
830.94        76.03838
831.35        76.17443
831.75        75.70261
832.16        74.77112
832.57        73.71751
832.97         73.0528
833.38        72.92585
833.79        73.16318
834.20        73.62765
834.60        74.09697
835.01        74.47861
835.42        74.88487
835.82         75.2458
836.23        75.34617
836.64        75.18837
837.04        74.76839
837.45        74.35519
837.86        74.47346
838.26        75.24139
838.67        76.47823
839.08        77.72454
839.48        78.10262
839.89        77.39639
840.29        75.92857
840.70        74.38782
841.11        73.56872
841.51        73.67121
841.92        74.43385
842.33        75.53841
842.73        76.41234
843.14        76.72136
843.54        76.68469
843.95        76.47457
844.35        76.42771
844.76        76.61295
845.17            76.9
845.57        77.14357
845.98        77.09739
846.38        76.73928
846.79        76.17445
847.19        75.58167
847.60         75.2021
848.00        75.11845
848.41        75.22691
848.81         75.4594
849.22         75.6114
849.62         75.6591
850.03        75.64706
850.43        75.60596
850.84        75.50964
851.24        75.41595
851.65        75.24315
852.05        75.15585
852.46        75.32237
852.86        75.75849
853.27         76.3965
853.67        76.94766
854.07        77.14025
854.48        76.90367
854.88        76.34794
855.29        75.62747
855.69        75.17859
856.10        75.06876
856.50        75.27407
856.90        75.59209
857.31        75.70028
857.71        75.56137
858.12        75.19777
858.52        74.81244
858.92        74.61654
859.33        74.65188
859.73        74.89111
860.13           75.13
860.54        75.06274
860.94        74.67105
861.34        74.04557
861.75        73.40716
862.15        73.15734
862.55        73.36822
862.96        73.87397
863.36        74.51442
863.76        74.92346
864.17        74.96246
864.57        74.76723
864.97        74.37251
865.38        73.84145
865.78        73.26352
866.18        72.62517
866.58        72.05704
866.99        71.79884
867.39         71.9351
867.79        72.39322
868.19        73.03229
868.60        73.59567
869.00        74.02795
869.40         74.3531
869.80        74.56913
870.21        74.68339
870.61        74.76709
871.01        74.75674
871.41        74.62818
871.81         74.3614
872.22        73.95698
872.62        73.42035
873.02        72.89922
873.42        72.62788
873.82        72.65438
874.22        72.92421
874.63        73.18731
875.03        73.05383
875.43        72.44985
875.83        71.52694
876.23        70.59592
876.63        70.13068
877.03        70.24763
877.44        70.77538
877.84        71.50954
878.24        72.09305
878.64        72.34158
879.04        72.22344
879.44        71.93272
879.84        71.85654
880.24        72.04838
880.64        72.35789
881.04        72.53853
881.44         72.2318
881.84        71.39317
882.24        70.18726
882.65        68.99964
883.05        68.39852
883.45        68.52536
883.85        69.23522
884.25        70.19161
884.65        70.80862
885.05        70.90953
885.45        70.65329
885.85        70.31646
886.25        70.33273
886.65        70.79539
887.05        71.53754
887.45        72.31025
887.85        72.71912
888.25        72.64986
888.65        72.23841
889.04         71.6865
889.44        71.32814
889.84        71.24199
890.24        71.32986
890.64         71.4617
891.04        71.43354
891.44        71.19503
891.84        70.83783
892.24        70.47144
892.64        70.23288
893.04        70.17512
893.44        70.28562
893.83        70.51102
894.23        70.71089
894.63        70.86726
895.03        70.97325
895.43        71.16393
895.83        71.66809
896.23        72.47289
896.63        73.44808
897.02        74.24613
897.42        74.35461
897.82        73.69461
898.22        72.50179
898.62        71.13251
899.01        70.10551
899.41        69.60107
899.81        69.46647
900.21        69.62746
900.61        69.95008
901.00        70.33921
901.40        70.81689
901.80        71.26083
902.20        71.45761
902.59        71.37962
902.99        71.06943
903.39        70.63703
903.79        70.29185
904.18        70.09872
904.58        69.99792
904.98        70.04237
905.38        70.31418
905.77        70.79487
906.17        71.48887
906.57        72.13605
906.96        72.29366
907.36        71.87338
907.76        71.02831
908.15        70.18282
908.55        69.99844
908.95         70.6287
909.34        71.86763
909.74        73.27044
910.14        74.18708
910.53         74.3683
910.93        74.01242
911.33        73.30623
911.72        72.52974
912.12        71.88435
912.52        71.32142
912.91        70.83603
913.31        70.44766
913.70        70.16628
914.10        69.97938
914.49        70.04753
914.89        70.51876
915.29        71.39457
915.68        72.59457
916.08        73.68568
916.47        74.03767
916.87        73.53961
917.26        72.37582
917.66        71.08849
918.05        70.34183
918.45        70.30666
918.84        70.84533
919.24        71.61137
919.64        72.12505
920.03        72.23133
920.42        72.03569
920.82        71.81371
921.21        71.93094
921.61        72.44382
922.00        73.25407
922.40        74.01643
922.79        74.30661
923.19         73.9857
923.58        73.24475
923.98        72.42693
924.37        71.95304
924.77        71.94259
925.16        72.22415
925.55        72.63541
925.95        72.87061
926.34        72.84386
926.74        72.64729
927.13        72.30639
927.52        71.78603
927.92        71.18233
928.31        70.50092
928.70        69.93436
929.10        69.75419
929.49        69.98637
929.89        70.49312
930.28        71.21078
930.67        71.88428
931.07        72.37592
931.46        72.83372
931.85        73.05377
932.24        72.78397
932.64        72.07193
933.03        70.93949
933.42        69.93014
933.82         69.8399
934.21        70.78852
934.60        72.61633
934.99         74.5884
935.39        75.36162
935.78        74.63319
936.17        72.70743
936.56         70.4735
936.96        69.34265
937.35        69.66097
937.74        71.00344
938.13        72.60201
938.53        73.23979
938.92        72.62786
939.31        71.23463
939.70        69.67704
940.09         68.8212
940.49        68.85346
940.88        69.49763
941.27        70.46386
941.66        71.24008
942.05        71.62488
942.44        71.82324
942.84        71.90078
943.23        71.92807
943.62        71.96384
944.01        71.90414
944.40        71.89975
944.79        72.24767
945.18        72.95847
945.57        73.94324
945.97        74.79021
946.36        74.89293
946.75        74.09692
947.14        72.69307
947.53        71.13676
947.92        70.07248
948.31        69.67281
948.70        69.75056
949.09         70.1876
949.48        70.76324
949.87        71.35268
950.26        72.02283
950.65        72.63699
951.04          72.967
951.43        72.95538
951.82         72.5939
952.21        72.08751
952.60        71.81084
952.99         71.8685
953.38        72.20825
953.77        72.59681
954.16        72.64908
954.55        72.28351
954.94        71.58887
955.33        70.90974
955.72        70.83768
956.11        71.50919
956.50        72.75378
956.89        74.02686
957.28        74.41299
957.66        73.69183
958.05        72.21097
958.44        70.59547
958.83        69.74476
959.22        69.84191
959.61        70.61165
960.00        71.60792
960.39        72.01817
960.78        71.58728
961.16         70.6024
961.55        69.47511
961.94        68.68124
962.33        68.37147
962.72        68.42588
963.11        68.70779
963.49        69.01114
963.88        69.15945
964.27        69.20593
964.66        69.34637
965.04         69.9106
965.43        70.87594
965.82        72.16775
966.21        73.27472
966.60        73.25364
966.98        71.90597
967.37        69.71046
967.76         67.4876
968.15        66.23946
968.53        66.16539
968.92        67.02018
969.31        68.38071
969.69        69.37353
970.08        69.56149
970.47        69.18014
970.86        68.69166
971.24        68.77743
971.63        69.57626
972.02        70.87286
972.40         72.1484
972.79        72.17735
973.17        70.77639
973.56        68.47054
973.95        66.15218
974.33        64.92372
974.72        64.99534
975.11        66.02759
975.49        67.58379
975.88        68.70919
976.26         69.0722
976.65        68.89197
977.04        68.40941
977.42        67.97293
977.81        67.69534
978.19        67.43521
978.58        67.31789
978.96         67.5512
979.35        68.11155
979.74        68.96762
980.12        69.97178
980.51        70.56696
980.89        70.72275
981.28        70.58024
981.66        70.26718
982.05        69.96201
982.43        69.75516
982.82        69.51978
983.20        69.58736
983.59        70.44348
983.97        72.20948
984.35        74.70079
984.74        77.00922
985.12         77.8384
985.51        76.83288
985.89        74.45551
986.28        71.74014
986.66        70.17161
987.04        70.18938
987.43        71.33413
987.81        73.08402
988.20        74.24659
988.58        74.38536
988.96         73.8039
989.35         72.8083
989.73        71.79185
990.12        70.89649
990.50        70.01322
990.88        69.09577
991.27        68.18306
991.65        67.35389
992.03        66.67527
992.42        66.34823
992.80        66.55624
993.18         67.3227
993.56        68.59351
993.95        69.91697
994.33        70.64908
994.71        70.47051
995.10        69.66454
995.48        68.69442
995.86         68.3782
996.24        68.90154
996.63        69.86401
997.01        71.19226
997.39        72.30762
997.77        72.88939
998.15        73.22474
998.54        73.04669
998.92        71.81853
999.30        69.73068
999.68        67.01408
1000.06         64.7394
1000.45        64.42123
1000.83        66.43667
1001.21        70.53985
1001.59        75.62296
1001.97        78.89553
1002.35        79.18214
1002.73        77.22626
1003.12        74.56403
1003.50        73.17918
1003.88        73.66214
1004.26         75.3316
1004.64        77.59348
1005.02        79.20286
1005.40        79.55495
1005.78        79.20522
1006.16        78.19087
1006.54        76.48608
1006.92        74.35947
1007.30         71.8987
1007.69        69.86522
1008.07           69.16
1008.45         70.0931
1008.83        72.51339
1009.21        75.78203
1009.59        78.17338
1009.97        78.70998
1010.35        77.68114
1010.73        75.70398
1011.11        73.74946
1011.49        72.25129
1011.86         71.1164
1012.24        70.22383
1012.62        69.30403
1013.00        68.27087
1013.38        67.06318
1013.76        66.27953
1014.14        67.14626
1014.52        69.85364
1014.90        73.84103
1015.28        77.29542
1015.66        77.82946
1016.04        75.15781
1016.41        69.99236
1016.79        64.04523
1017.17        60.67145
1017.55         60.9067
1017.93        63.65273
1018.31        67.40526
1018.69        70.03565
1019.06        71.01102
1019.44         71.0238
1019.82        70.29647
1020.20        69.37151
1020.58        68.58874
1020.95        67.43247
1021.33        66.54143
1021.71        66.64736
1022.09        67.81914
1022.46        70.38711
1022.84        73.04841
1023.22        72.72629
1023.60        68.63912
1023.97        61.83479
1024.35        55.75813
1024.73        54.27959
