SpectraSmart Spectrum 2.9.0.0
--------- Device Information -----------
Spectrum Name :  反射率_0
Saving Time :  2024/04/26 22:12:43
Spectro-Module Model Name : SE2030-DUVN
Spectro-Module Serial Number : OS361AC55029948
Wavelength Start : 200
Wavelength End : 1025
Wavelength Unit : Wavelength(nm)
Spectrum Unit : Reflectance(%)
-----------Spectrum Setting ------------
Integration Time : 20ms
Average : 10
Boxcar : 0
Background removal :  enabled
linearity correction :  enabled
SC :  disabled
Intensity correction :  disabled
DWT denoise :  enabled
savitzky-golay :  disabled
FFT :  disabled
Running average :  disabled
Kalman :  disabled
High pass :  disabled
---------------BEGIN--------------------
Wavelength(nm)             Reflectance(%)
200.29               0
200.75         55.3716
201.21         50.5491
201.67        46.04355
202.13        43.75948
202.58        43.73668
203.04        45.93761
203.50        50.23044
203.96        54.99377
204.42         58.8567
204.88        61.88858
205.34         64.2164
205.80        66.73899
206.26        69.19366
206.72         70.1189
207.18        69.99319
207.64        69.54723
208.10         68.9063
208.55        68.99743
209.01        67.40527
209.47         60.3591
209.93        50.64162
210.39        42.62523
210.85        38.87257
211.31        40.16844
211.77         47.2035
212.23        65.76913
212.69        113.4496
213.14        191.6867
213.60        185.1317
214.06         127.413
214.52        90.22898
214.98        76.20535
215.44        73.65323
215.90        75.25032
216.36        79.53817
216.81        85.28793
217.27        92.47716
217.73         104.862
218.19        120.0585
218.65        122.3496
219.11         108.764
219.57        90.44726
220.02        78.94302
220.48        80.31734
220.94        93.65762
221.40        120.8234
221.86        161.2106
222.32        188.8298
222.77        180.5549
223.23        153.2044
223.69        126.0963
224.15        110.4446
224.61        104.2971
225.06        102.0704
225.52        102.3488
225.98         103.372
226.44        104.6734
226.90        107.1587
227.36        109.8377
227.81         110.669
228.27        109.6601
228.73        107.1234
229.19        105.2065
229.65        106.6509
230.10        111.3356
230.56        118.3065
231.02        124.8049
231.48        126.4451
231.93        122.6743
232.39        116.0685
232.85        109.3208
233.31        105.8886
233.77        106.1738
234.22        108.8184
234.68        112.5915
235.14        115.6651
235.60        117.3043
236.05        118.2334
236.51        118.0206
236.97        116.1642
237.43        112.7485
237.88        107.9143
238.34        102.7711
238.80        99.56746
239.26        99.04295
239.71         101.734
240.17        106.8665
240.63        112.3105
241.08        116.6248
241.54        119.1405
242.00        121.2556
242.46        126.5038
242.91        137.9743
243.37         156.359
243.83        181.9298
244.28        203.0926
244.74        201.4749
245.20        177.5788
245.66        148.0075
246.11         126.155
246.57        112.6414
247.03        103.8106
247.48        96.79118
247.94        89.00506
248.40        81.83721
248.85         76.5052
249.31        73.69077
249.77        72.97398
250.22        73.69054
250.68         75.4909
251.14        77.66065
251.59        78.00659
252.05        76.02902
252.51        73.56344
252.96        71.11743
253.42        69.47797
253.88        68.69704
254.33        68.06135
254.79        69.46564
255.25        74.35485
255.70        82.23579
256.16        92.50216
256.62        101.3083
257.07        102.6528
257.53        98.27739
257.99        91.91144
258.44        86.77122
258.90        85.98247
259.35        88.19728
259.81        92.31853
260.27        96.38177
260.72        97.99641
261.18         97.3926
261.63        95.22845
262.09        93.22749
262.55        92.41384
263.00        92.61071
263.46        93.54769
263.91        94.08454
264.37        93.35503
264.83        91.31882
265.28        88.47936
265.74          85.974
266.19        84.70618
266.65        84.87422
267.11        85.93286
267.56        87.19962
268.02        87.62513
268.47        86.90849
268.93        85.46086
269.38        83.64486
269.84        82.11951
270.30        81.04498
270.75        80.17213
271.21        79.45581
271.66        78.73852
272.12        77.97325
272.57        77.20291
273.03        76.36005
273.48        75.26225
273.94        74.00047
274.39         72.5767
274.85        71.25439
275.31        70.17142
275.76         69.3041
276.22        68.65726
276.67        68.07126
277.13        67.51935
277.58        66.85972
278.04        66.15637
278.49        65.29955
278.95        64.33849
279.40        63.21418
279.86        62.08069
280.31        60.87369
280.77        59.70868
281.22        58.55055
281.68        57.50936
282.13        56.60922
282.59         56.0584
283.04        55.77507
283.50        55.71358
283.95        55.67761
284.41        55.41065
284.86        54.83599
285.32        54.08802
285.77        53.24231
286.22        52.51774
286.68        51.96181
287.13        51.45248
287.59        50.99084
288.04        50.49895
288.50        50.00051
288.95        49.48895
289.41        48.96957
289.86        48.32224
290.32        47.60683
290.77        46.82872
291.22        46.12136
291.68        45.65948
292.13        45.44702
292.59        45.44527
293.04        45.55151
293.50         45.6375
293.95        45.64656
294.40         45.6249
294.86        45.60418
295.31        45.61786
295.77        45.69616
296.22        45.80761
296.68        45.97133
297.13        46.19475
297.58        46.48044
298.04         46.8212
298.49        47.18529
298.95        47.54622
299.40        47.87479
299.85        48.17622
300.31        48.44201
300.76         48.6406
301.21        48.77796
301.67        48.87698
302.12        48.94091
302.58        49.05537
303.03        49.20026
303.48        49.38623
303.94        49.59109
304.39        49.72427
304.84        49.79059
305.30        49.82226
305.75        49.83549
306.20        49.92846
306.66         50.1224
307.11        50.35786
307.57        50.58144
308.02        50.64422
308.47        50.54115
308.93        50.33182
309.38        50.08257
309.83        49.95815
310.29        49.99311
310.74        50.13172
311.19        50.28964
311.65        50.32284
312.10        50.18748
312.55        49.92786
313.00        49.63343
313.46        49.43502
313.91        49.34241
314.36        49.32362
314.82         49.2903
315.27        49.11963
315.72        48.78363
316.18        48.34547
316.63        47.88589
317.08         47.5465
317.53        47.35878
317.99        47.27046
318.44        47.22237
318.89        47.10417
319.35        46.88125
319.80        46.58714
320.25        46.25811
320.70        45.95082
321.16        45.68409
321.61        45.45977
322.06         45.2508
322.51        45.02228
322.97         44.7605
323.42         44.4758
323.87        44.22651
324.32        44.11189
324.78        44.12605
325.23         44.2657
325.68        44.37123
326.13        44.18854
326.59        43.67177
327.04        42.91944
327.49        42.14605
327.94        41.69268
328.39        41.63555
328.85        41.86391
329.30        42.23228
329.75        42.38303
330.20        42.20253
330.66         41.7848
331.11        41.29585
331.56        40.96964
332.01        40.87785
332.46        40.93574
332.92        41.03134
333.37        41.04717
333.82         40.9156
334.27        40.69934
334.72        40.45857
335.17        40.27787
335.63        40.18666
336.08        40.17877
336.53        40.22762
336.98        40.31071
337.43        40.40956
337.88        40.51335
338.34        40.62269
338.79        40.78072
339.24        40.96192
339.69        41.15035
340.14        41.25587
340.59        41.14219
341.05        40.81453
341.50        40.33325
341.95        39.85162
342.40        39.60022
342.85        39.62993
343.30        39.86209
343.75        40.19418
344.20        40.45366
344.66         40.5758
345.11         40.6051
345.56        40.54012
346.01        40.38264
346.46        40.16133
346.91        39.88552
347.36        39.62226
347.81        39.48447
348.26        39.49346
348.72        39.61528
349.17         39.8029
349.62         39.9891
350.07        40.13991
350.52        40.27403
350.97         40.3409
351.42         40.2659
351.87        40.04931
352.32        39.71226
352.77        39.37111
353.22        39.19975
353.67        39.22993
354.13         39.4208
354.58        39.64786
355.03        39.69424
355.48        39.50771
355.93        39.15313
356.38        38.77519
356.83        38.59141
357.28        38.64074
357.73        38.84556
358.18         39.0573
358.63        39.04041
359.08        38.73814
359.53        38.23097
359.98        37.65856
360.43        37.22331
360.88         36.9726
361.33        36.84637
361.78        36.74357
362.23        36.50605
362.68        36.10593
363.13        35.61256
363.58        35.12711
364.03        34.79583
364.48        34.64986
364.93        34.63213
365.38        34.66965
365.83        34.64812
366.28        34.53025
366.73        34.35297
367.18        34.14057
367.63        33.93105
368.08        33.73915
368.53        33.54459
368.98        33.35888
369.43        33.20462
369.88        33.08262
370.33        32.99408
370.78        32.90402
371.23        32.75082
371.68        32.52406
372.13        32.24062
372.58        31.95448
373.03        31.75273
373.48        31.65074
373.93        31.61695
374.38        31.59143
374.83        31.47994
375.28        31.25924
375.72        30.95488
376.17        30.63131
376.62        30.34503
377.07        30.12008
377.52        29.94682
377.97        29.80764
378.42        29.67925
378.87        29.55306
379.32        29.42588
379.77        29.32924
380.22        29.30692
380.67        29.35409
381.11        29.46344
381.56        29.52524
382.01        29.39104
382.46        29.04953
382.91        28.57348
383.36        28.11126
383.81        27.86587
384.26        27.86788
384.71        28.04754
385.15        28.30101
385.60        28.45049
386.05         28.4364
386.50        28.31276
386.95        28.12046
387.40        27.92548
387.85        27.75887
388.29        27.58338
388.74        27.44349
389.19        27.33846
389.64        27.26309
390.09        27.21283
390.54        27.17422
390.98        27.11216
391.43        27.03638
391.88        26.95857
392.33        26.87396
392.78        26.77644
393.23        26.67087
393.67        26.54321
394.12        26.45584
394.57        26.45044
395.02         26.5271
395.47        26.66055
395.91        26.79228
396.36        26.80836
396.81        26.69994
397.26        26.51161
397.71        26.29764
398.15        26.15466
398.60         26.1349
399.05        26.09654
399.50        26.05015
399.95        26.20568
400.39        26.46936
400.84        26.37926
401.29        25.97692
401.74        25.74306
402.18        25.71711
402.63        25.61595
403.08        25.46412
403.53        25.41591
403.97         25.4742
404.42        25.60484
404.87        25.73314
405.32        25.73371
405.76        25.58262
406.21        25.33272
406.66        25.08162
407.11          24.986
407.55        25.08455
408.00        25.31513
408.45        25.58758
408.90        25.72492
409.34        25.67122
409.79        25.49334
410.24        25.26575
410.68        25.08506
411.13        24.98858
411.58        24.94203
412.03        24.93518
412.47        24.95721
412.92        24.98716
413.37        25.03705
413.81        25.08726
414.26         25.1299
414.71        25.15272
415.15        25.16239
415.60        25.14828
416.05        25.12427
416.49        25.09901
416.94        25.06778
417.39        25.04086
417.83        25.03032
418.28        25.03598
418.73        25.04968
419.17        25.06677
419.62         25.0791
420.07        25.08193
420.51        25.07223
420.96        25.04216
421.41         24.9745
421.85        24.86419
422.30        24.71316
422.74        24.54418
423.19        24.49817
423.64        24.54704
424.08        24.53098
424.53        24.44234
424.98        24.45563
425.42        24.58595
425.87        24.66399
426.31         24.6918
426.76        24.85473
427.21         25.0766
427.65        25.00467
428.10        24.70954
428.54        24.56588
428.99        24.61096
429.44        24.73249
429.88        24.85781
430.33        24.77428
430.77        24.55269
431.22        24.65982
431.66        25.04313
432.11         25.1937
432.56        25.09007
433.00        25.07156
433.45        25.07346
433.89         24.8614
434.34        24.61683
434.78        24.11506
435.23        24.68643
435.67         24.7552
436.12        24.66161
436.57        24.47131
437.01        24.27297
437.46        24.22084
437.90        24.32986
438.35        24.49282
438.79        24.62804
439.24        24.69564
439.68        24.66954
440.13        24.55718
440.57        24.42122
441.02        24.35937
441.46        24.38547
441.91        24.50244
442.35         24.6189
442.80        24.62753
443.24           24.52
443.69        24.44414
444.13        24.41618
444.58        24.38013
445.02        24.34123
445.47        24.35015
445.91         24.3962
446.36        24.44301
446.80        24.47832
447.24        24.51397
447.69        24.55065
448.13        24.57803
448.58            24.6
449.02        24.61076
449.47        24.61333
449.91        24.60285
450.36        24.58839
450.80        24.56672
451.25        24.55456
451.69        24.55992
452.13        24.58822
452.58        24.63154
453.02        24.67962
453.47        24.71942
453.91        24.74475
454.36        24.76167
454.80        24.76021
455.24        24.72552
455.69        24.66505
456.13        24.56698
456.58        24.47706
457.02         24.4262
457.46        24.43023
457.91        24.47991
458.35        24.52053
458.79        24.47243
459.24        24.34772
459.68        24.16677
460.13        24.01476
460.57        23.96066
461.01        24.03573
461.46        24.18675
461.90        24.39102
462.34         24.5921
462.79        24.75059
463.23        24.88683
463.68        24.94542
464.12        24.85523
464.56        24.62197
465.01        24.31725
465.45        24.00728
465.89        23.84507
466.34        23.85183
466.78        23.97889
467.22        24.18312
467.67        24.35879
468.11        24.47767
468.55        24.55516
468.99        24.59471
469.44        24.60172
469.88        24.58685
470.32        24.54008
470.77        24.48529
471.21         24.4715
471.65        24.50617
472.10        24.58182
472.54          24.668
472.98        24.72039
473.42        24.72688
473.87        24.70905
474.31        24.66761
474.75        24.62721
475.20         24.6026
475.64        24.57874
476.08         24.5652
476.52        24.56421
476.97        24.57589
477.41        24.61308
477.85         24.6765
478.29        24.72832
478.74        24.78335
479.18         24.9049
479.62        25.06353
480.06        25.17157
480.50        25.22508
480.95        25.23254
481.39        25.19149
481.83        25.35081
482.27        25.33458
482.72        25.41702
483.16        25.50042
483.60        25.54199
484.04        25.51927
484.48        25.66252
484.93        25.93545
485.37        25.64922
485.81        25.65991
486.25        25.92043
486.69        24.82311
487.14        25.82162
487.58        27.09915
488.02        26.81273
488.46         26.2679
488.90        26.50866
489.34        26.64056
489.79        27.05048
490.23        27.13233
490.67        27.19914
491.11        27.22676
491.55        27.23285
491.99        27.26424
492.43        27.31024
492.88        27.38769
493.32        27.51844
493.76        27.68379
494.20        27.85898
494.64         28.0441
495.08        28.18796
495.52         28.2983
495.96        28.57331
496.41        28.95101
496.85        28.98315
497.29        28.72997
497.73        28.96301
498.17        29.26046
498.61          29.432
499.05        29.34106
499.49        29.32845
499.93        29.35052
500.37        29.53139
500.82        29.81085
501.26        30.02449
501.70        30.14524
502.14        30.27667
502.58        30.43427
503.02        30.58433
503.46        30.72634
503.90        30.86927
504.34        30.98426
504.78         31.0258
505.22        30.99176
505.66        30.89972
506.10        30.80615
506.54         30.8004
506.98        30.89994
507.42         31.0762
507.86        31.27691
508.30        31.41277
508.74        31.46016
509.18        31.45238
509.62        31.41611
510.06        31.39565
510.50        31.40891
510.94        31.43544
511.38         31.4923
511.82        31.60843
512.26        31.77986
512.70        32.00014
513.14        32.20896
513.58        32.30642
514.02        32.27372
514.46        32.13771
514.90        31.97487
515.34        31.91238
515.78        31.97995
516.22        32.13826
516.66        32.31848
517.10         32.4084
517.54        32.37931
517.98        32.27119
518.42        32.13176
518.86         32.0352
519.30        32.00499
519.74        32.01515
520.18        32.04703
520.62        32.07327
521.06        32.08394
521.50        32.09258
521.93        32.10011
522.37         32.0939
522.81        32.07748
523.25         32.0466
523.69        32.01264
524.13        31.99765
524.57        32.00093
525.01        32.01094
525.45        32.00728
525.89         31.9564
526.32        31.85061
526.76        31.71701
527.20        31.56717
527.64        31.42076
528.08        31.29081
528.52        31.17334
528.96        31.09116
529.40        31.07887
529.83        31.13309
530.27        31.23991
530.71        31.34807
531.15        31.37881
531.59        31.31333
532.03        31.17327
532.46        30.99379
532.90        30.85481
533.34        30.77487
533.78        30.71938
534.22        30.67428
534.66        30.65438
535.09        30.63074
535.53        30.54172
535.97         30.4121
536.41        30.35756
536.85        30.38803
537.28        30.44102
537.72        30.50252
538.16         30.5745
538.60        30.64772
539.04        30.72164
539.47        30.78495
539.91        30.84084
540.35        30.88497
540.79        30.91944
541.22        30.95558
541.66        31.02262
542.10        31.12135
542.54        31.24388
542.97        31.37122
543.41        31.48653
543.85        31.58125
544.29        31.66739
544.72        31.74796
545.16         31.8481
545.60        31.96978
546.04         32.1124
546.47        32.28406
546.91        32.49132
547.35        32.72641
547.79        32.98283
548.22        33.23949
548.66        33.45787
549.10        33.66902
549.53        33.86615
549.97        34.05329
550.41        34.16213
550.84        34.23015
551.28        34.35311
551.72        34.51517
552.15        34.70526
552.59        34.96069
553.03        34.82439
553.46        35.23347
553.90        35.31806
554.34        35.35546
554.77        35.36015
555.21        35.38609
555.65        35.49118
556.08        35.67244
556.52        35.88881
556.96         36.0876
557.39        36.28648
557.83        36.44252
558.27         36.3698
558.70        36.14546
559.14        36.11124
559.57        36.27217
560.01        36.42221
560.45        36.53379
560.88        36.68027
561.32        36.86708
561.75        37.03609
562.19        37.18213
562.63        37.28895
563.06        37.34859
563.50        37.37027
563.93         37.3523
564.37        37.39317
564.80        37.51771
565.24        37.60938
565.68        37.57421
566.11        38.08525
566.55        37.76905
566.98        37.77486
567.42        37.78662
567.85        37.90139
568.29         38.1364
568.72        38.49299
569.16        38.94789
569.60        39.19835
570.03        39.35776
570.47        39.60913
570.90        39.69532
571.34        39.63953
571.77        39.92329
572.21        40.05701
572.64        40.12276
573.08        40.36705
573.51         40.3875
573.95        40.41883
574.38        40.45625
574.82        40.65429
575.25        40.43526
575.69        40.64829
576.12        40.80234
576.56        40.80936
576.99        40.65293
577.42        40.73252
577.86        40.85542
578.29        41.20023
578.73        40.75265
579.16        40.92036
579.60        40.75085
580.03        40.90662
580.47        40.58339
580.90         40.7378
581.33        40.64195
581.77        40.48359
582.20        39.66473
582.64        39.96852
583.07        39.95208
583.51        40.01821
583.94        39.85283
584.37        39.73781
584.81        39.58079
585.24        39.42112
585.68        39.30241
586.11        39.09443
586.54         39.2352
586.98        38.92447
587.41        38.71965
587.85        38.75383
588.28        38.48665
588.71        38.89932
589.15        38.46768
589.58        38.66669
590.01        38.78322
590.45        38.59852
590.88        38.90462
591.31        38.81793
591.75         38.6956
592.18        38.46999
592.61        38.17792
593.05        38.82414
593.48        38.82866
593.91        38.83963
594.35        39.15313
594.78        39.05911
595.21        38.88611
595.65        39.07138
596.08        39.69842
596.51        40.04946
596.94        39.96469
597.38        40.07763
597.81        40.34216
598.24         40.6799
598.68        40.80747
599.11        40.83241
599.54        41.58403
599.97        41.42844
600.41        42.27786
600.84        42.35983
601.27        42.79769
601.70        43.07795
602.14        43.34711
602.57        43.70459
603.00        44.25166
603.43        44.11823
603.87        44.98249
604.30        45.51103
604.73        46.23662
605.16        45.87701
605.60        46.48511
606.03        46.53841
606.46         46.6007
606.89        47.51382
607.32        48.29655
607.76        48.44245
608.19        49.05652
608.62        49.38104
609.05        49.68375
609.48        49.89937
609.92        50.63292
610.35         50.9282
610.78        50.63733
611.21        51.12291
611.64        51.39613
612.07        51.93022
612.50        52.13732
612.94        52.42771
613.37        52.69426
613.80        52.80134
614.23         52.6206
614.66        52.80233
615.09        53.30162
615.52        53.72992
615.96        53.98215
616.39        54.40651
616.82        54.75066
617.25        54.61783
617.68         54.8236
618.11        55.05495
618.54        55.48811
618.97        55.76644
619.40        55.91572
619.84        55.78045
620.27        55.97406
620.70        56.13609
621.13         56.3947
621.56        56.04288
621.99        55.71572
622.42        55.70375
622.85         56.1389
623.28        56.26438
623.71        56.03606
624.14        56.33562
624.57        56.46552
625.00        56.37721
625.43        56.56124
625.86        56.48013
626.29         56.4248
626.72        55.88444
627.15        56.14013
627.58        56.00871
628.01        55.78735
628.44        55.71402
628.87        55.51329
629.30           54.94
629.73        54.74969
630.16        54.48603
630.59        54.23865
631.02        54.10226
631.45        53.99312
631.88        53.77679
632.31        53.40665
632.74         53.1316
633.17        52.60791
633.60        52.18465
634.03        51.77178
634.46        51.36501
634.89        50.94905
635.32        50.51907
635.75        50.08154
636.18        49.58965
636.61        49.09401
637.04        48.69312
637.47        48.38709
637.89        48.16587
638.32        47.96703
638.75        47.64287
639.18        47.15774
639.61        46.92718
640.04        46.34187
640.47        46.01863
640.90        45.78234
641.33        45.62915
641.76        45.51997
642.18        45.40985
642.61        45.27635
643.04        45.13372
643.47         45.0149
643.90        44.96927
644.33        45.00486
644.76        45.10376
645.18        45.22241
645.61        45.28278
646.04        45.27474
646.47        45.22425
646.90        45.19557
647.33        45.28075
647.75        45.49009
648.18        45.84915
648.61        46.31278
649.04        46.64831
649.47        46.79295
649.89        47.45613
650.32        47.44272
650.75        47.92065
651.18        48.48811
651.61        49.00313
652.03        49.46603
652.46        49.88832
652.89        50.31078
653.32        50.86926
653.74        51.53148
654.17        51.68663
654.60        52.60602
655.03        52.57656
655.46        51.84081
655.88        52.33625
656.31        53.52156
656.74        50.87867
657.16        55.86852
657.59        61.63511
658.02        57.14627
658.45        56.90755
658.87        56.13428
659.30        57.02453
659.73        56.86722
660.15        58.31734
660.58        57.73904
661.01        57.83733
661.44        57.92193
661.86        57.97604
662.29        58.02174
662.72        58.74924
663.14        58.97652
663.57        59.18863
664.00        59.14045
664.42        59.35849
664.85        59.86782
665.27        60.37306
665.70        60.74085
666.13        60.95351
666.55        60.99313
666.98        60.81028
667.41         60.4997
667.83         60.6108
668.26        60.55639
668.69        60.79756
669.11        61.10831
669.54        61.39785
669.96         61.6294
670.39        61.89828
670.82        62.17561
671.24        62.21478
671.67        62.09401
672.09        62.18854
672.52        62.48971
672.94        62.65665
673.37        62.67174
673.80        62.66889
674.22        62.70009
674.65        62.78067
675.07        62.93462
675.50        63.11588
675.92        63.28466
676.35        63.38793
676.77        63.41442
677.20        63.37523
677.62        63.32045
678.05        63.33351
678.47        63.43175
678.90        63.59676
679.32        63.78724
679.75         63.9323
680.17        64.00886
680.60        64.07349
681.02        64.16666
681.45        64.18336
681.87        64.42611
682.30        64.60913
682.72        64.80029
683.15        65.01385
683.57        65.21241
684.00         65.2073
684.42        65.08116
684.85         65.1495
685.27        65.43032
685.70        65.77567
686.12        66.08591
686.54        66.29124
686.97        66.36162
687.39        66.29585
687.82         66.1413
688.24        66.14721
688.66        66.17921
689.09        66.19068
689.51        66.38859
689.94        66.49901
690.36        66.59624
690.78        66.63251
691.21        66.67354
691.63        66.87011
692.06        67.16504
692.48        67.39193
692.90        67.48086
693.33        67.27396
693.75        67.41015
694.17        67.20641
694.60        66.98261
695.02        66.99214
695.44        67.24742
695.87        67.71965
696.29        68.23507
696.71        68.20741
697.14        67.76078
697.56        67.73453
697.98        68.15092
698.41        68.41736
698.83         68.4426
699.25        68.72211
699.68        69.12313
700.10        69.31116
700.52        69.22417
700.94        68.98157
701.37        68.71841
701.79         68.6546
702.21        68.83839
702.64        69.18162
703.06        69.58863
703.48        69.88278
703.90        70.00401
704.33        70.02163
704.75        69.98203
705.17        69.90731
705.59        69.82315
706.01        69.88165
706.44        69.81496
706.86        69.92464
707.28        70.11328
707.70        70.38998
708.12        70.70545
708.55        70.92377
708.97        71.04608
709.39        71.18511
709.81        71.32811
710.23        71.38107
710.66        71.33952
711.08        71.27104
711.50        71.18878
711.92         71.1099
712.34        71.05372
712.76        71.03928
713.19        71.04203
713.61         71.0558
714.03        71.06615
714.45        71.08222
714.87        71.15799
715.29        71.37994
715.71        71.74691
716.13         72.2081
716.56        72.64314
716.98        72.94748
717.40        73.03642
717.82         72.9537
718.24        72.74504
718.66        72.48913
719.08        72.24417
719.50        72.01922
719.92        71.86548
720.34        71.85424
720.76        71.99154
721.19        72.23167
721.61        72.56759
722.03        72.92335
722.45        73.24838
722.87        73.53828
723.29        73.71543
723.71        73.66657
724.13        73.39274
724.55        72.94726
724.97        72.46848
725.39        72.18984
725.81        72.17926
726.23        72.35467
726.65        72.63808
727.07        73.05611
727.49        73.29253
727.91         73.5838
728.33         73.8441
728.75        74.06937
729.17        74.24799
729.59        74.35766
730.01        74.39915
730.43        74.38622
730.85        74.32809
731.27         74.2315
731.69        74.11046
732.10        73.97984
732.52        73.85042
732.94        73.74388
733.36        73.69365
733.78        73.60845
734.20        73.48093
734.62        73.58091
735.04        74.02205
735.46        73.52036
735.88        74.25813
736.30        74.41954
736.72        74.65962
737.13        74.96641
737.55        75.23698
737.97        75.54739
738.39        75.75196
738.81        75.32059
739.23        74.50317
739.65        74.43578
740.06        75.03274
740.48        75.38905
740.90        75.45008
741.32        75.27983
741.74        75.73311
742.16         75.9037
742.57        76.02641
742.99        76.09154
743.41        76.09144
743.83        76.00926
744.25        75.84792
744.67        75.60547
745.08        75.39047
745.50        75.35635
745.92        75.53931
746.34        75.89265
746.75        76.27297
747.17        76.41652
747.59        76.27299
748.01        75.95813
748.42        75.61655
748.84        75.39897
749.26        75.40929
749.68        75.73917
750.09        76.22211
750.51        76.48338
750.93        76.40436
751.35        76.05016
751.76        75.54917
752.18        75.14769
752.60        74.89594
753.01        74.92918
753.43        74.78017
753.85        74.87095
754.27        75.05806
754.68        75.34605
755.10         75.6675
755.52        75.91872
755.93        76.06264
756.35        76.08917
756.77        76.08128
757.18        76.12712
757.60        76.27363
758.02        76.58585
758.43        76.90326
758.85        76.67865
759.26        76.75533
759.68        75.88546
760.10        75.92013
760.51        76.18243
760.93        76.97972
761.34         76.6987
761.76        76.68274
762.18        76.59113
762.59        76.85105
763.01        77.12199
763.42        77.37352
763.84        77.56209
764.26         77.6197
764.67        77.37391
765.09        76.99763
765.50        76.79792
765.92        76.81468
766.33        76.82852
766.75        76.76897
767.16        76.56032
767.58        76.25878
768.00        76.34563
768.41        76.84178
768.83         77.0687
769.24        77.26523
769.66        77.38943
770.07          77.512
770.49        77.10179
770.90        76.55639
771.32        77.00953
771.73        78.25417
772.15        78.70079
772.56        78.24837
772.97         77.6944
773.39        77.28335
773.80        77.15082
774.22        77.31391
774.63        77.61081
775.05         77.8511
775.46        77.99263
775.88        77.94702
776.29         77.7003
776.70        77.39224
777.12        77.33457
777.53        77.59495
777.95         78.0123
778.36         78.4721
778.77        78.74397
779.19        78.78252
779.60        78.69276
780.02        78.49226
780.43        78.30471
780.84        78.20801
781.26        77.81268
781.67        77.33802
782.09        77.94001
782.50        79.25547
782.91        79.32407
783.33        78.25788
783.74        77.90376
784.15        78.32365
784.57        78.56669
784.98        78.56793
785.39        78.36021
785.81        78.11474
786.22        78.56463
786.63        79.50688
787.04        79.87399
787.46        79.59451
787.87        79.21494
788.28        78.97401
788.70        78.89571
789.11        79.01012
789.52        79.56641
789.93        80.26762
790.35        80.14578
790.76        79.34168
791.17        78.96288
791.58        79.18616
792.00        79.41204
792.41        79.52585
792.82        79.89769
793.23        80.28349
793.65         79.5804
794.06        78.26461
794.47        78.33862
794.88        79.53701
795.29        80.36984
795.71        79.67285
796.12        79.58186
796.53        79.85352
796.94        79.92349
797.35        79.80035
797.76        79.81053
798.18         79.9389
798.59        80.03169
799.00        80.06228
799.41        80.10645
799.82        80.17793
800.23        80.27364
800.64        80.38704
801.06        80.47239
801.47        80.54506
801.88        80.53415
802.29        80.42065
802.70        80.21449
803.11        79.95621
803.52        79.71401
803.93        79.54768
804.34        79.47713
804.75        79.48027
805.17        79.62846
805.58        79.97485
805.99        80.05481
806.40        79.98441
806.81        80.95538
807.22        82.49453
807.63        82.28008
808.04        80.56459
808.45        79.77642
808.86        80.10824
809.27        80.22952
809.68        80.03204
810.09        79.99272
810.50        80.09859
810.91        80.21365
811.32        80.40221
811.73        80.75775
812.14        81.26653
812.55        81.91393
812.96        82.49414
813.37        82.57899
813.78        82.11394
814.19        81.36008
814.60        80.55981
815.01        79.95109
815.42        79.61264
815.83        79.51078
816.24         79.6021
816.65        79.75985
817.05        79.93355
817.46         80.1403
817.87        80.34389
818.28        80.42568
818.69         80.3737
819.10        80.18381
819.51        79.99415
819.92        80.08455
820.33        80.50565
820.74        81.12573
821.14        81.74323
821.55        82.10564
821.96        82.09753
822.37        81.64471
822.78        80.93413
823.19        80.45155
823.60        80.32047
824.00        80.38452
824.41        80.50703
824.82        80.63223
825.23        80.70313
825.64        80.75487
826.04        80.81345
826.45        80.85983
826.86        80.91404
827.27        80.97615
827.68        81.02334
828.08        81.06097
828.49        81.03165
828.90         80.9455
829.31        80.89204
829.72        81.01894
830.12        81.36943
830.53        81.83856
830.94        82.23497
831.35        82.17776
831.75        81.61675
832.16        80.66546
832.57        79.65457
832.97        79.07736
833.38        79.06437
833.79        79.45019
834.20        80.04982
834.60        80.56264
835.01        80.88422
835.42         81.1442
835.82        81.34364
836.23        81.38872
836.64        81.31881
837.04        81.09676
837.45        80.91962
837.86        81.20068
838.26        82.02398
838.67        83.22576
839.08        84.39201
839.48        84.72475
839.89        84.02808
840.29        82.59811
840.70        81.07787
841.11        80.18501
841.51        80.11098
841.92        80.61935
842.33        81.46239
842.73        82.19727
843.14        82.52339
843.54        82.62795
843.95        82.60472
844.35        82.66616
844.76        82.84679
845.17        83.05808
845.57        83.20293
845.98        83.11324
846.38        82.79104
846.79         82.3013
847.19        81.81052
847.60        81.54346
848.00        81.56823
848.41        81.78786
848.81        82.09689
849.22        82.21788
849.62        82.12517
850.03         81.8875
850.43         81.6118
850.84        81.39114
851.24        81.31871
851.65        81.27199
852.05        81.37108
852.46        81.68526
852.86        82.18562
853.27        82.82893
853.67        83.32427
854.07        83.40629
854.48        83.01655
854.88         82.2768
855.29        81.36012
855.69        80.76177
856.10        80.56562
856.50        80.73129
856.90        81.08411
857.31        81.34004
857.71        81.45584
858.12        81.44446
858.52        81.37791
858.92        81.23873
859.33        81.03136
859.73        80.80035
860.13        80.55095
860.54        80.33804
860.94         80.2327
861.34        80.20534
861.75        80.27969
862.15        80.53458
862.55        80.93022
862.96        81.38733
863.36        81.81709
863.76        81.97059
864.17        81.77637
864.57        81.34137
864.97        80.73369
865.38        80.07467
865.78        79.46296
866.18        78.88284
866.58        78.43757
866.99        78.29723
867.39         78.5151
867.79        79.02361
868.19        79.66227
868.60        80.14634
869.00        80.42687
869.40        80.53703
869.80        80.52172
870.21        80.49251
870.61        80.55788
871.01        80.60809
871.41        80.59293
871.81        80.45061
872.22        80.15813
872.62        79.74421
873.02        79.28777
873.42        78.90283
873.82        78.63464
874.22        78.47351
874.63         78.3335
875.03        78.08945
875.43        77.71313
875.83         77.2609
876.23         76.8744
876.63         76.7627
877.03        76.96624
877.44        77.39252
877.84        77.90496
878.24        78.25457
878.64        78.31995
879.04        78.05477
879.44        77.66521
879.84        77.54252
880.24        77.73506
880.64        78.10992
881.04        78.38103
881.44        78.10316
881.84        77.21674
882.24        75.91661
882.65        74.62749
883.05        73.98282
883.45        74.14523
883.85         74.9446
884.25        76.04333
884.65        76.85267
885.05        77.17467
885.45         77.1564
885.85        77.02673
886.25        77.14983
886.65        77.60966
887.05        78.26159
887.45        78.89715
887.85        79.19613
888.25        79.07084
888.65        78.63599
889.04        78.08845
889.44        77.75426
889.84        77.69776
890.24        77.82336
890.64        77.97132
891.04          77.883
891.44        77.51086
891.84         76.9838
892.24        76.44743
892.64        76.09385
893.04        75.99237
893.44        76.10007
893.83        76.39386
894.23        76.77991
894.63        77.22279
895.03        77.68775
895.43        78.17854
895.83        78.71103
896.23        79.23721
896.63        79.70501
897.02        79.92604
897.42        79.64996
897.82        78.87959
898.22        77.77787
898.62        76.62839
899.01        75.83201
899.41        75.51977
899.81        75.56528
900.21        75.87478
900.61        76.27831
901.00         76.6751
901.40        77.08538
901.80        77.41131
902.20        77.49162
902.59        77.32268
902.99        76.94405
903.39        76.47752
903.79        76.14299
904.18        76.00105
904.58        75.98756
904.98        76.13535
905.38        76.49355
905.77        77.03441
906.17        77.77055
906.57        78.43395
906.96        78.57554
907.36        78.10612
907.76        77.17301
908.15        76.23948
908.55        76.02898
908.95        76.70408
909.34        78.04913
909.74        79.54407
910.14        80.41553
910.53        80.39758
910.93        79.74175
911.33        78.74138
911.72        77.83725
912.12        77.26888
912.52        76.92863
912.91        76.73328
913.31        76.59205
913.70         76.4739
914.10        76.38786
914.49        76.51595
914.89        77.03316
915.29        77.95443
915.68        79.19131
916.08        80.28436
916.47        80.57501
916.87        79.96278
917.26        78.65755
917.66        77.26844
918.05        76.54136
918.45        76.65363
918.84         77.4275
919.24        78.45064
919.64        79.13289
920.03         79.2758
920.42        79.01643
920.82        78.63637
921.21        78.50998
921.61        78.71243
922.00        79.15076
922.40        79.56016
922.79        79.67609
923.19        79.39496
923.58        78.86185
923.98        78.31155
924.37        77.98972
924.77        77.97743
925.16        78.15077
925.55        78.39799
925.95        78.50876
926.34        78.43076
926.74        78.20886
927.13        77.86966
927.52        77.37854
927.92         76.8301
928.31        76.25735
928.70        75.78909
929.10        75.58865
929.49        75.67175
929.89        75.90662
930.28         76.3871
930.67        77.13242
931.07        78.04196
931.46        79.16701
931.85        80.03248
932.24        79.94048
932.64        78.86341
933.03        77.01443
933.42         75.1945
933.82        74.57597
934.21        75.39552
934.60        77.37493
934.99        79.76086
935.39        81.16268
935.78        81.18903
936.17        80.11639
936.56        78.62707
936.96        77.81174
937.35        77.95663
937.74        78.71937
938.13        79.52197
938.53        79.49403
938.92        78.47504
939.31        76.86477
939.70        75.24594
940.09        74.41109
940.49        74.50674
940.88        75.29872
941.27        76.44531
941.66        77.32296
942.05        77.69788
942.44        77.78007
942.84         77.7048
943.23        77.67382
943.62        77.77837
944.01        77.88133
944.40        78.06767
944.79        78.52547
945.18        79.23503
945.57        80.13605
945.97        80.87894
946.36        80.97058
946.75         80.2726
947.14        79.02809
947.53        77.61549
947.92        76.56634
948.31         76.0416
948.70         75.9139
949.09        76.11662
949.48        76.51998
949.87        77.03202
950.26        77.66786
950.65        78.33091
951.04        78.85686
951.43        79.17146
951.82        79.25751
952.21        79.12424
952.60        78.82625
952.99        78.43999
953.38        78.03247
953.77         77.6686
954.16        77.44386
954.55        77.37294
954.94        77.37331
955.33        77.55799
955.72        78.09179
956.11         78.9532
956.50        80.12898
956.89        81.07182
957.28        80.88536
957.66        79.44449
958.05        77.09589
958.44        74.79446
958.83        73.92131
959.22        74.71275
959.61        76.79801
960.00         79.2563
960.39        80.35245
960.78        79.57636
961.16        77.49487
961.55        75.11308
961.94        73.76225
962.33        73.78638
962.72        74.82712
963.11        76.36047
963.49        77.42498
963.88        77.54568
964.27        77.01944
964.66         76.4004
965.04        76.52203
965.43        77.50755
965.82        79.15989
966.21        80.74081
966.60        80.89208
966.98        79.28915
967.37        76.55732
967.76        73.85533
968.15        72.62177
968.53        73.09932
968.92        74.90284
969.31        77.19761
969.69        78.31318
970.08        77.59962
970.47        75.63467
970.86        73.43819
971.24        72.41472
971.63        72.87366
972.02        74.41924
972.40        76.36395
972.79        77.07615
973.17        76.15884
973.56        74.23348
973.95        72.21888
974.33        71.27992
974.72        71.65332
975.11        72.91924
975.49        74.62598
975.88        75.81133
976.26        76.14363
976.65        75.86938
977.04        75.21889
977.42        74.50088
977.81        73.84455
978.19        73.14549
978.58        72.63081
978.96        72.66084
979.35        73.25077
979.74        74.34606
980.12        75.69008
980.51        76.51544
980.89        76.71043
981.28        76.42659
981.66        75.91332
982.05        75.54633
982.43        75.44157
982.82        75.42666
983.20        75.62859
983.59        76.14587
983.97        77.04797
984.35        78.30138
984.74        79.38881
985.12           79.67
985.51        78.94624
985.89          77.445
986.28        75.85931
986.66        75.16051
987.04        75.63081
987.43        76.96492
987.81        78.63296
988.20        79.43171
988.58        79.00697
988.96        77.64503
989.35        75.95586
989.73        74.77895
990.12        74.31059
990.50         74.3522
990.88        74.48213
991.27        74.01063
991.65        72.83598
992.03        71.28217
992.42        69.95787
992.80        69.61376
993.18        70.41072
993.56        72.11478
993.95         74.1175
994.33        75.46214
994.71        75.65366
995.10        75.07487
995.48        74.19414
995.86        73.83738
996.24        74.21922
996.63        74.89114
997.01        75.86726
997.39        76.77246
997.77        77.34235
998.15        77.79528
998.54        77.76351
998.92        76.53114
999.30        74.24634
999.68        71.22443
1000.06         68.5106
1000.45         67.5555
1000.83         68.7292
1001.21        71.74619
1001.59        75.71325
1001.97        78.36736
1002.35        78.75441
1002.73        77.53197
1003.12        75.79064
1003.50        74.87786
1003.88        75.25494
1004.26        76.34124
1004.64        77.95429
1005.02        79.68008
1005.40        81.14562
1005.78        82.62643
1006.16        83.44147
1006.54        82.48646
1006.92        79.83698
1007.30        75.93042
1007.69        72.27814
1008.07        70.87939
1008.45        72.30016
1008.83        76.14206
1009.21         81.1553
1009.59        84.17245
1009.97        83.69287
1010.35        80.62406
1010.73        76.39222
1011.11        73.06372
1011.49         71.2709
1011.86        70.39827
1012.24        70.16835
1012.62        70.17591
1013.00        70.25279
1013.38        70.58203
1013.76        71.18155
1014.14        71.89627
1014.52         72.5521
1014.90        72.99686
1015.28        73.07343
1015.66        72.68314
1016.04        71.86979
1016.41        70.73846
1016.79         69.4659
1017.17        68.50297
1017.55        68.01335
1017.93        67.83822
1018.31        67.97327
1018.69        68.38145
1019.06         69.0367
1019.44        70.06353
1019.82        70.99896
1020.20        70.80833
1020.58        69.29377
1020.95        66.80186
1021.33        64.66527
1021.71        64.31561
1022.09        65.99226
1022.46        69.68045
1022.84        74.30065
1023.22        76.97421
1023.60        76.39451
1023.97        73.13057
1024.35        69.73765
1024.73        69.26757
