SpectraSmart Spectrum 2.9.0.0
--------- Device Information -----------
Spectrum Name :  反射率_0
Saving Time :  2024/04/26 21:26:01
Spectro-Module Model Name : SE2030-DUVN
Spectro-Module Serial Number : OS361AC55029948
Wavelength Start : 200
Wavelength End : 1025
Wavelength Unit : Wavelength(nm)
Spectrum Unit : Reflectance(%)
-----------Spectrum Setting ------------
Integration Time : 20ms
Average : 10
Boxcar : 0
Background removal :  enabled
linearity correction :  enabled
SC :  disabled
Intensity correction :  disabled
DWT denoise :  enabled
savitzky-golay :  disabled
FFT :  disabled
Running average :  disabled
Kalman :  disabled
High pass :  disabled
---------------BEGIN--------------------
Wavelength(nm)             Reflectance(%)
200.29               0
200.75        26.18958
201.21        28.93426
201.67        31.52518
202.13        32.41867
202.58        31.48677
203.04        29.36078
203.50        26.87166
203.96        26.56463
204.42        30.05334
204.88         36.6127
205.34        44.32618
205.80         49.6118
206.26         51.0445
206.72         49.5772
207.18        46.73934
207.64        43.69101
208.10        40.43983
208.55        36.45773
209.01         31.1775
209.47        27.26201
209.93        27.17631
210.39        29.63099
210.85        32.72729
211.31        36.05458
211.77        40.68581
212.23        49.48514
212.69         70.2259
213.14        105.8516
213.60        104.7942
214.06        80.18026
214.52        62.49941
214.98        52.71512
215.44        46.07692
215.90        39.81477
216.36        34.82476
216.81        33.04231
217.27        35.64985
217.73        44.19451
218.19        57.66465
218.65        64.90955
219.11        60.87632
219.57        52.13643
220.02        47.12066
220.48        51.52587
220.94        65.85593
221.40         92.0172
221.86        129.9215
222.32          156.71
222.77        150.7073
223.23        126.5948
223.69        101.1583
224.15        84.02971
224.61        74.37991
225.06        68.30479
225.52        65.27398
225.98        64.62173
226.44        65.79989
226.90        68.96175
227.36        73.08784
227.81        76.06799
228.27        77.41718
228.73        77.33419
229.19        77.08132
229.65        78.41003
230.10        81.32951
230.56        85.20831
231.02        88.49217
231.48          88.788
231.93        85.86154
232.39        81.36232
232.85        76.82573
233.31        74.18137
233.77        73.67146
234.22        74.58926
234.68        76.29306
235.14        77.90745
235.60        79.04158
236.05        80.02697
236.51        80.53519
236.97        80.06749
237.43        78.51173
237.88        75.94768
238.34        72.89616
238.80        70.55216
239.26        69.29842
239.71        69.41769
240.17          70.432
240.63        71.56821
241.08        72.48866
241.54          72.953
242.00        74.09457
242.46         78.1888
242.91        87.31496
243.37        102.6832
243.83        124.5727
244.28        142.9103
244.74        142.2649
245.20        122.3692
245.66        97.37476
246.11        79.29163
246.57        68.72468
247.03        62.44191
247.48        58.03789
247.94        52.85936
248.40        47.80152
248.85        44.10352
249.31        42.34871
249.77        42.51636
250.22        44.19039
250.68        47.23758
251.14        51.12041
251.59        53.46395
252.05        53.19128
252.51        51.80301
252.96        49.75053
253.42        47.80595
253.88         46.2955
254.33        44.70468
254.79         45.0118
255.25        48.86987
255.70        55.75532
256.16        64.87006
256.62        72.52814
257.07        73.10606
257.53        68.26003
257.99        61.69674
258.44        56.42056
258.90        55.05325
259.35        56.46397
259.81        59.52176
260.27        62.65093
260.72        63.93956
261.18        63.48733
261.63        61.91032
262.09        60.40443
262.55        59.69377
263.00        59.68997
263.46        60.16945
263.91         60.4555
264.37        60.05396
264.83        58.93278
265.28        57.38535
265.74         56.0573
266.19          55.402
266.65        55.54447
267.11        56.16728
267.56        56.94069
268.02        57.35139
268.47        57.23074
268.93        56.77493
269.38        56.07121
269.84         55.3319
270.30        54.61714
270.75        53.83469
271.21        53.09333
271.66         52.4973
272.12        52.06181
272.57        51.74767
273.03        51.39889
273.48        50.72581
273.94        49.75427
274.39        48.55404
274.85        47.39999
275.31        46.49979
275.76        45.86647
276.22        45.46937
276.67        45.14688
277.13        44.79712
277.58        44.31522
278.04        43.77135
278.49        43.15263
278.95        42.58695
279.40         42.0286
279.86        41.52689
280.31        40.94856
280.77        40.25007
281.22        39.39353
281.68        38.50639
282.13        37.67103
282.59        37.11028
283.04        36.79565
283.50        36.67195
283.95        36.59938
284.41        36.38678
284.86        35.97882
285.32        35.47402
285.77        34.92277
286.22         34.4673
286.68        34.13508
287.13        33.83735
287.59        33.56609
288.04        33.25835
288.50        32.92828
288.95        32.57459
289.41        32.20702
289.86        31.75544
290.32        31.26122
290.77        30.72329
291.22        30.23182
291.68        29.90503
292.13        29.74546
292.59         29.7303
293.04        29.77732
293.50         29.7805
293.95        29.70156
294.40        29.57989
294.86        29.46773
295.31        29.43611
295.77        29.51473
296.22        29.67247
296.68        29.88333
297.13        30.09215
297.58         30.2878
298.04        30.48204
298.49        30.69647
298.95        30.98204
299.40        31.32945
299.85        31.71269
300.31        32.07139
300.76        32.30794
301.21        32.40778
301.67        32.41579
302.12        32.37313
302.58         32.3997
303.03        32.49742
303.48        32.65167
303.94        32.82754
304.39        32.93954
304.84        32.98126
305.30        32.98983
305.75        32.97559
306.20        33.00404
306.66        33.09452
307.11        33.21075
307.57        33.32936
308.02        33.37379
308.47        33.34097
308.93        33.25948
309.38        33.16168
309.83        33.14088
310.29        33.21141
310.74        33.33807
311.19        33.45384
311.65        33.44687
312.10        33.28935
312.55        33.01841
313.00        32.71801
313.46        32.51104
313.91        32.41364
314.36        32.39973
314.82        32.39481
315.27        32.28772
315.72        32.05299
316.18        31.74086
316.63         31.4218
317.08        31.21656
317.53        31.14822
317.99        31.16763
318.44        31.21347
318.89        31.17625
319.35        31.02503
319.80        30.79602
320.25         30.5268
320.70        30.27822
321.16        30.06969
321.61        29.88887
322.06        29.72798
322.51        29.57939
322.97        29.43325
323.42        29.30062
323.87        29.17688
324.32        29.05528
324.78        28.92362
325.23        28.79803
325.68        28.65462
326.13          28.469
326.59        28.24186
327.04        27.98992
327.49        27.75409
327.94        27.60366
328.39        27.54506
328.85        27.54396
329.30         27.5636
329.75        27.48306
330.20         27.2744
330.66        26.97269
331.11        26.64961
331.56        26.39813
332.01        26.24881
332.46        26.17037
332.92        26.13204
333.37        26.12172
333.82        26.10988
334.27        26.11329
334.72        26.11148
335.17        26.06547
335.63         25.9709
336.08         25.8496
336.53        25.74357
336.98         25.7387
337.43        25.84986
337.88        26.03812
338.34         26.2555
338.79        26.44531
339.24        26.56507
339.69        26.63465
340.14         26.6203
340.59        26.47399
341.05        26.21568
341.50        25.86553
341.95        25.53095
342.40          25.376
342.85        25.43192
343.30        25.65052
343.75          25.929
344.20        26.09254
344.66        26.09205
345.11        25.97494
345.56        25.79967
346.01        25.66398
346.46        25.60236
346.91         25.5831
347.36        25.58916
347.81         25.5995
348.26        25.60457
348.72        25.61783
349.17        25.63717
349.62        25.66531
350.07        25.70122
350.52         25.7419
350.97        25.76805
351.42        25.75474
351.87        25.69701
352.32        25.59738
352.77        25.49294
353.22        25.43702
353.67        25.43818
354.13        25.48875
354.58        25.52949
355.03        25.46523
355.48        25.28161
355.93        25.01058
356.38        24.74759
356.83        24.63451
357.28        24.69234
357.73        24.87212
358.18        25.06274
358.63        25.08399
359.08        24.89215
359.53        24.54604
359.98        24.14995
360.43        23.85724
360.88        23.70687
361.33        23.65656
361.78        23.63448
362.23        23.52855
362.68        23.31455
363.13        23.03278
363.58        22.75745
364.03        22.59748
364.48        22.57079
364.93        22.63481
365.38        22.70636
365.83        22.65535
366.28        22.45261
366.73         22.1448
367.18        21.80848
367.63        21.56154
368.08         21.4358
368.53        21.39451
368.98          21.392
369.43        21.35495
369.88        21.26057
370.33        21.13403
370.78        20.99552
371.23        20.87801
371.68        20.79053
372.13        20.71271
372.58        20.63768
373.03        20.55804
373.48        20.46911
373.93         20.3801
374.38        20.27571
374.83        20.13053
375.28        19.94652
375.72        19.72711
376.17        19.52859
376.62        19.41059
377.07          19.382
377.52        19.42445
377.97        19.48169
378.42        19.46304
378.87        19.34848
379.32        19.16391
379.77         18.9692
380.22        18.85314
380.67        18.82979
381.11        18.87366
381.56        18.91669
382.01        18.86382
382.46        18.69992
382.91        18.47603
383.36        18.24944
383.81        18.09405
384.26        18.02471
384.71        18.00885
385.15        18.03687
385.60        18.09756
386.05        18.17067
386.50        18.25478
386.95        18.30317
387.40        18.24564
387.85        18.08138
388.29        17.83137
388.74        17.58115
389.19         17.4075
389.64         17.3249
390.09        17.30436
390.54        17.31516
390.98        17.30025
391.43        17.25348
391.88        17.19463
392.33        17.12629
392.78        17.05075
393.23        16.97162
393.67        16.87329
394.12        16.79298
394.57        16.75478
395.02        16.75918
395.47        16.79527
395.91        16.82849
396.36        16.78846
396.81        16.67649
397.26        16.52413
397.71        16.37511
398.15        16.30324
398.60        16.33734
399.05         16.3748
399.50        16.40788
399.95         16.5511
400.39         16.7393
400.84        16.68463
401.29        16.40552
401.74        16.19433
402.18        16.08046
402.63        15.89813
403.08        15.69331
403.53         15.6074
403.97        15.65223
404.42        15.79112
404.87        15.95903
405.32        16.04492
405.76        16.01705
406.21        15.91346
406.66        15.78533
407.11        15.71737
407.55        15.73524
408.00        15.80326
408.45         15.8845
408.90        15.90787
409.34        15.85243
409.79        15.74988
410.24        15.63708
410.68        15.55632
411.13        15.52477
411.58        15.52867
412.03        15.54961
412.47           15.56
412.92        15.54395
413.37        15.51132
413.81        15.48064
414.26        15.49136
414.71        15.54352
415.15        15.63298
415.60        15.71398
416.05        15.72141
416.49         15.6438
416.94        15.50061
417.39        15.35768
417.83        15.31584
418.28         15.3917
418.73         15.5482
419.17        15.72043
419.62        15.80234
420.07         15.7681
420.51        15.65534
420.96        15.50666
421.41        15.38402
421.85        15.30539
422.30        15.24498
422.74        15.20311
423.19        15.25222
423.64         15.3639
424.08         15.4434
424.53        15.46494
424.98        15.50295
425.42        15.55989
425.87        15.53808
426.31        15.46289
426.76        15.49212
427.21        15.59246
427.65        15.53794
428.10         15.3701
428.54        15.31407
428.99        15.38616
429.44        15.51504
429.88        15.64519
430.33        15.62808
430.77         15.5024
431.22        15.56363
431.66         15.7817
432.11        15.83452
432.56         15.7148
433.00        15.65054
433.45        15.60863
433.89        15.43191
434.34        15.25334
434.78        14.97521
435.23        15.41529
435.67        15.54518
436.12        15.56294
436.57        15.52264
437.01        15.45244
437.46        15.40688
437.90        15.38988
438.35        15.34155
438.79        15.26746
439.24        15.22928
439.68        15.23289
440.13        15.26557
440.57        15.31234
441.02        15.36114
441.46        15.40146
441.91        15.39289
442.35        15.35316
442.80        15.45985
443.24        15.65017
443.69        15.65587
444.13        15.49118
444.58        15.42383
445.02        15.46213
445.47        15.45962
445.91        15.41789
446.36        15.41315
446.80        15.44322
447.24        15.48836
447.69        15.53467
448.13        15.55191
448.58        15.53828
449.02        15.50382
449.47        15.46413
449.91        15.43573
450.36        15.42864
450.80        15.43174
451.25        15.44903
451.69        15.47781
452.13        15.51482
452.58        15.55641
453.02        15.58711
453.47        15.58354
453.91        15.54368
454.36        15.48186
454.80        15.40794
455.24        15.33773
455.69        15.28416
456.13        15.23025
456.58        15.20697
457.02        15.23519
457.46        15.31864
457.91        15.44801
458.35         15.5592
458.79        15.55455
459.24         15.4351
459.68        15.22591
460.13        15.02359
460.57        14.93263
461.01        14.98597
461.46        15.13607
461.90        15.32827
462.34        15.45578
462.79        15.47855
463.23         15.4332
463.68        15.34048
464.12        15.24656
464.56        15.16944
465.01        15.11321
465.45        15.05956
465.89        15.02759
466.34        15.01724
466.78        15.02513
467.22        15.05341
467.67        15.08706
468.11        15.12857
468.55        15.17139
468.99        15.21067
469.44        15.23883
469.88        15.25531
470.32        15.26044
470.77        15.26036
471.21        15.26932
471.65        15.28877
472.10        15.31644
472.54        15.34452
472.98        15.36654
473.42        15.37978
473.87        15.39167
474.31        15.39254
474.75        15.38223
475.20        15.36626
475.64        15.34024
476.08        15.31681
476.52        15.30739
476.97        15.31374
477.41        15.33832
477.85        15.37647
478.29        15.39709
478.74        15.40753
479.18        15.45188
479.62        15.51346
480.06         15.5393
480.50        15.53055
480.95        15.49634
481.39        15.44217
481.83        15.52601
482.27        15.52062
482.72        15.60119
483.16        15.69979
483.60         15.7644
484.04        15.78218
484.48        15.90782
484.93        16.11809
485.37        15.98683
485.81        16.11749
486.25        16.29417
486.69        15.93329
487.14        16.59599
487.58        17.21852
488.02        16.85523
488.46        16.43283
488.90        16.46528
489.34        16.38404
489.79         16.6261
490.23        16.78915
490.67        16.93801
491.11        17.01412
491.55        16.98346
491.99        16.90243
492.43        16.89128
492.88        16.97604
493.32        17.09017
493.76        17.21256
494.20        17.35085
494.64        17.50041
495.08         17.6225
495.52        17.71807
495.96        17.90322
496.41        18.13868
496.85        18.15062
497.29        17.97847
497.73         18.1066
498.17        18.27377
498.61        18.36095
499.05        18.29926
499.49        18.32238
499.93        18.40495
500.37        18.62494
500.82        18.90728
501.26        19.07708
501.70        19.10581
502.14        19.08662
502.58        19.06935
503.02        19.09516
503.46        19.18223
503.90        19.31718
504.34         19.4617
504.78        19.55211
505.22         19.5726
505.66        19.54543
506.10         19.5048
506.54        19.50405
506.98        19.55666
507.42        19.64305
507.86        19.74238
508.30        19.82097
508.74        19.86895
509.18        19.90183
509.62        19.92411
510.06        19.94246
510.50        19.96162
510.94        19.97416
511.38        19.99761
511.82        20.06112
512.26        20.16632
512.70        20.30676
513.14        20.44072
513.58        20.49985
514.02        20.47172
514.46        20.37572
514.90        20.26786
515.34        20.23984
515.78        20.31159
516.22        20.45395
516.66        20.61094
517.10        20.69175
517.54        20.67448
517.98        20.59137
518.42        20.48459
518.86        20.42092
519.30        20.41954
519.74        20.45497
520.18        20.50903
520.62        20.55496
521.06        20.58169
521.50        20.60132
521.93        20.60855
522.37        20.58438
522.81        20.53321
523.25        20.45887
523.69        20.38469
524.13        20.34939
524.57        20.35799
525.01        20.39511
525.45        20.43796
525.89        20.44818
526.32        20.41244
526.76        20.35011
527.20        20.26466
527.64        20.16385
528.08        20.05644
528.52        19.94117
528.96        19.84083
529.40        19.79069
529.83        19.79449
530.27        19.84423
530.71        19.90392
531.15        19.91596
531.59        19.86683
532.03        19.77098
532.46        19.65947
532.90        19.59675
533.34        19.59304
533.78        19.61794
534.22        19.64082
534.66        19.64001
535.09        19.59138
535.53        19.46533
535.97        19.30075
536.41          19.207
536.85        19.20051
537.28        19.23409
537.72        19.28312
538.16        19.32189
538.60        19.33916
539.04         19.3452
539.47        19.35063
539.91        19.38316
540.35        19.44446
540.79        19.52518
541.22        19.61389
541.66        19.70126
542.10        19.78013
542.54         19.8541
542.97         19.9252
543.41        20.00424
543.85        20.09217
544.29        20.19011
544.72        20.28976
545.16        20.39313
545.60        20.49711
546.04        20.60412
546.47        20.72836
546.91        20.88778
547.35        21.07817
547.79        21.28905
548.22        21.48998
548.66        21.63201
549.10        21.73184
549.53        21.79331
549.97        21.84173
550.41        21.86876
550.84        21.91061
551.28        22.02156
551.72        22.16976
552.15        22.32079
552.59        22.49343
553.03        22.36889
553.46         22.6376
553.90        22.73931
554.34        22.87319
554.77        23.02859
555.21        23.19883
555.65        23.34279
556.08        23.43994
556.52        23.51034
556.96        23.56814
557.39        23.58379
557.83        23.73179
558.27        23.72229
558.70        23.63119
559.14        23.62987
559.57        23.71262
560.01        23.76364
560.45        23.78356
560.88        23.85052
561.32        23.97522
561.75        24.10624
562.19        24.23387
562.63        24.33961
563.06        24.41185
563.50        24.45853
563.93        24.46919
564.37        24.49161
564.80        24.54253
565.24        24.55513
565.68        24.48262
566.11        24.78296
566.55         24.5693
566.98        24.58683
567.42        24.62535
567.85        24.74031
568.29        24.94152
568.72        25.22243
569.16        25.56554
569.60        25.79099
570.03        25.97518
570.47        26.13145
570.90        26.30698
571.34        26.26344
571.77        26.50878
572.21        26.63547
572.64         26.7684
573.08         26.9055
573.51        27.05497
573.95        27.13214
574.38        27.22175
574.82        27.27736
575.25        27.32495
575.69        27.33669
576.12        27.32865
576.56        27.17126
576.99        27.41829
577.42        27.21287
577.86        27.43524
578.29        27.81278
578.73        27.76407
579.16        27.67704
579.60        27.33433
580.03        27.30462
580.47         27.2474
580.90        27.33428
581.33        27.46914
581.77         27.2956
582.20         27.1032
582.64        27.20209
583.07        27.06829
583.51        26.99481
583.94        26.88014
584.37        26.76769
584.81        26.67628
585.24        26.54664
585.68         26.4394
586.11        26.15706
586.54        26.36394
586.98        25.93663
587.41        26.14158
587.85        26.03609
588.28         25.9007
588.71        26.17484
589.15        25.99654
589.58        25.79068
590.01        25.84511
590.45        25.79334
590.88        25.92833
591.31        25.84437
591.75        25.67873
592.18        25.60307
592.61        25.60025
593.05        26.05947
593.48        26.23153
593.91        25.98521
594.35        26.19372
594.78        26.12183
595.21        26.12424
595.65        26.26922
596.08        26.59208
596.51        26.73366
596.94        26.60975
597.38        26.66417
597.81        26.85675
598.24        27.32842
598.68        27.32108
599.11        27.74626
599.54        27.84824
599.97        28.20206
600.41        28.37606
600.84        28.50604
601.27        28.95196
601.70        29.13601
602.14        29.52756
602.57        29.80675
603.00        30.16408
603.43        30.08029
603.87        30.73038
604.30        31.04964
604.73        31.45029
605.16        31.40087
605.60        31.90442
606.03        32.10262
606.46        32.29218
606.89        32.48055
607.32        33.20892
607.76        33.35435
608.19        33.76219
608.62        34.06142
609.05        34.35005
609.48        34.66405
609.92        35.37609
610.35        35.44241
610.78        35.22755
611.21        35.47128
611.64        35.78527
612.07        36.24767
612.50        36.46641
612.94        36.75588
613.37         37.0383
613.80        37.08986
614.23        37.00389
614.66        37.22733
615.09        37.74865
615.52        38.06639
615.96        38.12422
616.39        38.58394
616.82         38.7258
617.25        38.96913
617.68        39.12914
618.11        39.29665
618.54        39.45637
618.97        39.69427
619.40        40.03464
619.84        39.82742
620.27         40.0314
620.70        40.08189
621.13        40.23859
621.56        40.07883
621.99        39.65896
622.42        39.89318
622.85        39.92835
623.28        40.09256
623.71        40.12301
624.14        40.16734
624.57        40.63635
625.00         40.3929
625.43        40.68242
625.86         40.6054
626.29        40.58227
626.72         40.0663
627.15        40.24918
627.58        40.10549
628.01        39.94071
628.44        39.75951
628.87        39.57234
629.30         39.3102
629.73        38.98346
630.16        38.94135
630.59        38.72189
631.02        38.62196
631.45        38.47616
631.88         38.2911
632.31        38.04827
632.74        37.73829
633.17        37.38069
633.60         36.9947
634.03        36.59323
634.46        36.20084
634.89        35.83228
635.32        35.36906
635.75        35.05649
636.18        34.66709
636.61         34.2924
637.04        33.97473
637.47        33.71461
637.89        33.48996
638.32        33.25404
638.75        32.97198
639.18        32.63757
639.61        32.27115
640.04        31.90857
640.47        31.61757
640.90        31.41102
641.33        31.27374
641.76        31.17412
642.18        31.06344
642.61        30.91902
643.04        30.75915
643.47         30.6131
643.90        30.52694
644.33        30.50922
644.76        30.54384
645.18        30.59723
645.61        30.60825
646.04        30.57081
646.47        30.51274
646.90        30.47659
647.33        30.52167
647.75         30.6534
648.18        30.88388
648.61        31.20507
649.04        31.48014
649.47        31.66511
649.89        32.28079
650.32        32.45398
650.75        32.77219
651.18        32.99824
651.61        33.29306
652.03        33.67842
652.46        34.04049
652.89         34.3883
653.32        34.83922
653.74        35.25031
654.17        35.55891
654.60        36.15356
655.03        36.33704
655.46        36.48871
655.88        37.04483
656.31        38.12705
656.74         38.8246
657.16        41.49927
657.59        44.12825
658.02        40.51014
658.45         40.3014
658.87        39.71816
659.30         39.9421
659.73        40.29285
660.15        40.99652
660.58        40.88254
661.01        41.02069
661.44        41.18184
661.86        41.20088
662.29        41.12544
662.72        41.71998
663.14        42.10714
663.57        42.32597
664.00        42.21353
664.42        42.40895
664.85        42.93775
665.27        43.43819
665.70        43.79829
666.13        44.05156
666.55        44.17677
666.98        44.11809
667.41        43.94489
667.83        44.06035
668.26        44.04495
668.69        44.24324
669.11        44.48861
669.54        44.72606
669.96        44.93623
670.39        45.13671
670.82        45.33894
671.24        45.53542
671.67        45.72184
672.09        45.88169
672.52        46.02549
672.94        46.14833
673.37        46.25757
673.80        46.35069
674.22        46.44446
674.65        46.53723
675.07        46.64326
675.50        46.75768
675.92        46.86842
676.35        46.94446
676.77        46.98562
677.20        47.00583
677.62        47.04231
678.05        47.14127
678.47        47.30501
678.90        47.56074
679.32        47.78215
679.75        47.97121
680.17          48.082
680.60        48.16086
681.02        48.22183
681.45        48.24439
681.87        48.27695
682.30        48.39074
682.72        48.58564
683.15        48.79104
683.57        48.97449
684.00         49.0537
684.42         49.0667
684.85        49.17456
685.27        49.37983
685.70        49.59253
686.12        49.76334
686.54        49.86984
686.97        49.90026
687.39        49.87401
687.82        49.82225
688.24        49.80985
688.66        49.85606
689.09         49.9429
689.51        50.07652
689.94         50.2405
690.36        50.42843
690.78        50.62526
691.21        50.81762
691.63          50.984
692.06        51.11692
692.48        51.21633
692.90        51.27166
693.33        51.28892
693.75        51.27249
694.17        51.19339
694.60        51.13412
695.02         51.2235
695.44        51.45526
695.87         51.8454
696.29        52.26717
696.71        52.23576
697.14        51.86293
697.56        51.85881
697.98        52.23149
698.41         52.4274
698.83        52.43486
699.25        52.62626
699.68        52.92971
700.10        53.08908
700.52        53.06075
700.94        52.93188
701.37        52.79684
701.79        52.81411
702.21        53.01455
702.64        53.32978
703.06        53.68114
703.48        53.93613
703.90        54.05563
704.33        54.06179
704.75        53.99511
705.17        53.97752
705.59         54.0094
706.01        53.92616
706.44        53.79825
706.86        53.87544
707.28        54.16211
707.70        54.57605
708.12        55.00873
708.55        55.23273
708.97        55.25068
709.39        55.28735
709.81         55.3732
710.23        55.39741
710.66        55.37362
711.08        55.40257
711.50        55.45687
711.92        55.45741
712.34        55.40412
712.76        55.34074
713.19        55.28328
713.61        55.28334
714.03        55.34291
714.45        55.44621
714.87        55.60152
715.29        55.82692
715.71        56.11116
716.13        56.43401
716.56        56.72458
716.98        56.94158
717.40        57.03047
717.82        57.00483
718.24         56.8972
718.66         56.7644
719.08        56.64646
719.50        56.55806
719.92        56.50489
720.34        56.49828
720.76        56.54166
721.19        56.57935
721.61        56.67867
722.03        56.98205
722.45        57.43932
722.87        57.83475
723.29        58.05169
723.71        58.06605
724.13        57.85994
724.55        57.41196
724.97        56.87455
725.39         56.5484
725.81          56.511
726.23         56.6591
726.65        56.92453
727.07        57.31805
727.49        57.58041
727.91        57.90673
728.33        58.19883
728.75        58.39791
729.17         58.4904
729.59        58.46843
730.01        58.36546
730.43        58.33966
730.85        58.43541
731.27        58.45531
731.69        58.32611
732.10        58.80027
732.52        58.47425
732.94        58.49051
733.36        58.47208
733.78        58.42456
734.20         58.3474
734.62         58.3618
735.04        58.72603
735.46        58.30164
735.88        58.80464
736.30        58.86454
736.72        59.00494
737.13        59.20555
737.55        59.39957
737.97        59.75851
738.39        60.11668
738.81        59.78545
739.23        58.98447
739.65         58.9808
740.06        59.68776
740.48        59.98791
740.90        59.82546
741.32        59.87185
741.74        60.13381
742.16        60.26231
742.57        60.24036
742.99         60.1589
743.41        60.04632
743.83        59.92797
744.25        59.82457
744.67        59.71446
745.08        59.65284
745.50        59.71259
745.92        59.90216
746.34        60.18708
746.75        60.47295
747.17        60.59356
747.59        60.52435
748.01        60.32491
748.42        60.07918
748.84        59.94473
749.26        59.97704
749.68        60.05475
750.09        60.15358
750.51        60.44045
750.93        60.77376
751.35        60.67983
751.76        60.23074
752.18          59.988
752.60         59.9743
753.01        59.91171
753.43        59.82528
753.85        59.77911
754.27        59.75328
754.68        60.29748
755.10         60.4596
755.52        60.49563
755.93        60.21503
756.35        60.17529
756.77        60.45539
757.18        60.60977
757.60        60.64861
758.02        61.10405
758.43        61.80549
758.85        61.25947
759.26        61.35301
759.68        60.51279
760.10        60.28489
760.51        60.69261
760.93        61.68058
761.34        61.71175
761.76        61.54433
762.18        61.51049
762.59        61.93144
763.01        61.83988
763.42        61.84534
763.84        61.83548
764.26        61.95082
764.67        61.76698
765.09        61.43198
765.50        61.36634
765.92        61.59185
766.33        61.79313
766.75        61.84258
767.16        61.87607
767.58        61.81082
768.00         61.5155
768.41        61.19765
768.83        61.26386
769.24        61.59121
769.66        62.27974
770.07        62.21204
770.49        61.98583
770.90        61.51218
771.32        61.92855
771.73        62.72381
772.15        63.01232
772.56        62.64015
772.97        62.27176
773.39        62.07266
773.80        62.01356
774.22        62.12498
774.63        62.45852
775.05          62.836
775.46        63.02687
775.88        62.94178
776.29        62.66839
776.70        62.34352
777.12        62.21642
777.53        62.35592
777.95        62.64368
778.36        62.97665
778.77        63.15053
779.19        63.12897
779.60        63.00541
780.02        62.82098
780.43        62.72125
780.84        62.77056
781.26        62.62641
781.67        62.41955
782.09         63.0272
782.50        64.12504
782.91        64.11188
783.33        63.12065
783.74        62.75451
784.15        63.09039
784.57        63.30647
784.98        63.32626
785.39        63.17965
785.81        62.98105
786.22         63.2597
786.63        63.89386
787.04        64.16757
787.46        64.03571
787.87         63.8378
788.28         63.7226
788.70        63.76463
789.11        63.87931
789.52        64.26672
789.93        64.70758
790.35        64.60828
790.76         64.0367
791.17         63.6835
791.58        63.67727
792.00        63.57251
792.41        63.40084
792.82        63.73767
793.23        64.39137
793.65        64.20203
794.06        63.41611
794.47        63.63573
794.88        64.70007
795.29        65.11422
795.71        64.79063
796.12         64.6513
796.53        64.93592
796.94         64.6433
797.35        64.03606
797.76        64.28462
798.18        65.21803
798.59         65.5939
799.00        65.28568
799.41        64.97038
799.82        64.78719
800.23        64.66853
800.64        64.65942
801.06         64.7393
801.47        64.86909
801.88         64.9027
802.29        64.79787
802.70         64.5872
803.11         64.3349
803.52        64.14956
803.93        64.09149
804.34        64.14714
804.75        64.27124
805.17        64.49184
805.58        64.84136
805.99        64.93407
806.40        64.87209
806.81        65.68482
807.22        66.97025
807.63        66.72448
808.04        65.18834
808.45        64.48759
808.86        64.79156
809.27        64.95215
809.68        64.82274
810.09        64.71752
810.50        64.61161
810.91        64.42556
811.32        64.30068
811.73        64.45502
812.14        64.91535
812.55        65.62313
812.96        66.34487
813.37        66.63486
813.78        66.37854
814.19        65.74232
814.60        64.99134
815.01        64.48904
815.42        64.32478
815.83        64.39306
816.24        64.62002
816.65        64.85551
817.05        65.03008
817.46        65.17451
817.87        65.28226
818.28         65.2875
818.69        65.19283
819.10        64.98975
819.51        64.78673
819.92        64.79853
820.33        65.06564
820.74         65.5138
821.14        65.99498
821.55        66.26037
821.96        66.24909
822.37        66.04568
822.78        65.73307
823.19        65.45609
823.60        65.27987
824.00        65.18035
824.41        65.14635
824.82        65.26019
825.23        65.50928
825.64        65.87853
826.04        66.25603
826.45        66.41364
826.86        66.31625
827.27        66.02757
827.68        65.65643
828.08        65.42501
828.49        65.35593
828.90        65.40279
829.31        65.54469
829.72        65.74681
830.12        65.99474
830.53        66.24384
830.94        66.41451
831.35        66.32083
831.75        65.95672
832.16        65.37705
832.57        64.75227
832.97        64.33385
833.38        64.20358
833.79        64.27869
834.20        64.53903
834.60        64.94312
835.01        65.44221
835.42        66.06847
835.82        66.68232
836.23        66.96551
836.64        66.87497
837.04        66.45705
837.45        65.97189
837.86        65.91747
838.26        66.42376
838.67         67.3149
839.08        68.25007
839.48        68.57004
839.89        68.09846
840.29        67.08246
840.70        66.00904
841.11        65.40366
841.51          65.411
841.92         65.8428
842.33        66.51508
842.73         67.1104
843.14        67.39407
843.54        67.50252
843.95        67.49986
844.35        67.54016
844.76         67.6479
845.17        67.76723
845.57         67.8227
845.98        67.67741
846.38        67.34228
846.79        66.87566
847.19        66.43384
847.60        66.23575
848.00        66.33693
848.41        66.63676
848.81        67.02372
849.22         67.2278
849.62        67.20982
850.03        67.03972
850.43        66.79242
850.84        66.52477
851.24        66.32453
851.65        66.11158
852.05        66.04738
852.46        66.30403
852.86        66.87623
853.27        67.67114
853.67        68.38988
854.07        68.73447
854.48         68.6287
854.88        68.18694
855.29        67.51951
855.69        66.97386
856.10        66.61852
856.50        66.44735
856.90        66.38938
857.31        66.33469
857.71        66.29422
858.12        66.25581
858.52        66.26688
858.92        66.27953
859.33        66.26348
859.73        66.25106
860.13        66.19001
860.54        66.03078
860.94        65.81772
861.34         65.5645
861.75         65.3399
862.15        65.29673
862.55        65.44406
862.96        65.69436
863.36        66.02766
863.76        66.32473
864.17        66.51279
864.57        66.64256
864.97        66.61084
865.38        66.27129
865.78        65.65583
866.18        64.81532
866.58        63.97757
866.99        63.55107
867.39        63.67151
867.79        64.21529
868.19          64.967
868.60        65.56314
869.00         65.9207
869.40        66.10685
869.80        66.17213
870.21        66.21867
870.61        66.33778
871.01        66.42244
871.41        66.42159
871.81        66.28137
872.22        65.99666
872.62         65.6081
873.02        65.21574
873.42        64.96824
873.82        64.91056
874.22        65.00117
874.63         65.1413
875.03        65.18996
875.43        65.09124
875.83        64.88741
876.23        64.64942
876.63         64.4884
877.03        64.43922
877.44        64.44462
877.84        64.47128
878.24         64.4883
878.64        64.43683
879.04        64.18549
879.44        63.88001
879.84        63.85289
880.24        64.11999
880.64         64.5449
881.04        64.87303
881.44        64.72176
881.84        64.02813
882.24        62.93935
882.65        61.81323
883.05        61.19723
883.45        61.22907
883.85         61.7618
884.25        62.51638
884.65        63.00266
885.05        63.07309
885.45        62.88278
885.85        62.62215
886.25        62.58411
886.65        62.84209
887.05        63.26672
887.45        63.74815
887.85        64.12565
888.25        64.32128
888.65        64.37859
889.04        64.30862
889.44        64.14831
889.84        63.91618
890.24        63.62379
890.64        63.28728
891.04         62.9465
891.44        62.63561
891.84        62.36306
892.24        62.20221
892.64        62.24159
893.04        62.48787
893.44        62.93111
893.83        63.43848
894.23        63.73491
894.63        63.77237
895.03        63.58174
895.43        63.36978
895.83        63.49825
896.23         64.0148
896.63        64.77303
897.02        65.45318
897.42         65.5706
897.82        65.03852
898.22         64.0876
898.62        62.99884
899.01        62.17433
899.41         61.7596
899.81        61.61442
900.21        61.72475
900.61        62.06758
901.00        62.56745
901.40        63.20942
901.80        63.79174
902.20        63.97501
902.59        63.71343
902.99        63.11173
903.39         62.3755
903.79        61.86381
904.18        61.68978
904.58        61.74645
904.98        62.03565
905.38        62.56009
905.77        63.26583
906.17        64.16698
906.57        64.98984
906.96        65.27385
907.36        64.91218
907.76        64.02676
908.15        63.04191
908.55        62.63406
908.95        62.96595
909.34        63.85934
909.74        64.86094
910.14        65.28527
910.53        64.93369
910.93        64.07852
911.33        63.04118
911.72        62.29515
912.12        62.04531
912.52        62.12543
912.91         62.4175
913.31        62.77755
913.70         63.1333
914.10        63.49282
914.49        63.90278
914.89        64.34078
915.29        64.79876
915.68        65.26176
916.08        65.53124
916.47        65.37585
916.87        64.80588
917.26         63.9064
917.66        63.06494
918.05         62.7201
918.45        62.95665
918.84        63.68651
919.24        64.55204
919.64        65.04033
920.03         65.0007
920.42         64.5484
920.82        63.99783
921.21        63.78651
921.61        64.01305
922.00         64.5807
922.40        65.21259
922.79        65.56766
923.19        65.50552
923.58        65.16244
923.98        64.77296
924.37        64.61402
924.77        64.76729
925.16        65.10802
925.55        65.47601
925.95        65.58688
926.34        65.37926
926.74        64.93092
927.13        64.38203
927.52        63.88153
927.92        63.53714
928.31          63.303
928.70        63.16665
929.10        63.07824
929.49         63.0026
929.89        62.89852
930.28        62.90532
930.67        63.14727
931.07        63.60251
931.46        64.29373
931.85          64.867
932.24        64.80539
932.64        64.07736
933.03        62.82771
933.42        61.63205
933.82        61.32446
934.21        62.06289
934.60         63.6486
934.99        65.48255
935.39        66.47576
935.78        66.34118
936.17        65.29537
936.56        63.94344
936.96        63.24474
937.35        63.44272
937.74        64.24951
938.13        65.12534
938.53        65.24249
938.92        64.43943
939.31        63.06236
939.70        61.64631
940.09        60.93222
940.49        61.05825
940.88        61.80616
941.27        62.83552
941.66        63.53043
942.05        63.67646
942.44        63.48647
942.84        63.15762
943.23        62.98178
943.62        63.06544
944.01        63.25994
944.40        63.55968
944.79        63.99389
945.18        64.51043
945.57        65.09437
945.97        65.51653
946.36        65.48051
946.75        64.89923
947.14        63.92742
947.53        62.82688
947.92        61.96453
948.31        61.45537
948.70        61.22823
949.09        61.24413
949.48        61.41917
949.87        61.70218
950.26        62.10875
950.65        62.59621
951.04        63.08781
951.43        63.52943
951.82        63.88274
952.21        64.10526
952.60        64.16006
952.99        64.07113
953.38        63.89594
953.77        63.68861
954.16        63.53743
954.55        63.46301
954.94        63.39573
955.33        63.42628
955.72        63.69799
956.11         64.1951
956.50         64.8942
956.89         65.3931
957.28        65.02773
957.66        63.71492
958.05        61.75168
958.44        59.80038
958.83        58.79915
959.22        58.92271
959.61        59.91783
960.00        61.26689
960.39        61.98811
960.78        61.76569
961.16        60.90525
961.55        59.89372
961.94        59.36774
962.33        59.50437
962.72        60.11701
963.11        60.96354
963.49        61.62598
963.88         61.8453
964.27        61.73104
964.66        61.55012
965.04        61.72478
965.43        62.28071
965.82        63.13263
966.21        63.81517
966.60        63.49329
966.98         62.0204
967.37        59.84723
967.76        57.75454
968.15        56.67873
968.53        56.78771
968.92        57.85861
969.31         59.3993
969.69        60.39927
970.08        60.41638
970.47         59.7386
970.86         58.9766
971.24        59.03096
971.63         60.0816
972.02        61.85106
972.40        63.73915
972.79        64.33704
973.17        63.33551
973.56        61.30782
973.95        59.11111
974.33        57.81598
974.72        57.65351
975.11        58.25774
975.49        59.36529
975.88        60.39335
976.26        61.08417
976.65        61.56476
977.04        61.73686
977.42        61.40851
977.81        60.58661
978.19        59.30228
978.58        58.02648
978.96         57.5185
979.35        57.93249
979.74        59.09496
980.12        60.63731
980.51        61.61167
980.89         61.8399
981.28         61.5831
981.66        61.12777
982.05        60.87294
982.43        60.95458
982.82        61.15195
983.20        61.64856
983.59        62.69805
983.97        64.33827
984.35          66.499
984.74        68.40117
985.12        68.95662
985.51        67.89092
985.89        65.57889
986.28        63.06585
986.66        61.86069
987.04        62.37444
987.43        64.17763
987.81         66.5113
988.20        67.76105
988.58         67.3749
988.96        65.76413
989.35        63.64878
989.73        62.03336
990.12        61.17154
990.50        60.82671
990.88        60.55061
991.27        59.64213
991.65        58.04155
992.03        56.13773
992.42         54.6473
992.80        54.48526
993.18        55.79888
993.56        58.28192
993.95        61.17319
994.33        63.13189
994.71        63.51563
995.10        62.78925
995.48        61.51207
995.86        60.64288
996.24        60.46076
996.63        60.50074
997.01        60.89011
997.39        61.57397
997.77        62.38166
998.15        63.44088
998.54        64.16691
998.92        63.51246
999.30        61.54721
999.68        58.71857
1000.06        56.09752
1000.45        55.19788
1000.83        56.43691
1001.21        59.46106
1001.59        63.59999
1001.97        67.02257
1002.35        68.75484
1002.73        69.19296
1003.12        68.86034
1003.50        68.40105
1003.88         68.1652
1004.26        67.75491
1004.64        67.32646
1005.02         67.2908
1005.40        67.71536
1005.78        68.69938
1006.16        69.52427
1006.54        68.94493
1006.92        66.88924
1007.30        63.85904
1007.69        61.01946
1008.07        59.83424
1008.45        60.75595
1008.83        63.39775
1009.21        66.93739
1009.59        69.30347
1009.97        69.42262
1010.35         67.8685
1010.73        65.36041
1011.11        62.95743
1011.49        61.12934
1011.86        59.65513
1012.24        58.64738
1012.62        58.24397
1013.00        58.40185
1013.38        59.11982
1013.76          60.311
1014.14        61.54421
1014.52         62.4857
1014.90        63.12652
1015.28        63.26133
1015.66        62.72609
1016.04        61.57816
1016.41        59.83444
1016.79         58.0146
1017.17        57.16615
1017.55        57.55363
1017.93        58.88999
1018.31        60.44671
1018.69        61.15033
1019.06        60.75434
1019.44         59.4586
1019.82        57.71919
1020.20        56.71283
1020.58        56.86299
1020.95        57.60058
1021.33        58.44072
1021.71        58.68726
1022.09        58.24429
1022.46        57.55308
1022.84        56.45909
1023.22        54.83771
1023.60        53.03143
1023.97        51.00721
1024.35        50.06544
1024.73        51.69453
