SpectraSmart Spectrum 2.9.0.0
--------- Device Information -----------
Spectrum Name :  反射率_0
Saving Time :  2024/04/26 21:31:17
Spectro-Module Model Name : SE2030-DUVN
Spectro-Module Serial Number : OS361AC55029948
Wavelength Start : 200
Wavelength End : 1025
Wavelength Unit : Wavelength(nm)
Spectrum Unit : Reflectance(%)
-----------Spectrum Setting ------------
Integration Time : 20ms
Average : 10
Boxcar : 0
Background removal :  enabled
linearity correction :  enabled
SC :  disabled
Intensity correction :  disabled
DWT denoise :  enabled
savitzky-golay :  disabled
FFT :  disabled
Running average :  disabled
Kalman :  disabled
High pass :  disabled
---------------BEGIN--------------------
Wavelength(nm)             Reflectance(%)
200.29               0
200.75        49.94213
201.21        42.70607
201.67        36.58803
202.13        33.85331
202.58        34.36596
203.04        37.78562
203.50        43.87392
203.96        50.33429
204.42        54.95105
204.88        57.82331
205.34        57.99761
205.80        55.08338
206.26        50.12895
206.72        43.89768
207.18         38.6814
207.64         36.1857
208.10        36.22197
208.55        38.88403
209.01        43.62778
209.47        46.79249
209.93         46.0995
210.39          43.849
210.85        42.10279
211.31        42.13314
211.77        44.32188
212.23         49.7523
212.69        64.85252
213.14        97.89677
213.60        108.2295
214.06        94.74935
214.52        81.45522
214.98        72.12007
215.44        64.14745
215.90        55.40014
216.36        47.42766
216.81        43.30022
217.27        44.53054
217.73        52.01356
218.19        65.43303
218.65        75.25616
219.11          74.981
219.57        69.17486
220.02        65.03467
220.48        67.82821
220.94        77.72382
221.40        95.68362
221.86        120.2403
222.32        133.0431
222.77        120.5686
223.23        96.64079
223.69        75.06329
224.15        62.77464
224.61        57.73869
225.06        56.09388
225.52        56.17917
225.98        56.19347
226.44        55.74118
226.90        55.47271
227.36        55.17181
227.81        54.38981
228.27        53.33237
228.73        51.94105
229.19        50.98198
229.65        51.45103
230.10        53.26504
230.56        56.08149
231.02        58.79755
231.48        59.63091
231.93        58.31273
232.39        55.90233
232.85          53.455
233.31        52.39042
233.77        52.85485
234.22        54.30093
234.68        56.17509
235.14        57.73845
235.60        58.70949
236.05        59.43752
236.51        59.69872
236.97        59.11847
237.43        57.68915
237.88        55.45842
238.34         53.2247
238.80        52.60886
239.26        54.19653
239.71        58.46481
240.17        64.50653
240.63        69.39576
241.08        71.15601
241.54        69.21644
242.00        65.88668
242.46        66.47365
242.91        74.48545
243.37        91.50862
243.83        118.2457
244.28        142.1315
244.74         144.354
245.20        124.7814
245.66        99.50637
246.11        83.16637
246.57        76.61398
247.03        75.35394
247.48        75.34356
247.94        71.06452
248.40        63.64489
248.85        56.56871
249.31        51.76032
249.77        49.55758
250.22        49.25256
250.68        50.21375
251.14        51.81942
251.59        52.38167
252.05        51.38543
252.51        50.00478
252.96        48.41781
253.42        46.96562
253.88        45.78739
254.33        44.56795
254.79          44.674
255.25        47.06431
255.70        51.42209
256.16        57.27297
256.62         62.3481
257.07        63.12835
257.53        60.56346
257.99         56.7622
258.44        53.52844
258.90        52.69093
259.35        53.43488
259.81        55.19188
260.27        56.83113
260.72        57.03055
261.18        55.99332
261.63        54.12244
262.09        52.47876
262.55        51.70821
263.00         51.6832
263.46        52.18909
263.91        52.49302
264.37        51.96358
264.83        50.58192
265.28        48.68114
265.74        46.99062
266.19        46.12247
266.65        46.19177
267.11        46.83985
267.56        47.62201
268.02        47.83685
268.47        47.30185
268.93        46.29647
269.38        45.06398
269.84        44.03104
270.30        43.30963
270.75        42.73686
271.21        42.30906
271.66        41.97443
272.12        41.69314
272.57        41.47165
273.03        41.18682
273.48        40.61102
273.94        39.77174
274.39        38.71164
274.85        37.66958
275.31        36.84059
275.76        36.24317
276.22        35.85166
276.67        35.53159
277.13        35.18391
277.58        34.72516
278.04        34.21872
278.49        33.66356
278.95        33.17748
279.40        32.72478
279.86        32.33992
280.31        31.90633
280.77        31.37238
281.22        30.70794
281.68        30.01916
282.13        29.38059
282.59        28.98081
283.04        28.79758
283.50        28.77134
283.95        28.78981
284.41        28.69379
284.86        28.43364
285.32         28.0934
285.77        27.69116
286.22        27.30793
286.68        26.97499
287.13        26.64286
287.59        26.35973
288.04        26.15868
288.50        26.05915
288.95        26.01855
289.41        25.99687
289.86        25.86624
290.32         25.6395
290.77        25.34324
291.22        25.04579
291.68        24.83695
292.13        24.73204
292.59        24.71623
293.04        24.77981
293.50        24.92927
293.95        25.14403
294.40         25.4254
294.86        25.73534
295.31        26.00287
295.77        26.22129
296.22        26.40173
296.68        26.58749
297.13        26.83549
297.58        27.16708
298.04        27.56444
298.49        28.00352
298.95        28.46244
299.40        28.91539
299.85        29.36091
300.31         29.7876
300.76        30.17065
301.21        30.50402
301.67        30.80171
302.12        31.03986
302.58        31.24097
303.03        31.39114
303.48        31.50985
303.94         31.6285
304.39        31.76174
304.84        31.92232
305.30        32.11223
305.75         32.2874
306.20        32.43011
306.66        32.53939
307.11        32.60714
307.57        32.64883
308.02        32.64618
308.47        32.60995
308.93        32.54875
309.38        32.46692
309.83        32.41579
310.29        32.40224
310.74        32.40966
311.19        32.40037
311.65         32.3072
312.10        32.11617
312.55        31.85225
313.00        31.57468
313.46        31.36958
313.91        31.24236
314.36        31.17353
314.82        31.11103
315.27         30.9793
315.72        30.76066
316.18        30.49585
316.63        30.21865
317.08        29.99403
317.53        29.83645
317.99        29.71223
318.44        29.61509
318.89         29.5265
319.35        29.43155
319.80        29.33487
320.25        29.20403
320.70        28.98651
321.16        28.67859
321.61        28.31101
322.06        27.93549
322.51        27.64288
322.97         27.4561
323.42        27.35125
323.87        27.30645
324.32        27.28806
324.78        27.26249
325.23        27.24897
325.68        27.18765
326.13        26.99018
326.59        26.64687
327.04        26.19524
327.49        25.72416
327.94        25.37814
328.39        25.18902
328.85        25.11105
329.30        25.10229
329.75        25.03145
330.20        24.86136
330.66         24.6309
331.11        24.39209
331.56        24.20699
332.01        24.09387
332.46        24.01751
332.92        23.95389
333.37        23.90866
333.82        23.85911
334.27        23.81754
334.72        23.75799
335.17        23.63119
335.63         23.4363
336.08        23.20819
336.53        23.00413
336.98         22.9291
337.43        23.00559
337.88        23.18869
338.34        23.43052
338.79        23.67126
339.24        23.85814
339.69        23.99925
340.14        24.03933
340.59        23.89813
341.05        23.58964
341.50        23.15109
341.95        22.69647
342.40        22.40063
342.85        22.30752
343.30        22.36917
343.75        22.52504
344.20        22.66681
344.66        22.75331
345.11        22.81218
345.56        22.83054
346.01        22.79003
346.46        22.70106
346.91        22.56727
347.36        22.43684
347.81        22.39471
348.26        22.45497
348.72        22.58905
349.17        22.75229
349.62        22.88203
350.07        22.95204
350.52        22.97955
350.97        22.94938
351.42        22.84099
351.87        22.66401
352.32        22.43041
352.77        22.19625
353.22        22.04266
353.67          21.987
354.13        22.01549
354.58        22.07826
355.03        22.09178
355.48         22.0317
355.93        21.91728
356.38        21.79677
356.83        21.74454
357.28        21.76987
357.73        21.84163
358.18        21.89516
358.63        21.83105
359.08        21.63017
359.53         21.3308
359.98        21.00455
360.43         20.7535
360.88        20.60289
361.33        20.52682
361.78        20.47625
362.23        20.37234
362.68        20.19884
363.13        19.98459
363.58        19.77688
364.03        19.64627
364.48        19.60286
364.93        19.61379
365.38        19.63239
365.83        19.58653
366.28        19.45807
366.73        19.27648
367.18        19.06629
367.63        18.86506
368.08          18.689
368.53        18.52446
368.98         18.3865
369.43        18.29949
369.88         18.2613
370.33         18.2674
370.78        18.27518
371.23        18.20986
371.68        18.05928
372.13         17.8507
372.58        17.63582
373.03        17.49955
373.48        17.46234
373.93        17.48997
374.38        17.55584
374.83        17.61802
375.28        17.65088
375.72        17.65645
376.17        17.62224
376.62        17.50641
377.07        17.31327
377.52        17.06309
377.97        16.80053
378.42        16.60402
378.87        16.49765
379.32        16.45688
379.77        16.46718
380.22         16.5031
380.67        16.54527
381.11        16.60131
381.56        16.62314
382.01        16.54774
382.46        16.37205
382.91        16.12656
383.36        15.87161
383.81        15.69083
384.26        15.60046
384.71        15.57574
385.15        15.59427
385.60        15.61927
386.05        15.63143
386.50        15.64129
386.95        15.63584
387.40        15.59568
387.85        15.52155
388.29        15.40763
388.74        15.29596
389.19        15.21299
389.64        15.16043
390.09        15.12358
390.54        15.08338
390.98        15.00468
391.43        14.89276
391.88        14.76584
392.33        14.63269
392.78        14.50288
393.23        14.38325
393.67        14.26363
394.12        14.17696
394.57        14.14242
395.02        14.15983
395.47        14.21951
395.91        14.28821
396.36        14.29966
396.81        14.24766
397.26        14.15093
397.71        14.04818
398.15        14.00672
398.60        14.05195
399.05        14.09981
399.50        14.12873
399.95        14.21376
400.39        14.30056
400.84        14.15296
401.29         13.8311
401.74        13.65368
402.18        13.65638
402.63        13.66899
403.08         13.6762
403.53        13.71568
403.97        13.77353
404.42        13.84446
404.87        13.88797
405.32        13.83553
405.76        13.68151
406.21        13.45734
406.66        13.23717
407.11        13.13999
407.55        13.19317
408.00        13.35413
408.45        13.55647
408.90        13.66899
409.34        13.64772
409.79        13.53768
410.24        13.38463
410.68        13.24858
411.13        13.15454
411.58        13.08026
412.03        13.02826
412.47        13.00991
412.92        13.01854
413.37        13.05624
413.81        13.10209
414.26        13.13352
414.71        13.13875
415.15        13.12344
415.60        13.08616
416.05        13.03953
416.49        12.99263
416.94        12.94481
417.39        12.90039
417.83        12.86444
418.28         12.8369
418.73        12.81381
419.17        12.80344
419.62        12.81752
420.07        12.85254
420.51        12.89891
420.96        12.92892
421.41        12.89736
421.85        12.79853
422.30        12.65261
422.74        12.49268
423.19        12.42424
423.64        12.43913
424.08         12.4401
424.53        12.42308
424.98         12.4787
425.42        12.60676
425.87        12.72104
426.31        12.78143
426.76        12.82087
427.21        12.79175
427.65        12.53578
428.10        12.16637
428.54        11.98511
428.99        12.03349
429.44        12.22187
429.88        12.44848
430.33        12.50493
430.77        12.39994
431.22        12.39708
431.66        12.51449
432.11        12.56182
432.56        12.54794
433.00        12.62907
433.45        12.73057
433.89        12.63294
434.34        12.42087
434.78        12.05468
435.23        12.24514
435.67        12.23582
436.12        12.20597
436.57        12.17812
437.01        12.15233
437.46        12.13463
437.90        12.11532
438.35        12.05924
438.79        11.98086
439.24        11.94153
439.68        11.94709
440.13        11.97706
440.57        12.01056
441.02        12.02651
441.46        12.01713
441.91        11.96181
442.35        11.88001
442.80         11.9139
443.24        12.01601
443.69        11.97441
444.13        11.81596
444.58        11.77321
445.02        11.85228
445.47        11.92998
445.91        11.97468
446.36        11.99503
446.80        11.98042
447.24        11.93227
447.69        11.87134
448.13        11.82553
448.58        11.80591
449.02        11.80113
449.47        11.80755
449.91        11.81294
450.36        11.81569
450.80        11.82036
451.25        11.82192
451.69        11.80503
452.13        11.76959
452.58        11.71484
453.02        11.66018
453.47        11.63997
453.91        11.65935
454.36          11.711
454.80        11.75881
455.24        11.74265
455.69        11.65824
456.13        11.52078
456.58        11.38963
457.02        11.33374
457.46        11.37114
457.91        11.47425
458.35        11.58968
458.79        11.63473
459.24        11.60013
459.68        11.50617
460.13        11.40539
460.57        11.34393
461.01        11.34466
461.46        11.38015
461.90        11.43718
462.34        11.48418
462.79        11.50501
463.23        11.51341
463.68        11.50461
464.12        11.47718
464.56        11.43224
465.01        11.38546
465.45        11.32858
465.89         11.2831
466.34        11.25214
466.78        11.22835
467.22        11.21965
467.67        11.22813
468.11        11.25861
468.55        11.30483
468.99        11.35124
469.44        11.37113
469.88        11.35971
470.32        11.32386
470.77        11.28278
471.21        11.27131
471.65        11.29543
472.10        11.34467
472.54        11.39932
472.98        11.43355
473.42        11.43983
473.87        11.43145
474.31        11.40836
474.75        11.38153
475.20        11.35905
475.64        11.33368
476.08         11.3154
476.52        11.31361
476.97        11.32957
477.41        11.36695
477.85        11.41746
478.29        11.44916
478.74        11.46532
479.18        11.49876
479.62        11.54596
480.06        11.58276
480.50        11.61022
480.95         11.6282
481.39        11.62564
481.83        11.69777
482.27        11.67221
482.72        11.69514
483.16        11.72881
483.60        11.75352
484.04        11.75885
484.48        11.86363
484.93        12.07238
485.37         12.0114
485.81        12.10136
486.25        12.45177
486.69         12.1749
487.14        12.52284
487.58        13.00833
488.02        12.66456
488.46         12.3607
488.90        12.38811
489.34         12.3147
489.79        12.43723
490.23         12.4838
490.67        12.66044
491.11         12.8837
491.55        12.90307
491.99        12.76787
492.43        12.75952
492.88        12.90284
493.32        13.03528
493.76        13.13078
494.20        13.23161
494.64         13.3353
495.08        13.40494
495.52        13.45308
495.96        13.58686
496.41        13.78013
496.85        13.81978
497.29        13.72703
497.73        13.85709
498.17        14.00693
498.61          14.092
499.05        14.05436
499.49        14.06543
499.93        14.10746
500.37        14.24163
500.82        14.43011
501.26        14.57137
501.70        14.64822
502.14        14.72163
502.58        14.80134
503.02        14.87261
503.46        14.93838
503.90        15.00157
504.34        15.05827
504.78        15.10313
505.22        15.13588
505.66        15.15938
506.10        15.18123
506.54        15.21236
506.98        15.25644
507.42        15.31243
507.86        15.37344
508.30        15.42777
508.74        15.47161
509.18         15.5052
509.62        15.53808
510.06        15.58662
510.50        15.65202
510.94        15.72809
511.38        15.79572
511.82        15.82422
512.26        15.80986
512.70        15.76627
513.14        15.71787
513.58        15.70378
514.02        15.73474
514.46        15.79738
514.90        15.87874
515.34        15.95748
515.78        16.02283
516.22        16.07914
516.66        16.11901
517.10         16.1311
517.54        16.11549
517.98        16.07489
518.42        16.02357
518.86        15.98648
519.30        15.97023
519.74        15.96861
520.18        15.97336
520.62         15.9693
521.06        15.95199
521.50        15.92799
521.93        15.89877
522.37        15.86038
522.81        15.81701
523.25        15.76772
523.69        15.72174
524.13        15.69378
524.57        15.68482
525.01        15.68999
525.45        15.69444
525.89        15.67386
526.32        15.62164
526.76        15.54916
527.20        15.46996
527.64        15.40709
528.08        15.36634
528.52        15.33996
528.96        15.31998
529.40        15.29368
529.83        15.25717
530.27        15.21681
530.71        15.17304
531.15        15.12752
531.59        15.08248
532.03        15.03585
532.46        14.99148
532.90        14.96668
533.34        14.96027
533.78        14.96016
534.22        14.95512
534.66        14.94565
535.09        14.91887
535.53        14.84704
535.97        14.75149
536.41        14.70442
536.85        14.71542
537.28        14.75029
537.72        14.80073
538.16        14.86351
538.60        14.93003
539.04        14.99955
539.47        15.05971
539.91         15.1015
540.35         15.1219
540.79        15.12608
541.22        15.12649
541.66         15.1496
542.10         15.2004
542.54        15.27285
542.97         15.3586
543.41        15.44955
543.85        15.53941
544.29        15.63215
544.72        15.72307
545.16        15.81614
545.60        15.90965
546.04        16.00509
546.47        16.10768
546.91        16.22354
547.35        16.35033
547.79        16.48366
548.22        16.61719
548.66        16.73793
549.10        16.86294
549.53        16.98896
549.97        17.11229
550.41        17.18725
550.84        17.23235
551.28        17.29957
551.72        17.39069
552.15         17.5219
552.59        17.71655
553.03        17.70858
553.46        18.01143
553.90        18.13315
554.34        18.22275
554.77        18.28667
555.21        18.35178
555.65        18.44604
556.08         18.5658
556.52         18.6893
556.96        18.78902
557.39        18.87405
557.83        18.92477
558.27        18.85253
558.70        18.70301
559.14        18.65181
559.57        18.70948
560.01        18.78785
560.45        18.87004
560.88        18.97397
561.32        19.09964
561.75        19.22477
562.19        19.34495
562.63        19.44501
563.06        19.51847
563.50        19.57064
563.93        19.59585
564.37         19.6384
564.80        19.71211
565.24        19.76008
565.68        19.74308
566.11        20.02792
566.55        19.89669
566.98         19.9537
567.42        20.02244
567.85        20.13716
568.29        20.30787
568.72        20.53248
569.16        20.80452
569.60        21.01907
570.03        21.24017
570.47        21.41729
570.90        21.56661
571.34        21.70187
571.77        21.77777
572.21        21.96898
572.64        22.04358
573.08        22.10981
573.51        22.17673
573.95         22.2497
574.38        22.32596
574.82        22.82313
575.25        22.54396
575.69        22.66973
576.12        22.80306
576.56        22.86295
576.99        22.94478
577.42        22.66456
577.86        22.87037
578.29        23.29046
578.73         23.1586
579.16        23.07986
579.60        22.75425
580.03        22.72059
580.47        22.70942
580.90        22.62221
581.33        22.59522
581.77        22.68984
582.20        22.31208
582.64        22.53922
583.07        22.52488
583.51        22.44106
583.94        22.14293
584.37        21.95279
584.81        21.85771
585.24        21.75061
585.68        21.63682
586.11        21.61206
586.54        21.73371
586.98        21.53969
587.41          21.121
587.85        21.07094
588.28        21.04526
588.71        21.26445
589.15        20.89603
589.58        20.91171
590.01        21.00515
590.45        20.84912
590.88        21.07785
591.31        20.94869
591.75        20.77122
592.18        20.65649
592.61        20.59779
593.05        21.21259
593.48        21.18464
593.91        21.14385
594.35        21.30392
594.78        21.21106
595.21        21.10472
595.65         21.2507
596.08        21.67605
596.51        21.87522
596.94        21.76203
597.38        21.85876
597.81        22.16062
598.24        22.33607
598.68        22.41879
599.11        22.72358
599.54        23.11385
599.97        23.13053
600.41        23.67774
600.84        23.79435
601.27        24.11998
601.70        24.40631
602.14         24.7285
602.57        25.03304
603.00        25.38749
603.43        25.44756
603.87        26.17688
604.30        26.60712
604.73        27.03529
605.16        27.04822
605.60        27.26221
606.03         27.4498
606.46        27.80301
606.89        28.20826
607.32        28.91467
607.76        29.38158
608.19        29.67607
608.62        29.91188
609.05        30.18128
609.48          30.444
609.92        31.11462
610.35        31.27032
610.78        31.35549
611.21        31.66158
611.64        31.95893
612.07        32.36121
612.50        32.56499
612.94        32.89217
613.37         33.1703
613.80        33.29955
614.23        33.32477
614.66        33.59912
615.09         34.1107
615.52        34.48301
615.96         34.6643
616.39        34.94136
616.82        35.33377
617.25        35.30756
617.68        35.49823
618.11         35.7946
618.54        36.31343
618.97        36.67926
619.40        36.83116
619.84        36.97647
620.27        36.82966
620.70        36.95174
621.13        37.20302
621.56        37.15363
621.99        36.86131
622.42        36.89216
622.85        37.22801
623.28        37.40139
623.71        37.37601
624.14        37.66927
624.57        37.86876
625.00        37.84743
625.43        37.84765
625.86        37.71355
626.29        37.62184
626.72        37.18036
627.15        37.22229
627.58        37.07014
628.01        36.91489
628.44        36.74059
628.87        36.55824
629.30        36.17939
629.73        35.82673
630.16         35.7729
630.59        35.49178
631.02        35.31461
631.45        35.05273
631.88        34.78208
632.31        34.48835
632.74        34.12875
633.17        33.71398
633.60        33.27554
634.03        32.82572
634.46        32.35938
634.89        31.88325
635.32        31.41413
635.75        30.96151
636.18         30.4962
636.61        30.04219
637.04        29.64884
637.47        29.31683
637.89        29.02593
638.32        28.73775
638.75         28.4207
639.18        28.06816
639.61        27.69415
640.04        27.32727
640.47        27.00827
640.90        26.74864
641.33        26.54168
641.76        26.36999
642.18        26.20888
642.61         26.0454
643.04        25.88908
643.47        25.76709
643.90        25.72107
644.33        25.75483
644.76        25.85324
645.18        25.96696
645.61        26.01289
646.04        25.97803
646.47        25.88898
646.90          25.814
647.33        25.85873
647.75        26.04527
648.18        26.37144
648.61        26.78393
649.04        27.12396
649.47         27.3399
649.89        27.80396
650.32        27.84534
650.75        28.29212
651.18        28.88506
651.61        29.33337
652.03        29.62663
652.46        30.03196
652.89        30.61538
653.32        31.08043
653.74        31.39422
654.17        32.23768
654.60        32.74738
655.03        32.84506
655.46        32.62963
655.88        33.54947
656.31        35.13383
656.74        36.78191
657.16        39.57225
657.59          42.287
658.02        38.21638
658.45        37.32024
658.87        37.20538
659.30         37.6852
659.73        37.87141
660.15        38.75486
660.58        38.42717
661.01        38.67725
661.44        39.06219
661.86        39.25247
662.29        39.27305
662.72        39.98232
663.14        40.53037
663.57        40.81978
664.00        40.70948
664.42        40.93151
664.85        41.52043
665.27         42.0751
665.70        42.47683
666.13        42.75759
666.55        42.89862
666.98        42.86045
667.41        42.71586
667.83        42.86209
668.26        42.88892
668.69        43.11945
669.11         43.4183
669.54        43.74851
669.96        44.08786
670.39        44.52996
670.82        44.99478
671.24        45.15211
671.67        45.07901
672.09        45.17005
672.52        45.45687
672.94        45.76317
673.37        46.01406
673.80        46.03719
674.22        45.90482
674.65        45.95084
675.07        46.21282
675.50         46.4577
675.92        46.64426
676.35        46.81067
676.77        46.94023
677.20        47.02984
677.62        47.11454
678.05        47.20393
678.47        47.29841
678.90        47.59267
679.32        47.71137
679.75        47.88691
680.17        47.99778
680.60        48.09637
681.02        48.20966
681.45        48.29074
681.87         48.3904
682.30        48.70675
682.72        49.15743
683.15        49.29964
683.57        49.16655
684.00        49.17324
684.42         49.3667
684.85        49.52752
685.27        49.66107
685.70        49.91616
686.12        50.21791
686.54        50.40425
686.97        50.45144
687.39        50.36521
687.82        50.22673
688.24        50.29296
688.66        50.54717
689.09        50.69691
689.51        50.72513
689.94        50.81979
690.36        50.98292
690.78        51.03381
691.21        51.02488
691.63        51.19875
692.06        51.52276
692.48        51.73866
692.90        51.80438
693.33        51.84995
693.75        51.86637
694.17        51.75432
694.60        51.61886
695.02         51.6259
695.44        51.81167
695.87        52.28402
696.29        52.85682
696.71         52.9199
697.14        52.58892
697.56        52.51256
697.98         52.6695
698.41        53.31573
698.83        52.96317
699.25        53.19255
699.68        53.49442
700.10        53.64336
700.52        53.58804
700.94        53.43803
701.37        53.29846
701.79        53.30105
702.21        53.47591
702.64        53.75463
703.06        54.07465
703.48        54.32191
703.90        54.45859
704.33        54.52868
704.75        54.53596
705.17        54.47936
705.59        54.38124
706.01        54.24039
706.44        54.14429
706.86        54.23964
707.28         54.5326
707.70        55.00996
708.12        55.54051
708.55        55.82394
708.97        55.85381
709.39         55.8786
709.81        55.93998
710.23        55.94399
710.66        55.91315
711.08        55.94242
711.50        56.00453
711.92        56.02238
712.34        55.99339
712.76        55.95925
713.19        55.92997
713.61        55.94608
714.03          56.006
714.45        56.09851
714.87        56.23027
715.29         56.4175
715.71        56.65152
716.13         56.9126
716.56        57.14835
716.98        57.34908
717.40        57.46796
717.82        57.51315
718.24        57.48778
718.66        57.40061
719.08        57.28069
719.50        57.15237
719.92        57.05493
720.34         57.0599
720.76        57.18063
721.19        57.32573
721.61        57.52366
722.03         57.8847
722.45        58.31535
722.87        58.57119
723.29        58.60927
723.71        58.49448
724.13        58.21539
724.55        58.13128
724.97         57.5526
725.39        57.40839
725.81        57.51263
726.23        57.78886
726.65         58.1361
727.07        58.53154
727.49        58.71646
727.91        58.88886
728.33        59.00936
728.75        59.12281
729.17        59.24097
729.59        59.33786
730.01        59.40346
730.43        59.44366
730.85        59.46188
731.27        59.42289
731.69        59.34904
732.10        59.37172
732.52        59.45079
732.94        59.36252
733.36        59.16368
733.78        59.06141
734.20        59.06983
734.62        59.23729
735.04        59.59861
735.46        59.31632
735.88        59.88828
736.30        60.06468
736.72        60.28635
737.13        60.48116
737.55        60.58773
737.97        60.77032
738.39        60.93547
738.81        60.62077
739.23        60.01055
739.65        59.99431
740.06        60.48195
740.48        60.74234
740.90        60.74319
741.32        60.53299
741.74        60.89859
742.16        61.02107
742.57          61.112
742.99        61.23693
743.41        61.34063
743.83        61.19511
744.25        60.84562
744.67        60.58221
745.08        60.48238
745.50        60.43333
745.92         60.4507
746.34        60.61749
746.75        60.87522
747.17        61.01031
747.59        60.99549
748.01         61.0187
748.42        61.04798
748.84         60.8518
749.26        60.57738
749.68        60.58845
750.09        60.74908
750.51         61.4509
750.93        62.29562
751.35        62.12287
751.76        61.12127
752.18        60.70116
752.60        60.93306
753.01        61.02264
753.43         60.9412
753.85        60.78476
754.27        60.87233
754.68        61.09283
755.10        61.43957
755.52         61.1629
755.93        60.64663
756.35        60.72657
756.77        61.44053
757.18        61.82825
757.60        61.86235
758.02         62.2196
758.43        62.64328
758.85         62.5761
759.26        61.93799
759.68        61.17388
760.10        60.70844
760.51        61.71937
760.93        62.68703
761.34        62.29285
761.76        62.75613
762.18        62.57326
762.59        62.71577
763.01        62.49417
763.42        62.89465
763.84        62.92299
764.26        62.81489
764.67        62.54545
765.09        62.28924
765.50        62.29203
765.92        62.51979
766.33         62.7147
766.75        62.69229
767.16        62.33584
767.58        61.75092
768.00        61.39183
768.41        61.46783
768.83        61.96945
769.24        62.63432
769.66        63.18254
770.07        63.41413
770.49        62.71574
770.90        61.56931
771.32         61.9914
771.73        63.68967
772.15        64.23041
772.56         63.4859
772.97        62.74349
773.39        62.32896
773.80        62.40714
774.22        62.90035
774.63        63.19307
775.05        63.13894
775.46        63.20373
775.88        63.33202
776.29         63.1914
776.70        62.86642
777.12        62.73227
777.53        62.84837
777.95        63.05257
778.36        63.29292
778.77        63.45491
779.19        63.52472
779.60        63.58112
780.02        63.59136
780.43        63.60625
780.84        63.67186
781.26        63.39278
781.67        62.99591
782.09        63.71136
782.50        65.15126
782.91        65.23138
783.33        64.06903
783.74        63.62667
784.15        63.98794
784.57        64.11784
784.98        63.96987
785.39        63.71406
785.81        63.49524
786.22        63.84988
786.63        64.61949
787.04        64.97198
787.46        64.83749
787.87        64.62021
788.28        64.48514
788.70        64.45006
789.11        64.53094
789.52         64.8779
789.93        65.29751
790.35        65.16489
790.76        64.57223
791.17        64.26011
791.58         64.3478
792.00        64.38202
792.41        64.33357
792.82        64.62416
793.23        65.07714
793.65        64.73965
794.06        63.91135
794.47        64.09422
794.88        65.08509
795.29        65.67572
795.71        65.11066
796.12        65.00327
796.53        65.20837
796.94        64.94314
797.35        64.39893
797.76        64.71026
798.18        65.69228
798.59         66.1042
799.00        65.81589
799.41        65.48756
799.82        65.26896
800.23        65.12418
800.64        65.10695
801.06        65.18447
801.47        65.32137
801.88        65.38216
802.29        65.31463
802.70        65.14047
803.11        64.91314
803.52        64.70717
803.93        64.58972
804.34        64.63821
804.75        64.69382
805.17         64.8679
805.58        65.20702
805.99        65.15147
806.40        64.90574
806.81        66.20148
807.22        68.36822
807.63        68.03438
808.04        65.58718
808.45        64.56845
808.86        65.24033
809.27        65.69292
809.68        65.67788
810.09        65.62592
810.50        65.53709
810.91        65.49634
811.32        65.62753
811.73        65.94952
812.14        66.41022
812.55        66.96423
812.96        67.42032
813.37        67.33604
813.78         66.7631
814.19        66.26882
814.60        65.96197
815.01        65.58822
815.42        65.18893
815.83        64.98876
816.24         64.9929
816.65         65.0496
817.05        65.13663
817.46        65.27988
817.87        65.44647
818.28        65.53094
818.69        65.52309
819.10        65.42941
819.51        65.33277
819.92        65.43647
820.33         65.7814
820.74        66.18008
821.14        66.54258
821.55        66.99487
821.96        67.36615
822.37          67.089
822.78        66.32637
823.19        65.92479
823.60        66.00622
824.00        66.17252
824.41        66.28271
824.82        66.38424
825.23        66.42963
825.64        66.41394
826.04        66.40298
826.45        66.45602
826.86        66.60023
827.27        66.82437
827.68        67.03273
828.08        67.09357
828.49         66.9304
828.90        66.59679
829.31         66.2683
829.72        66.23388
830.12        66.57327
830.53        67.15071
830.94        67.72399
831.35         67.8275
831.75        67.37139
832.16        66.50075
832.57        65.53493
832.97        64.95592
833.38        64.89791
833.79        65.18935
834.20        65.68656
834.60        66.16057
835.01        66.52007
835.42        66.87766
835.82        67.17482
836.23        67.22684
836.64        67.04668
837.04        66.63332
837.45        66.24743
837.86        66.39229
838.26        67.17455
838.67        68.41281
839.08        69.67298
839.48        70.12212
839.89        69.54751
840.29        68.26008
840.70        66.85744
841.11        66.02216
841.51        65.94112
841.92        66.38221
842.33        67.15687
842.73        67.92766
843.14        68.43451
843.54        68.82603
843.95         69.0932
844.35        69.27573
844.76        69.37301
845.17        69.33567
845.57        69.19137
845.98        68.98574
846.38        68.77008
846.79        68.55841
847.19        68.36816
847.60        68.18949
848.00        68.03544
848.41        67.88223
848.81        67.79131
849.22        67.77621
849.62        67.87234
850.03        68.06363
850.43        68.26117
850.84        68.25433
851.24        68.05405
851.65        67.65493
852.05        67.33032
852.46        67.45145
852.86        68.07299
853.27        69.01871
853.67        69.91264
854.07        70.36296
854.48        70.26659
854.88        69.77879
855.29         69.0202
855.69        68.35251
856.10        67.86111
856.50        67.53893
856.90        67.34177
857.31        67.20842
857.71        67.16125
858.12        67.17742
858.52        67.28369
858.92        67.38693
859.33        67.43877
859.73        67.48421
860.13        67.45478
860.54        67.28157
860.94        67.00618
861.34        66.63113
861.75        66.27787
862.15        66.18968
862.55        66.39327
862.96        66.79289
863.36        67.27074
863.76        67.53149
864.17        67.48115
864.57        67.24182
864.97        66.87221
865.38        66.47886
865.78        66.14225
866.18        65.81715
866.58        65.59372
866.99        65.62956
867.39        65.95771
867.79        66.52141
868.19        67.13354
868.60        67.47716
869.00        67.50459
869.40        67.25819
869.80        66.88098
870.21        66.67037
870.61        66.77547
871.01        67.04913
871.41        67.30451
871.81        67.27145
872.22        66.90136
872.62        66.30354
873.02        65.65432
873.42        65.24409
873.82        65.16491
874.22        65.30975
874.63        65.56879
875.03        65.78943
875.43        65.88941
875.83        65.92126
876.23        65.87109
876.63        65.71121
877.03        65.46809
877.44        65.13299
877.84        64.81275
878.24        64.72231
878.64        64.85894
879.04        64.99636
879.44        65.15529
879.84        65.48306
880.24        65.92943
880.64        66.40237
881.04        66.65969
881.44        66.33641
881.84        65.40467
882.24        64.03721
882.65        62.62033
883.05        61.74425
883.45        61.57861
883.85        61.97791
884.25        62.74343
884.65        63.50406
885.05        64.08687
885.45        64.55489
885.85        64.90949
886.25         65.1684
886.65        65.34635
887.05        65.40754
887.45        65.33832
887.85        65.15627
888.25        64.88414
888.65        64.53937
889.04        64.21307
889.44        64.05571
889.84        64.07677
890.24        64.24774
890.64         64.4307
891.04         64.3898
891.44        64.08993
891.84        63.63004
892.24        63.16899
892.64        62.94079
893.04        63.00657
893.44        63.29473
893.83         63.7443
894.23        64.19939
894.63        64.60961
895.03        64.98532
895.43        65.31578
895.83        65.59499
896.23        65.79909
896.63        65.88303
897.02        65.81188
897.42        65.57594
897.82        65.19372
898.22         64.7358
898.62        64.23154
899.01        63.69572
899.41        63.18613
899.81        62.71121
900.21        62.39855
900.61        62.44671
901.00        62.86283
901.40         63.5487
901.80        64.28874
902.20        64.73447
902.59        64.80138
902.99        64.58546
903.39        64.20065
903.79        63.84771
904.18        63.60468
904.58        63.41325
904.98        63.34854
905.38        63.53387
905.77        63.96627
906.17        64.64283
906.57        65.32158
906.96         65.5838
907.36        65.32994
907.76        64.68664
908.15        64.01399
908.55        63.87741
908.95        64.40414
909.34        65.41485
909.74        66.51007
910.14        67.11323
910.53        67.02865
910.93         66.4697
911.33        65.64399
911.72        64.85707
912.12        64.29951
912.52         63.8922
912.91        63.63504
913.31        63.55118
913.70        63.62437
914.10        63.82608
914.49        64.18589
914.89        64.64568
915.29        65.17175
915.68         65.7552
916.08        66.16806
916.47          66.124
916.87        65.61077
917.26        64.71466
917.66         63.8254
918.05        63.39329
918.45         63.5183
918.84         64.1189
919.24        64.87464
919.64        65.33793
920.03        65.37387
920.42        65.07477
920.82        64.72012
921.21        64.69362
921.61        65.06765
922.00        65.74911
922.40        66.43937
922.79        66.76675
923.19        66.59405
923.58        66.07985
923.98        65.49358
924.37        65.15973
924.77        65.17656
925.16        65.40816
925.55        65.71708
925.95        65.85184
926.34         65.7466
926.74        65.46554
927.13        65.07623
927.52        64.61279
927.92        64.16272
928.31        63.71572
928.70        63.34104
929.10        63.11506
929.49        63.04025
929.89        63.05249
930.28        63.23999
930.67        63.63195
931.07        64.17652
931.46        64.92038
931.85        65.56619
932.24        65.68849
932.64        65.26006
933.03        64.36932
933.42        63.50251
933.82        63.37371
934.21        64.11214
934.60        65.55232
934.99        67.15469
935.39        67.93858
935.78        67.66872
936.17        66.55157
936.56        65.15572
936.96        64.37519
937.35        64.43816
937.74        65.07328
938.13        65.81114
938.53        65.93044
938.92         65.2748
939.31        64.14542
939.70         62.9454
940.09        62.22241
940.49        62.08403
940.88        62.37336
941.27        62.90384
941.66         63.3388
942.05        63.55582
942.44        63.69447
942.84        63.81404
943.23        63.98193
943.62         64.2359
944.01        64.48289
944.40        64.79481
944.79        65.33337
945.18        66.07172
945.57        66.92728
945.97        67.58749
946.36        67.62537
946.75        66.92928
947.14        65.73659
947.53        64.36552
947.92        63.25269
948.31        62.54453
948.70        62.13604
949.09        62.06056
949.48        62.35823
949.87        62.97759
950.26        63.89467
950.65        64.86613
951.04        65.47546
951.43         65.6011
951.82        65.31779
952.21        64.81458
952.60        64.43925
952.99        64.32518
953.38        64.40758
953.77        64.61756
954.16        64.85044
954.55        65.04305
954.94        65.17279
955.33        65.30572
955.72        65.53806
956.11        65.85393
956.50        66.23624
956.89        66.33934
957.28        65.61526
957.66        64.04816
958.05        61.94849
958.44        59.99327
958.83        59.12443
959.22        59.50291
959.61         60.8564
960.00        62.63889
960.39        63.79799
960.78        63.94765
961.16        63.36765
961.55        62.49073
961.94        61.89356
962.33        61.76294
962.72        61.94373
963.11         62.2861
963.49        62.56415
963.88        62.61989
964.27        62.54967
964.66        62.58551
965.04        63.08559
965.43        64.03962
965.82         65.3593
966.21        66.54705
966.60        66.67194
966.98        65.51347
967.37        63.52444
967.76        61.44436
968.15        60.17831
968.53        59.90928
968.92        60.40134
969.31          61.332
969.69        62.04072
970.08         62.1912
970.47        61.99924
970.86        61.76846
971.24        61.93898
971.63         62.6143
972.02        63.63646
972.40        64.71492
972.79         65.0799
973.17        64.59005
973.56        63.51478
973.95        62.35759
974.33        61.75122
974.72        61.82996
975.11        62.40072
975.49          63.188
975.88        63.58856
976.26        63.45168
976.65        62.92827
977.04        62.27256
977.42         61.8371
977.81        61.69433
978.19        61.70969
978.58        61.89721
978.96        62.24974
979.35        62.69113
979.74        63.23622
980.12        63.78534
980.51        63.92251
980.89         63.6953
981.28        63.21683
981.66        62.69496
982.05        62.40401
982.43        62.43467
982.82        62.66317
983.20        63.25304
983.59        64.37264
983.97        66.04375
984.35        68.16588
984.74         70.0543
985.12        70.81641
985.51        70.18238
985.89        68.42966
986.28        66.40508
986.66        65.32574
987.04        65.54942
987.43        66.74822
987.81        68.31988
988.20        68.95865
988.58        68.28072
988.96        66.64574
989.35        64.75182
989.73        63.55668
990.12        63.26902
990.50        63.65223
990.88        64.15839
991.27        63.87759
991.65         62.6409
992.03        60.83286
992.42        59.22673
992.80        58.83419
993.18        59.85352
993.56        61.98516
993.95        64.45194
994.33        65.92838
994.71        65.81918
995.10         64.6138
995.48        63.01643
995.86        62.16517
996.24        62.34463
996.63        63.06768
997.01        64.16992
997.39        64.97577
997.77        65.17003
998.15        65.12783
998.54        64.73283
998.92        63.64392
999.30        62.02732
999.68        59.98219
1000.06        58.35564
1000.45        58.36249
1000.83        60.29826
1001.21        63.98762
1001.59          68.405
1001.97        71.00206
1002.35        70.79317
1002.73        68.53235
1003.12        65.76595
1003.50        64.47481
1003.88        65.21934
1004.26        67.31376
1004.64        70.18112
1005.02        72.54071
1005.40        73.67813
1005.78        74.09006
1006.16        73.56409
1006.54         71.7334
1006.92        68.88891
1007.30        65.29315
1007.69        62.08312
1008.07        60.71405
1008.45        61.60508
1008.83        64.43936
1009.21        68.46101
1009.59         71.5593
1009.97        72.53458
1010.35        71.87255
1010.73         69.9287
1011.11        67.34246
1011.49        64.64568
1011.86        61.83314
1012.24        59.53811
1012.62        58.57716
1013.00        59.03169
1013.38        60.76781
1013.76        63.38129
1014.14        65.58669
1014.52         66.6178
1014.90        66.67429
1015.28         65.9508
1015.66        64.86287
1016.04        63.62548
1016.41        62.09161
1016.79        60.58216
1017.17        59.83802
1017.55        60.01378
1017.93        60.90709
1018.31        62.05311
1018.69        62.71086
1019.06        62.73034
1019.44        62.35981
1019.82        61.62281
1020.20        60.72585
1020.58        59.87816
1020.95        58.87188
1021.33        58.32444
1021.71         58.9036
1022.09        60.69104
1022.46        63.92079
1022.84         67.4223
1023.22         68.2596
1023.60        65.50137
1023.97        60.04004
1024.35        54.95596
1024.73        53.77284
