SpectraSmart Spectrum 2.9.0.0
--------- Device Information -----------
Spectrum Name :  反射率_0
Saving Time :  2024/04/26 21:27:16
Spectro-Module Model Name : SE2030-DUVN
Spectro-Module Serial Number : OS361AC55029948
Wavelength Start : 200
Wavelength End : 1025
Wavelength Unit : Wavelength(nm)
Spectrum Unit : Reflectance(%)
-----------Spectrum Setting ------------
Integration Time : 20ms
Average : 10
Boxcar : 0
Background removal :  enabled
linearity correction :  enabled
SC :  disabled
Intensity correction :  disabled
DWT denoise :  enabled
savitzky-golay :  disabled
FFT :  disabled
Running average :  disabled
Kalman :  disabled
High pass :  disabled
---------------BEGIN--------------------
Wavelength(nm)             Reflectance(%)
200.29               0
200.75        47.04239
201.21        44.13319
201.67        41.56712
202.13         40.6568
202.58        41.51883
203.04        44.19572
203.50        48.75577
203.96        54.19783
204.42        59.29658
204.88        63.71889
205.34        67.03874
205.80        69.34318
206.26        70.46938
206.72        69.81714
207.18        68.15849
207.64        66.13049
208.10        63.74403
208.55        61.43162
209.01        57.96115
209.47         53.4486
209.93        50.22887
210.39        48.88553
210.85        49.77171
211.31        53.75599
211.77        62.45607
212.23        82.00018
212.69        129.3951
213.14        203.4517
213.60        190.4635
214.06        130.8493
214.52        93.30111
214.98        77.72823
215.44         72.5218
215.90        71.14011
216.36        72.82635
216.81        77.57299
217.27        85.85945
217.73        101.0551
218.19        121.3286
218.65        129.3397
219.11        118.9804
219.57        101.6806
220.02        89.72894
220.48        89.93797
220.94        101.2797
221.40        124.4932
221.86        159.5536
222.32        185.3226
222.77         181.136
223.23        160.6266
223.69        137.9654
224.15        121.2178
224.61        110.3177
225.06        102.1346
225.52        97.65912
225.98        97.55695
226.44        101.1604
226.90        107.9663
227.36        115.7897
227.81        120.4322
228.27        121.0948
228.73        118.9148
229.19        116.3434
229.65        116.4307
230.10        119.3246
230.56        123.9785
231.02        128.3771
231.48        129.4422
231.93        126.7087
232.39        122.2024
232.85         117.598
233.31        115.0484
233.77        114.7885
234.22        115.8819
234.68        117.6878
235.14        119.3238
235.60        120.3689
236.05        121.3289
236.51        121.4105
236.97        119.4212
237.43        115.1908
237.88        109.0703
238.34        102.7068
238.80        99.17499
239.26        99.49809
239.71        104.2465
240.17        111.9994
240.63        118.5639
241.08        121.1414
241.54         118.955
242.00        115.0506
242.46        116.3211
242.91        127.4572
243.37         150.178
243.83        184.8293
244.28        213.8594
244.74         211.886
245.20        180.1376
245.66        142.4738
246.11        119.2474
246.57        110.7678
247.03        110.7723
247.48        112.3139
247.94        105.6751
248.40        92.84136
248.85        80.01704
249.31        70.91415
249.77         66.5753
250.22         65.8108
250.68        67.27279
251.14        69.96634
251.59        70.98949
252.05        69.33766
252.51        67.33567
252.96        65.14318
253.42        63.05964
253.88         61.4367
254.33        59.82924
254.79        60.71846
255.25        66.29326
255.70        75.91689
256.16        88.46215
256.62        99.38623
257.07        101.5468
257.53        96.70856
257.99        89.39111
258.44        83.22393
258.90        81.50407
259.35        82.93058
259.81         86.3271
260.27        89.90514
260.72        91.51323
261.18        91.31703
261.63        89.85719
262.09        88.57521
262.55        88.26347
263.00        88.73175
263.46        89.73749
263.91        90.33182
264.37        89.86595
264.83        88.28868
265.28        86.01904
265.74        83.92435
266.19        82.57298
266.65        82.16492
267.11        82.29663
267.56        82.65576
268.02        82.77824
268.47        82.48775
268.93        82.01051
269.38        81.30521
269.84        80.40475
270.30        79.33947
270.75        78.05666
271.21        76.85744
271.66        76.12012
272.12        75.89111
272.57        75.98914
273.03         76.0374
273.48        75.37827
273.94        73.99213
274.39        72.09264
274.85        70.13976
275.31        68.52328
275.76        67.31538
276.22        66.45135
276.67        65.78481
277.13        65.30914
277.58        64.85894
278.04        64.47475
278.49         63.9761
278.95        63.29219
279.40        62.32843
279.86        61.26043
280.31        60.03115
280.77        58.77522
281.22        57.48231
281.68        56.26459
282.13        55.19679
282.59        54.55228
283.04        54.25693
283.50        54.24561
283.95        54.27296
284.41         53.9991
284.86         53.3268
285.32        52.41343
285.77        51.37955
286.22         50.5008
286.68        49.83936
287.13        49.26677
287.59        48.74521
288.04         48.1436
288.50        47.47964
288.95        46.76416
289.41        46.07101
289.86        45.38543
290.32        44.76518
290.77        44.17094
291.22        43.62249
291.68        43.12783
292.13        42.66636
292.59         42.2585
293.04        41.90936
293.50        41.66253
293.95        41.50817
294.40        41.43581
294.86        41.41237
295.31        41.37017
295.77        41.30502
296.22        41.22477
296.68        41.16335
297.13        41.14816
297.58        41.19703
298.04        41.29892
298.49        41.44005
298.95        41.62492
299.40        41.83231
299.85        42.05675
300.31        42.28249
300.76         42.4667
301.21        42.60252
301.67        42.71175
302.12        42.77106
302.58        42.81997
303.03        42.83892
303.48        42.84759
303.94        42.87109
304.39        42.90012
304.84         42.9491
305.30        43.02719
305.75        43.09877
306.20        43.17205
306.66        43.25359
307.11        43.32234
307.57        43.37958
308.02        43.37027
308.47        43.30111
308.93        43.18871
309.38        43.05619
309.83        42.99667
310.29        43.02322
310.74        43.10677
311.19        43.17181
311.65        43.08891
312.10        42.83352
312.55        42.45382
313.00        42.06573
313.46        41.83943
313.91        41.79339
314.36        41.88328
314.82        42.00003
315.27        41.97878
315.72        41.77219
316.18        41.44444
316.63        41.07355
317.08        40.79895
317.53        40.65393
317.99        40.58543
318.44         40.5408
318.89        40.42453
319.35        40.20982
319.80        39.93205
320.25        39.62915
320.70        39.35767
321.16        39.13423
321.61        38.95403
322.06        38.79122
322.51        38.61118
322.97        38.39798
323.42         38.1633
323.87        37.94347
324.32        37.80171
324.78        37.73355
325.23        37.74468
325.68        37.73304
326.13        37.54026
326.59        37.14316
327.04        36.61081
327.49        36.08998
327.94        35.81535
328.39         35.8343
328.85         36.0613
329.30        36.39289
329.75        36.56198
330.20        36.48038
330.66        36.21503
331.11        35.87532
331.56        35.61178
332.01        35.47931
332.46        35.42546
332.92        35.40218
333.37        35.39045
333.82        35.35271
334.27        35.31376
334.72        35.27903
335.17        35.24501
335.63        35.20811
336.08        35.18169
336.53        35.15425
336.98        35.12697
337.43        35.09968
337.88         35.0636
338.34        35.03453
338.79         35.0764
339.24        35.17983
339.69        35.33094
340.14        35.45704
340.59        35.44161
341.05        35.27734
341.50        35.00394
341.95         34.7211
342.40        34.58059
342.85        34.61922
343.30        34.78716
343.75        35.01624
344.20        35.19553
344.66        35.28524
345.11        35.30938
345.56        35.28443
346.01        35.23768
346.46        35.18853
346.91        35.13675
347.36        35.07973
347.81        35.02042
348.26        34.96232
348.72        34.90351
349.17        34.87942
349.62        34.95631
350.07        35.13419
350.52          35.394
350.97        35.62138
351.42        35.63489
351.87        35.40667
352.32        34.99587
352.77        34.56413
353.22         34.3515
353.67        34.40518
354.13        34.65716
354.58         34.9566
355.03        35.04777
355.48        34.86645
355.93        34.49661
356.38        34.08984
356.83        33.87179
357.28        33.88696
357.73        34.05112
358.18        34.23503
358.63        34.23481
359.08        33.99797
359.53        33.60035
359.98        33.13942
360.43        32.75351
360.88        32.47942
361.33        32.27087
361.78        32.08644
362.23        31.86405
362.68         31.5923
363.13        31.31035
363.58        31.03589
364.03        30.78714
364.48        30.56876
364.93        30.35915
365.38        30.17792
365.83        30.06272
366.28        30.01037
366.73        30.00957
367.18        29.98493
367.63        29.81828
368.08        29.49282
368.53        29.04583
368.98        28.58137
369.43        28.26618
369.88        28.13985
370.33        28.15601
370.78        28.21762
371.23        28.16136
371.68        27.94096
372.13        27.60464
372.58        27.23618
373.03         26.9674
373.48        26.83189
373.93        26.78623
374.38        26.75945
374.83        26.64261
375.28        26.41273
375.72        26.10694
376.17        25.80815
376.62        25.60416
377.07        25.51561
377.52        25.50879
377.97        25.53269
378.42        25.51082
378.87        25.41849
379.32        25.27407
379.77        25.11576
380.22        24.99632
380.67        24.92572
381.11        24.89795
381.56        24.85152
382.01        24.71568
382.46         24.4887
382.91        24.20934
383.36         23.9623
383.81        23.86057
384.26        23.91503
384.71        24.08323
385.15        24.27957
385.60         24.3626
386.05        24.29054
386.50        24.10449
386.95        23.86618
387.40        23.67486
387.85         23.5593
388.29        23.47392
388.74        23.41594
389.19        23.32498
389.64        23.18925
390.09        23.02808
390.54        22.86417
390.98        22.72635
391.43        22.64009
391.88        22.59238
392.33        22.56393
392.78        22.52839
393.23        22.47863
393.67        22.40906
394.12        22.35922
394.57        22.34316
395.02        22.36067
395.47        22.39628
395.91        22.42508
396.36         22.3949
396.81        22.31011
397.26        22.19463
397.71        22.07406
398.15        21.99783
398.60         22.0019
399.05        21.97809
399.50        21.93917
399.95        22.06834
400.39        22.28809
400.84        22.20077
401.29        21.84994
401.74         21.6554
402.18        21.65204
402.63        21.60304
403.08        21.50084
403.53        21.43042
403.97        21.39016
404.42        21.36478
404.87        21.34316
405.32        21.30248
405.76        21.23577
406.21         21.1586
406.66        21.09087
407.11        21.06786
407.55        21.10127
408.00        21.16989
408.45        21.24535
408.90        21.26759
409.34        21.21853
409.79        21.11899
410.24        21.00647
410.68        20.92826
411.13        20.90094
411.58        20.91059
412.03        20.92767
412.47         20.9034
412.92        20.82351
413.37        20.71804
413.81        20.62203
414.26        20.60288
414.71        20.66324
415.15        20.78407
415.60        20.92623
416.05        21.04007
416.49        21.10328
416.94        21.12541
417.39        21.10919
417.83        21.05911
418.28        20.98256
418.73        20.87584
419.17        20.76931
419.62        20.71326
420.07        20.72021
420.51        20.77826
420.96        20.85256
421.41        20.88013
421.85        20.84138
422.30        20.74652
422.74        20.63265
423.19        20.64887
423.64        20.77454
424.08        20.85988
424.53        20.86828
424.98        20.90132
425.42        20.96298
425.87        20.93106
426.31        20.83897
426.76        20.89096
427.21        21.03942
427.65        20.97507
428.10        20.75706
428.54        20.69822
428.99        20.81787
429.44        21.01452
429.88        21.19976
430.33         21.1523
430.77          20.932
431.22        20.95339
431.66        21.18915
432.11         21.2613
432.56        21.17418
433.00        21.13077
433.45        21.09345
433.89        21.08368
434.34        21.15516
434.78        20.67898
435.23        20.87843
435.67        20.87041
436.12        20.96065
436.57        20.93358
437.01        20.80766
437.46        20.75194
437.90        20.76496
438.35        20.74519
438.79        20.68668
439.24        20.65122
439.68        20.64212
440.13        20.64857
440.57        20.67182
441.02        20.72622
441.46        20.80368
441.91        20.85414
442.35        20.87094
442.80        21.02279
443.24        21.23446
443.69        21.22626
444.13        21.02546
444.58        20.94065
445.02        20.98532
445.47        20.99596
445.91        20.96343
446.36        20.95475
446.80        20.96381
447.24        20.97649
447.69        20.98834
448.13         20.9813
448.58        20.95735
449.02        20.91981
449.47        20.87967
449.91        20.84276
450.36        20.81908
450.80        20.80252
451.25        20.79916
451.69        20.80405
452.13        20.81744
452.58        20.83444
453.02        20.85071
453.47        20.86262
453.91        20.86716
454.36        20.86823
454.80        20.85224
455.24        20.79811
455.69        20.71294
456.13        20.59261
456.58         20.4879
457.02        20.44093
457.46        20.46863
457.91        20.55822
458.35        20.65067
458.79        20.65849
459.24        20.58294
459.68        20.43882
460.13        20.31161
460.57        20.27956
461.01        20.37236
461.46        20.54333
461.90        20.74312
462.34        20.87312
462.79         20.8953
463.23        20.84589
463.68        20.74268
464.12        20.63046
464.56        20.52824
465.01        20.45023
465.45        20.37631
465.89        20.33627
466.34        20.32964
466.78        20.34622
467.22        20.38614
467.67         20.4257
468.11        20.46711
468.55         20.5051
468.99        20.52851
469.44         20.5195
469.88        20.47915
470.32        20.41065
470.77        20.34133
471.21        20.31946
471.65        20.35167
472.10        20.42521
472.54         20.5037
472.98        20.53646
473.42        20.51073
473.87        20.44944
474.31         20.3647
474.75         20.2942
475.20        20.25528
475.64        20.23228
476.08        20.22374
476.52        20.21691
476.97        20.20801
477.41        20.20994
477.85        20.23589
478.29        20.27457
478.74        20.34113
479.18        20.48234
479.62        20.65092
480.06        20.73813
480.50        20.73547
480.95        20.66391
481.39        20.55446
481.83        20.65281
482.27        20.66218
482.72        20.80471
483.16        20.96168
483.60        21.00893
484.04        20.91123
484.48        20.92845
484.93        21.08336
485.37        20.73759
485.81        20.74247
486.25        21.14744
486.69        21.03922
487.14        21.77849
487.58        22.33599
488.02        21.89136
488.46        21.36987
488.90        21.31409
489.34        21.56323
489.79        21.77627
490.23        21.70962
490.67        21.83075
491.11        22.06713
491.55        22.06449
491.99        21.87628
492.43        21.82467
492.88        21.94174
493.32        22.06981
493.76        22.17862
494.20        22.29456
494.64        22.41457
495.08        22.49687
495.52        22.54736
495.96         22.7133
496.41        22.94929
496.85        22.91638
497.29        22.67988
497.73        22.85747
498.17        23.12018
498.61        23.33027
499.05        23.34969
499.49        23.37838
499.93        23.37181
500.37        23.46561
500.82        23.63048
501.26        23.75208
501.70        23.82075
502.14        23.91721
502.58        24.05112
503.02        24.18907
503.46        24.32533
503.90        24.46701
504.34        24.58381
504.78        24.62596
505.22        24.58823
505.66        24.48964
506.10        24.37613
506.54        24.32102
506.98        24.34484
507.42        24.42876
507.86        24.54712
508.30        24.65501
508.74        24.73432
509.18         24.7951
509.62        24.84203
510.06        24.88293
510.50        24.92145
510.94         24.9539
511.38        24.97727
511.82        24.98945
512.26        24.99372
512.70        24.99534
513.14        25.00943
513.58        25.05806
514.02        25.14323
514.46        25.25414
514.90        25.37043
515.34        25.46012
515.78        25.51151
516.22        25.53057
516.66        25.52348
517.10        25.50192
517.54        25.47342
517.98        25.43853
518.42        25.40063
518.86        25.36543
519.30        25.33555
519.74        25.31027
520.18        25.29667
520.62        25.30281
521.06        25.32795
521.50        25.37114
521.93        25.41195
522.37         25.4081
522.81        25.35733
523.25        25.27054
523.69         25.1832
524.13        25.15189
524.57        25.18446
525.01        25.25784
525.45        25.33497
525.89        25.35557
526.32        25.30172
526.76        25.20347
527.20        25.07844
527.64        24.95577
528.08        24.85093
528.52        24.75659
528.96         24.6885
529.40        24.67148
529.83        24.70347
530.27        24.77651
530.71        24.85542
531.15        24.88465
531.59        24.84961
532.03        24.76338
532.46        24.64657
532.90        24.55178
533.34         24.4906
533.78        24.43894
534.22        24.38826
534.66        24.35493
535.09        24.31836
535.53        24.22854
535.97        24.10884
536.41        24.05654
536.85        24.08036
537.28        24.13048
537.72        24.18988
538.16        24.24969
538.60        24.30052
539.04        24.34471
539.47         24.3812
539.91         24.4248
540.35        24.47426
540.79        24.52689
541.22        24.58232
541.66        24.64957
542.10        24.72529
542.54        24.80662
542.97        24.88727
543.41         24.9673
543.85        25.04313
544.29        25.12071
544.72        25.19193
545.16        25.26113
545.60        25.32652
546.04        25.39187
546.47        25.47786
546.91         25.6114
547.35        25.79146
547.79        26.00928
548.22         26.2273
548.66        26.37984
549.10        26.48669
549.53        26.55669
549.97        26.61749
550.41        26.65403
550.84        26.70763
551.28        26.83923
551.72        27.01729
552.15        27.21288
552.59        27.44776
553.03        27.32813
553.46        27.67205
553.90        27.75737
554.34         27.8251
554.77        27.87621
555.21        27.93902
555.65        28.03631
556.08         28.1619
556.52        28.29491
556.96        28.40908
557.39        28.54128
557.83        28.66269
558.27        28.61696
558.70         28.4592
559.14        28.44921
559.57        28.58604
560.01        28.71211
560.45        28.79505
560.88        28.87567
561.32        28.95991
561.75        29.00905
562.19         29.0446
562.63        29.09438
563.06        29.15884
563.50        29.23086
563.93        29.28386
564.37        29.35299
564.80        29.44788
565.24        29.49326
565.68        29.42609
566.11        29.79001
566.55        29.51829
566.98        29.49627
567.42        29.48231
567.85        29.58467
568.29        29.80923
568.72        30.09803
569.16        30.44007
569.60         30.6564
570.03        30.83329
570.47        30.99848
570.90         31.2243
571.34        31.04463
571.77        31.40014
572.21        31.56141
572.64        31.73139
573.08        31.82323
573.51        31.88327
573.95        31.86523
574.38        31.86747
574.82        32.23272
575.25        32.10118
575.69        32.22589
576.12        32.34452
576.56        32.18926
576.99        32.19498
577.42        32.23276
577.86        32.26895
578.29        32.83332
578.73        32.84447
579.16        32.82003
579.60        32.47863
580.03        32.42788
580.47        32.23083
580.90        32.66745
581.33        32.24088
581.77        32.50018
582.20        31.98606
582.64        32.29656
583.07        32.14915
583.51        32.03849
583.94        31.76486
584.37        31.60691
584.81        31.43138
585.24         31.3558
585.68        31.33659
586.11         31.2344
586.54        31.31359
586.98        31.09669
587.41        30.73327
587.85        30.77084
588.28        30.81938
588.71        30.91058
589.15        30.72904
589.58        30.69644
590.01        30.63258
590.45        30.60955
590.88        30.79553
591.31        30.71207
591.75        30.50265
592.18        30.36298
592.61        30.35493
593.05        30.88513
593.48        31.18849
593.91        31.28247
594.35         31.2708
594.78        31.09957
595.21         30.9593
595.65        31.13648
596.08        31.65134
596.51        31.83659
596.94        31.59329
597.38        31.63595
597.81        31.94169
598.24        32.29707
598.68        32.41144
599.11        32.56417
599.54        32.94755
599.97         32.9432
600.41        33.43999
600.84        33.48041
601.27         33.8063
601.70         34.0306
602.14        34.27096
602.57        34.57826
603.00        35.01164
603.43        35.00925
603.87        35.65496
604.30        36.06431
604.73        36.61033
605.16        36.44634
605.60        36.93843
606.03        37.04031
606.46         37.1932
606.89        37.61126
607.32        38.48394
607.76        38.74326
608.19        39.10876
608.62        39.21592
609.05        39.37439
609.48        39.66492
609.92         40.5965
610.35         40.6101
610.78        40.15237
611.21         40.8304
611.64        40.92929
612.07        41.54425
612.50        41.85758
612.94         42.1075
613.37        42.14663
613.80        42.54604
614.23        42.04644
614.66        42.27511
615.09        42.80541
615.52        43.20079
615.96        43.38416
616.39        43.63266
616.82        43.95428
617.25        44.04389
617.68        44.11215
618.11         44.3456
618.54        44.72188
618.97        45.04151
619.40         45.3133
619.84        45.01847
620.27        45.20698
620.70        45.33591
621.13        45.61812
621.56        45.45647
621.99        44.96928
622.42        44.92447
622.85        45.29266
623.28        45.47254
623.71        45.45899
624.14        45.45322
624.57         45.7722
625.00         45.8832
625.43        45.84872
625.86        45.83157
626.29        45.87266
626.72        45.47478
627.15        45.54863
627.58        45.36178
628.01        45.16393
628.44        44.92991
628.87        44.67514
629.30        44.31516
629.73        44.04856
630.16        43.83638
630.59        43.73156
631.02        43.69838
631.45        43.66871
631.88        43.52887
632.31        43.24461
632.74         42.8465
633.17        42.38301
633.60        41.93836
634.03        41.54369
634.46        41.17739
634.89        40.82346
635.32        40.45862
635.75        40.08207
636.18        39.67893
636.61        39.27385
637.04         38.9124
637.47        38.59769
637.89        38.30964
638.32        38.01946
638.75        37.71689
639.18        37.40046
639.61        37.09038
640.04        36.79554
640.47        36.50539
640.90        36.23327
641.33        36.02139
641.76         35.8682
642.18        35.73672
642.61        35.61395
643.04        35.52848
643.47        35.47542
643.90         35.4333
644.33        35.39774
644.76        35.37497
645.18        35.36491
645.61        35.35854
646.04         35.3634
646.47         35.3869
646.90         35.4452
647.33        35.55575
647.75        35.70507
648.18        35.92264
648.61        36.21522
649.04        36.43559
649.47        36.54573
649.89         37.1865
650.32        37.34538
650.75        37.61164
651.18        37.76387
651.61        38.14471
652.03        38.74361
652.46        39.32746
652.89        39.83848
653.32        40.16581
653.74        40.36066
654.17        40.64753
654.60        41.19374
655.03        41.35628
655.46        41.33335
655.88        41.99469
656.31        43.39286
656.74        44.13671
657.16        46.99945
657.59        50.48146
658.02        46.39856
658.45        45.91406
658.87        45.34166
659.30        45.95067
659.73        45.83281
660.15        46.74212
660.58        46.35051
661.01        46.47424
661.44        46.64835
661.86        46.67819
662.29        46.60484
662.72        47.23801
663.14        47.61182
663.57        47.88338
664.00        47.85077
664.42        48.09774
664.85        48.64461
665.27        49.16415
665.70        49.53146
666.13        49.74908
666.55        49.79983
666.98        49.63621
667.41        49.36025
667.83        49.46196
668.26        49.47336
668.69         49.7623
669.11         50.1162
669.54        50.43202
669.96        50.67659
670.39        50.88409
670.82        51.06351
671.24        51.22103
671.67        51.36668
672.09        51.42588
672.52        51.45335
672.94        51.64687
673.37        51.95402
673.80        52.03711
674.22        51.93924
674.65        51.98643
675.07        52.20963
675.50        52.40818
675.92        52.54799
676.35        52.65288
676.77         52.7194
677.20        52.74498
677.62        52.77252
678.05        52.86994
678.47        53.04267
678.90        53.26802
679.32        53.51055
679.75        53.69426
680.17        53.79351
680.60        53.91929
681.02        54.06123
681.45        54.00546
681.87        53.86615
682.30        54.06389
682.72        54.54972
683.15        54.86748
683.57        54.95257
684.00         54.9187
684.42        54.85158
684.85        54.90833
685.27        55.11145
685.70         55.3711
686.12        55.60235
686.54        55.75619
686.97        55.81995
687.39        55.73654
687.82        55.57584
688.24        55.68798
688.66        56.05598
689.09          55.994
689.51        56.08887
689.94         56.1444
690.36         56.3403
690.78        56.48303
691.21        56.58297
691.63        56.72007
692.06        56.89355
692.48         57.0922
692.90        57.27485
693.33        57.38304
693.75         57.4029
694.17        57.32734
694.60        57.24707
695.02        57.29944
695.44        57.48319
695.87        57.81549
696.29        58.17884
696.71        58.08065
697.14        57.65264
697.56        57.66243
697.98        58.10158
698.41        58.33731
698.83          58.348
699.25        58.54631
699.68        58.85948
700.10         59.0206
700.52        58.98402
700.94        58.83745
701.37        58.67873
701.79        58.67318
702.21         58.8529
702.64        59.15025
703.06        59.48138
703.48        59.69542
703.90        59.74935
704.33        59.69297
704.75        59.58435
705.17         59.5086
705.59        59.50539
706.01        59.55028
706.44        59.64118
706.86        59.80455
707.28        60.02304
707.70        60.25106
708.12        60.47692
708.55        60.75494
708.97        61.03346
709.39        61.10891
709.81        61.00777
710.23        60.98648
710.66        61.06893
711.08        61.12654
711.50        61.13468
711.92         61.1344
712.34        61.12782
712.76        61.12017
713.19        61.10447
713.61        61.09965
714.03        61.10172
714.45        61.11912
714.87        61.18196
715.29        61.33686
715.71        61.58246
716.13        61.88685
716.56        62.18781
716.98         62.4628
717.40        62.65118
717.82        62.76491
718.24        62.78408
718.66        62.68162
719.08        62.48317
719.50        62.22525
719.92        61.99386
720.34        61.91748
720.76        62.02375
721.19        62.25476
721.61        62.59298
722.03        62.95371
722.45        63.28458
722.87        63.59083
723.29        63.80288
723.71        63.81538
724.13        63.62526
724.55        63.27274
724.97         62.8783
725.39        62.65014
725.81        62.64744
726.23        62.79753
726.65          63.028
727.07        63.35368
727.49        63.50162
727.91        63.68479
728.33        63.84016
728.75        63.98145
729.17        64.10648
729.59        64.19403
730.01        64.24426
730.43        64.26612
730.85        64.26292
731.27        64.23714
731.69        64.19199
732.10        64.12871
732.52        64.05042
732.94        63.97535
733.36        63.93626
733.78        63.85637
734.20        63.73588
734.62        63.83531
735.04        64.21118
735.46        63.77661
735.88        64.41574
736.30          64.509
736.72         64.6602
737.13        65.01189
737.55         65.4233
737.97        65.74591
738.39        65.84367
738.81        65.31668
739.23        64.44862
739.65         64.4781
740.06        65.26173
740.48        65.59475
740.90        65.41643
741.32        65.38219
741.74        65.49594
742.16        65.92027
742.57        65.75353
742.99        65.79871
743.41        65.79077
743.83        65.73666
744.25        65.64171
744.67        65.50032
745.08        65.38461
745.50         65.4024
745.92        65.57966
746.34         65.8138
746.75         65.9949
747.17        66.24511
747.59        66.05128
748.01        65.87019
748.42        65.63277
748.84         65.5349
749.26        65.62352
749.68        65.67194
750.09         65.6942
750.51         66.0989
750.93        66.66487
751.35         66.5311
751.76        65.81222
752.18        65.42225
752.60        65.40855
753.01        65.44273
753.43        65.18974
753.85        65.14984
754.27        65.23533
754.68        65.49236
755.10        65.82961
755.52        65.91779
755.93        65.79454
756.35        65.87138
756.77        66.19618
757.18        66.41042
757.60         66.5326
758.02        66.95302
758.43        67.39928
758.85        67.15767
759.26        66.55321
759.68        65.59658
760.10        66.16515
760.51        66.75901
760.93        67.67873
761.34        67.27464
761.76        67.37451
762.18        67.17622
762.59        67.31805
763.01        67.35886
763.42        67.35802
763.84        67.53888
764.26         67.8224
764.67        67.75414
765.09        67.45065
765.50        67.44189
765.92        67.70692
766.33        67.65443
766.75        67.22002
767.16         67.0868
767.58        66.95221
768.00        66.86674
768.41        66.82471
768.83        67.17292
769.24        67.72581
769.66        67.97821
770.07         67.8893
770.49        67.49841
770.90        67.07675
771.32        67.50877
771.73        68.56469
772.15        68.89596
772.56        68.42229
772.97        67.80822
773.39        67.33753
773.80        67.32581
774.22        67.74959
774.63        68.19862
775.05        68.44629
775.46         68.5813
775.88        68.51221
776.29        68.11379
776.70        67.58428
777.12         67.3963
777.53        67.64195
777.95        68.12066
778.36        68.66864
778.77        68.96604
779.19        68.94533
779.60        68.78692
780.02        68.52972
780.43        68.27004
780.84        68.15627
781.26        67.89976
781.67        67.64713
782.09        68.61544
782.50        70.00203
782.91        69.84512
783.33        68.31364
783.74        67.80598
784.15        68.44936
784.57        69.02425
784.98         69.3304
785.39        69.24487
785.81        68.91048
786.22        69.19833
786.63        69.98459
787.04        70.24198
787.46        69.93279
787.87        69.60756
788.28        69.43829
788.70         69.3856
789.11        69.45647
789.52        69.80127
789.93        70.23829
790.35        70.17293
790.76        69.68717
791.17        69.48602
791.58        69.62761
792.00        69.61248
792.41        69.44733
792.82        69.51014
793.23        69.74291
793.65        69.65816
794.06        69.38211
794.47        69.59231
794.88        70.17083
795.29         70.5247
795.71        70.22937
796.12         70.1679
796.53         70.2997
796.94        69.91929
797.35        69.76797
797.76        69.92655
798.18        70.47829
798.59         70.7624
799.00        70.69693
799.41        70.62415
799.82        70.60052
800.23        70.58594
800.64        70.59872
801.06        70.61463
801.47         70.6399
801.88        70.59976
802.29        70.47379
802.70        70.27281
803.11        70.05306
803.52        69.89478
803.93        69.84951
804.34        69.95597
804.75        70.13906
805.17        70.30732
805.58        70.53394
805.99        70.56994
806.40        70.54303
806.81        71.50067
807.22        72.97137
807.63        72.71216
808.04        70.99969
808.45         70.2644
808.86        70.69351
809.27        70.94569
809.68        70.85285
810.09        70.79185
810.50        70.72958
810.91        70.56773
811.32        70.43847
811.73        70.54405
812.14        70.91188
812.55        71.50018
812.96        72.10624
813.37        72.31867
813.78        72.04761
814.19        71.48833
814.60        70.85765
815.01         70.4029
815.42        70.19734
815.83        70.19243
816.24        70.31676
816.65        70.41528
817.05        70.44131
817.46        70.42776
817.87        70.43203
818.28        70.48312
818.69        70.59061
819.10        70.71389
819.51        70.86546
819.92        71.08111
820.33        71.34541
820.74        71.63827
821.14        71.87973
821.55        71.93587
821.96        71.79022
822.37        71.48997
822.78        71.13908
823.19        70.91576
823.60         70.8808
824.00        71.01759
824.41        71.22128
824.82        71.41454
825.23        71.54707
825.64        71.63929
826.04        71.70645
826.45        71.73158
826.86        71.73537
827.27        71.72737
827.68        71.69263
828.08        71.64288
828.49        71.53374
828.90         71.3752
829.31        71.26624
829.72        71.36681
830.12        71.71741
830.53        72.21725
830.94        72.65615
831.35        72.62514
831.75          72.064
832.16        71.09605
832.57        70.06256
832.97        69.48027
833.38        69.48417
833.79         69.8997
834.20          70.536
834.60         71.0825
835.01        71.43356
835.42        71.72646
835.82        71.95316
836.23        72.01537
836.64        71.94715
837.04        71.70505
837.45          71.513
837.86         71.8232
838.26         72.7201
838.67        74.03668
839.08        75.30185
839.48        75.62189
839.89        74.79001
840.29        73.14603
840.70        71.39946
841.11        70.37415
841.51        70.27945
841.92        70.85213
842.33        71.80556
842.73         72.6182
843.14         72.9737
843.54        73.08091
843.95         73.0474
844.35         73.1017
844.76        73.28714
845.17        73.49203
845.57        73.64364
845.98        73.62313
846.38        73.43258
846.79        73.13445
847.19        72.81453
847.60        72.56882
848.00        72.44476
848.41        72.38381
848.81        72.40402
849.22        72.44792
849.62        72.53077
850.03         72.6537
850.43        72.77526
850.84        72.75262
851.24        72.61381
851.65        72.32985
852.05        72.10973
852.46        72.20477
852.86        72.65622
853.27        73.34742
853.67        73.99348
854.07         74.3325
854.48        74.28078
854.88        73.94832
855.29        73.40289
855.69        72.91763
856.10        72.52998
856.50        72.26167
856.90        72.05815
857.31        71.84627
857.71        71.66221
858.12        71.47961
858.52        71.38182
858.92        71.37173
859.33        71.42121
859.73        71.55178
860.13        71.64636
860.54        71.54137
860.94        71.25854
861.34        70.84706
861.75         70.4267
862.15        70.24616
862.55        70.33869
862.96        70.56895
863.36        70.92497
863.76        71.29031
864.17        71.57974
864.57        71.86571
864.97        71.94432
865.38        71.50477
865.78        70.56838
866.18        69.22964
866.58        67.92645
866.99        67.43906
867.39        67.98144
867.79        69.29498
868.19        70.89034
868.60        71.99861
869.00        72.43182
869.40        72.35174
869.80        71.96114
870.21        71.67007
870.61        71.69692
871.01        71.84417
871.41        71.94242
871.81        71.76976
872.22        71.27837
872.62        70.56862
873.02        69.85193
873.42        69.44852
873.82         69.4547
874.22        69.78888
874.63        70.19398
875.03        70.28427
875.43         69.9575
875.83        69.32206
876.23        68.67879
876.63        68.49121
877.03        68.85625
877.44        69.61434
877.84        70.43591
878.24        70.76711
878.64        70.43454
879.04        69.50064
879.44        68.44437
879.84         68.0816
880.24        68.53157
880.64        69.50253
881.04        70.48141
881.44        70.64423
881.84        69.81436
882.24        68.31297
882.65        66.68992
883.05        65.78234
883.45        65.81797
883.85        66.53259
884.25        67.60104
884.65        68.46599
885.05        68.90917
885.45        69.09148
885.85        69.09663
886.25        69.05049
886.65        69.01199
887.05        68.90538
887.45         68.7555
887.85        68.64478
888.25        68.58508
888.65        68.57333
889.04        68.57054
889.44        68.51814
889.84        68.39389
890.24           68.24
890.64        68.05715
891.04        67.85109
891.44        67.64583
891.84        67.44084
892.24        67.32352
892.64        67.42128
893.04        67.74831
893.44        68.27815
893.83        68.87759
894.23        69.26545
894.63        69.38792
895.03        69.28309
895.43        69.12911
895.83        69.23784
896.23         69.6567
896.63         70.2607
897.02        70.79108
897.42        70.86301
897.82        70.40672
898.22         69.6109
898.62        68.70406
899.01        68.00642
899.41        67.64184
899.81        67.50027
900.21        67.56581
900.61        67.81206
901.00        68.18017
901.40        68.65877
901.80        69.10783
902.20        69.28822
902.59        69.16903
902.99        68.81952
903.39        68.36385
903.79        68.02429
904.18        67.86714
904.58        67.81586
904.98        67.92126
905.38        68.26541
905.77        68.82343
906.17        69.60038
906.57        70.30161
906.96        70.42931
907.36        69.88848
907.76        68.84545
908.15        67.79004
908.55         67.4908
908.95        68.12225
909.34        69.45068
909.74         70.9598
910.14        71.86766
910.53        71.90435
910.93        71.33358
911.33        70.41344
911.72        69.53452
912.12        68.92283
912.52        68.46931
912.91        68.16969
913.31        68.05051
913.70        68.09608
914.10        68.29102
914.49        68.67277
914.89        69.17809
915.29         69.7746
915.68        70.45375
916.08        70.97414
916.47        71.03476
916.87        70.61252
917.26        69.78244
917.66        68.94846
918.05        68.57922
918.45        68.77843
918.84        69.46233
919.24        70.27303
919.64        70.70782
920.03        70.62208
920.42        70.12083
920.82        69.54674
921.21        69.37775
921.61        69.70044
922.00        70.40277
922.40        71.11415
922.79         71.3412
923.19        70.93525
923.58          70.129
923.98        69.27413
924.37        68.80325
924.77        68.83856
925.16        69.18452
925.55        69.70975
925.95        70.16862
926.34         70.4578
926.74        70.62843
927.13        70.59473
927.52        70.15229
927.92        69.37222
928.31        68.33222
928.70        67.33446
929.10        66.81357
929.49         66.8573
929.89        67.30272
930.28        68.07162
930.67        68.88322
931.07        69.56703
931.46         70.2487
931.85        70.71426
932.24        70.68427
932.64        70.18673
933.03        69.26233
933.42        68.35361
933.82        68.11544
934.21        68.66934
934.60        69.88323
934.99        71.29203
935.39        72.03392
935.78        71.90344
936.17        71.05793
936.56        69.95629
936.96         69.3228
937.35        69.33872
937.74        69.77674
938.13         70.2487
938.53        70.17001
938.92        69.43392
939.31        68.31856
939.70        67.18057
940.09        66.49431
940.49         66.3557
940.88        66.63884
941.27        67.22601
941.66        67.89034
942.05        68.51284
942.44         69.1604
942.84        69.77009
943.23        70.23887
943.62        70.54677
944.01        70.63072
944.40         70.6235
944.79        70.79071
945.18        71.16335
945.57         71.6751
945.97        72.00024
946.36        71.69361
946.75        70.66666
947.14        69.18157
947.53        67.68079
947.92        66.76603
948.31        66.58217
948.70        66.96275
949.09        67.69221
949.48        68.38726
949.87        68.87766
950.26        69.22836
950.65        69.48022
951.04        69.71883
951.43        69.95206
951.82        70.10365
952.21        70.09219
952.60        69.82013
952.99        69.32504
953.38        68.73463
953.77        68.19695
954.16        67.92094
954.55         67.9564
954.94        68.19659
955.33        68.66569
955.72        69.38282
956.11         70.2746
956.50        71.33287
956.89        72.14574
957.28        72.04958
957.66        70.94828
958.05        69.09959
958.44        67.20148
958.83        66.26546
959.22        66.47483
959.61        67.57111
960.00        68.94431
960.39        69.44498
960.78         68.7494
961.16        67.25502
961.55        65.61916
961.94         64.6871
962.33        64.67598
962.72        65.34324
963.11        66.36834
963.49        67.17436
963.88        67.43069
964.27        67.30193
964.66        67.08401
965.04        67.24564
965.43        67.83128
965.82         68.7284
966.21          69.494
966.60        69.34001
966.98        68.10154
967.37        66.19444
967.76        64.34276
968.15        63.41975
968.53         63.5897
968.92        64.65041
969.31        66.11514
969.69        66.99312
970.08        66.86529
970.47        66.03812
970.86        65.16864
971.24        65.21251
971.63        66.36297
972.02        68.33747
972.40         70.5015
972.79        71.33574
973.17        70.46627
973.56        68.45107
973.95        66.18987
974.33        64.82259
974.72        64.59767
975.11        65.15772
975.49         66.1416
975.88        66.78054
976.26        66.83396
976.65        66.51836
977.04        66.03419
977.42        65.63032
977.81        65.37554
978.19        65.14799
978.58        65.06746
978.96         65.3243
979.35        65.90037
979.74         66.7767
980.12        67.78684
980.51        68.36115
980.89        68.47692
981.28        68.26461
981.66        67.96503
982.05        67.92839
982.43        68.25692
982.82        68.77932
983.20        69.60056
983.59        70.77221
983.97        72.28671
984.35        74.08069
984.74        75.52095
985.12        75.80574
985.51        74.73074
985.89        72.59988
986.28        70.29223
986.66         69.0463
987.04        69.22145
987.43         70.4764
987.81         72.2205
988.20        73.13852
988.58         72.8001
988.96        71.50574
989.35        69.85743
989.73        68.69328
990.12        68.20281
990.50        68.18233
990.88         68.1482
991.27        67.33319
991.65        65.66328
992.03        63.53093
992.42        61.71811
992.80        61.21495
993.18        62.20908
993.56        64.41158
993.95        67.04983
994.33        68.79514
994.71        69.00636
995.10        68.12455
995.48        66.79728
995.86        66.10912
996.24        66.34926
996.63        67.05965
997.01         68.0782
997.39        68.74039
997.77        68.74988
998.15        68.44859
998.54        67.88741
998.92        66.94958
999.30        65.80727
999.68        64.52391
1000.06        63.58489
1000.45        63.65704
1000.83          64.946
1001.21        67.35507
1001.59        70.40083
1001.97        72.73355
1002.35        73.72932
1002.73        73.70293
1003.12        73.27157
1003.50        73.19449
1003.88        73.79502
1004.26        74.67113
1004.64        75.77535
1005.02        76.96702
1005.40        78.01954
1005.78        79.12177
1006.16         79.5562
1006.54         78.1675
1006.92        75.03165
1007.30        70.67651
1007.69         66.6259
1008.07        64.84502
1008.45        65.88405
1008.83        69.32057
1009.21        73.97399
1009.59        76.86839
1009.97        76.55476
1010.35        73.84924
1010.73        70.01135
1011.11        66.87569
1011.49        65.04412
1011.86         64.0154
1012.24        63.54257
1012.62        63.28165
1013.00         63.0817
1013.38        63.05859
1013.76        63.39325
1014.14        64.27782
1014.52        65.64388
1014.90        67.28217
1015.28        68.53472
1015.66        68.63676
1016.04         67.5396
1016.41        65.44123
1016.79         63.1587
1017.17        62.28561
1017.55        63.20621
1017.93        65.38029
1018.31        67.82142
1018.69        69.11815
1019.06        68.97858
1019.44        67.78501
1019.82        65.96358
1020.20        64.63953
1020.58        64.30766
1020.95        64.34656
1021.33        64.73975
1021.71        65.38242
1022.09        66.21828
1022.46        67.69603
1022.84        68.85896
1023.22        67.61795
1023.60        63.67246
1023.97         57.7885
1024.35        52.84499
1024.73        52.04481
