SpectraSmart Spectrum 2.9.0.0
--------- Device Information -----------
Spectrum Name :  反射率_0
Saving Time :  2024/04/26 22:12:27
Spectro-Module Model Name : SE2030-DUVN
Spectro-Module Serial Number : OS361AC55029948
Wavelength Start : 200
Wavelength End : 1025
Wavelength Unit : Wavelength(nm)
Spectrum Unit : Reflectance(%)
-----------Spectrum Setting ------------
Integration Time : 20ms
Average : 10
Boxcar : 0
Background removal :  enabled
linearity correction :  enabled
SC :  disabled
Intensity correction :  disabled
DWT denoise :  enabled
savitzky-golay :  disabled
FFT :  disabled
Running average :  disabled
Kalman :  disabled
High pass :  disabled
---------------BEGIN--------------------
Wavelength(nm)             Reflectance(%)
200.29               0
200.75        43.31105
201.21        43.68895
201.67        44.24925
202.13        43.68555
202.58        41.73797
203.04        38.98406
203.50        36.38079
203.96        36.65279
204.42        41.54626
204.88         50.3692
205.34        60.53816
205.80         67.3576
206.26        68.96062
206.72        66.31863
207.18        62.01631
207.64        58.20808
208.10        54.97453
208.55        52.02083
209.01        47.68689
209.47        41.58367
209.93        36.68309
210.39        34.55331
210.85        35.26106
211.31        39.15432
211.77        47.83624
212.23         67.5356
212.69        116.8984
213.14        201.5399
213.60        201.7151
214.06        144.0575
214.52        103.9253
214.98         85.5872
215.44        77.38706
215.90        72.14031
216.36        68.91657
216.81        67.39863
217.27        67.71648
217.73        71.95457
218.19        78.91323
218.65        80.34117
219.11         74.4864
219.57        66.44863
220.02        62.38609
220.48         66.6885
220.94        79.51926
221.40        102.7595
221.86        135.8376
222.32        157.4182
222.77        148.8988
223.23        124.7854
223.69        100.7578
224.15        85.51477
224.61        77.75118
225.06        73.38654
225.52         71.7635
225.98        72.08301
226.44        73.70263
226.90        76.74165
227.36        79.86366
227.81        80.56226
228.27        78.69251
228.73        75.11697
229.19        71.60249
229.65        70.21007
230.10        71.03515
230.56        73.40671
231.02        76.11929
231.48        77.29533
231.93        76.49983
232.39        74.78915
232.85        73.06973
233.31        72.57844
233.77        73.42916
234.22        75.11774
234.68        77.00289
235.14        78.22386
235.60        78.46667
236.05        78.02216
236.51        76.93908
236.97         75.5523
237.43        74.10767
237.88        72.64677
238.34         71.2411
238.80        70.19186
239.26        69.64074
239.71        70.10137
240.17         71.3905
240.63         73.5597
241.08        76.65053
241.54         79.8623
242.00        84.14352
242.46        91.86439
242.91        105.5412
243.37        127.5899
243.83        157.2219
244.28        177.2281
244.74        166.2175
245.20        127.4978
245.66        87.93642
246.11          68.968
246.57        69.66108
247.03        83.41978
247.48          100.23
247.94        102.5491
248.40        90.74921
248.85        74.87316
249.31        62.40574
249.77        57.20344
250.22        58.32578
250.68        64.14371
251.14        72.37403
251.59         75.5336
252.05        70.29996
252.51        61.12307
252.96        52.58747
253.42        48.78281
253.88        49.24297
254.33        51.50199
254.79        54.90772
255.25        58.65229
255.70        62.37534
256.16        66.37964
256.62        69.31495
257.07        69.04823
257.53        66.63271
257.99         63.4259
258.44        60.53627
258.90        59.36623
259.35        59.18344
259.81        59.73647
260.27        60.31718
260.72        60.15206
261.18        59.43765
261.63        58.25663
262.09        57.28119
262.55        56.73848
263.00        56.51934
263.46        56.61914
263.91        56.58162
264.37        56.15263
264.83        55.30592
265.28        54.18025
265.74         53.2545
266.19        52.81346
266.65        52.94286
267.11        53.38182
267.56        53.88076
268.02        54.04708
268.47        53.75833
268.93        53.19637
269.38        52.37937
269.84        51.40608
270.30        50.34149
270.75        49.15544
271.21        48.10228
271.66        47.50269
272.12         47.3887
272.57        47.62346
273.03        47.86836
273.48        47.54846
273.94        46.61146
274.39         45.2295
274.85        43.77946
275.31        42.62334
275.76        41.82891
276.22        41.31614
276.67        40.93789
277.13        40.60232
277.58        40.20218
278.04        39.80747
278.49        39.36175
278.95        38.90905
279.40        38.39322
279.86        37.87511
280.31        37.27411
280.77        36.61536
281.22        35.87219
281.68        35.13434
282.13        34.44178
282.59        33.94921
283.04        33.62572
283.50        33.44393
283.95        33.30578
284.41        33.07919
284.86        32.72908
285.32        32.33304
285.77        31.92199
286.22        31.60697
286.68          31.405
287.13        31.23355
287.59        31.08993
288.04        30.92274
288.50          30.739
288.95        30.52822
289.41         30.2781
289.86         29.8929
290.32        29.41559
290.77         28.8687
291.22         28.3679
291.68        28.06785
292.13        27.98632
292.59        28.09139
293.04        28.30378
293.50        28.51839
293.95        28.68562
294.40        28.83311
294.86        28.98397
295.31        29.16635
295.77         29.3964
296.22        29.65025
296.68        29.91341
297.13        30.15413
297.58        30.37365
298.04        30.58238
298.49        30.81256
298.95        31.12995
299.40        31.52979
299.85         31.9884
300.31        32.43853
300.76        32.76597
301.21        32.95572
301.67        33.06302
302.12         33.1338
302.58        33.29611
303.03        33.55171
303.48        33.87511
303.94        34.23793
304.39        34.56591
304.84         34.8457
305.30        35.10309
305.75        35.31088
306.20         35.4817
306.66        35.62652
307.11        35.72438
307.57        35.79063
308.02        35.80555
308.47        35.78196
308.93        35.73418
309.38        35.67146
309.83        35.65206
310.29        35.68531
310.74        35.75568
311.19         35.8143
311.65          35.775
312.10         35.6192
312.55        35.37405
313.00        35.12219
313.46        34.98646
313.91         34.9766
314.36        35.06361
314.82        35.15572
315.27        35.11398
315.72        34.90444
316.18        34.58381
316.63        34.23603
317.08        34.00648
317.53        33.92723
317.99        33.94499
318.44         33.9949
318.89        33.96013
319.35        33.80749
319.80        33.57645
320.25         33.3101
320.70        33.07596
321.16        32.89426
321.61        32.75222
322.06        32.62932
322.51          32.498
322.97        32.34483
323.42        32.18573
323.87        32.03759
324.32         31.9306
324.78        31.85674
325.23        31.81957
325.68        31.76394
326.13        31.61188
326.59        31.34959
327.04        31.01457
327.49        30.67005
327.94        30.41972
328.39        30.28359
328.85        30.21668
329.30        30.19237
329.75        30.10239
330.20        29.91687
330.66        29.66509
331.11        29.39618
331.56        29.16137
332.01        28.98123
332.46        28.83689
332.92        28.70518
333.37        28.59748
333.82        28.49391
334.27        28.39961
334.72        28.31856
335.17        28.25091
335.63        28.19386
336.08        28.16542
336.53         28.1435
336.98        28.10422
337.43         28.0445
337.88        27.96065
338.34         27.8977
338.79        27.96314
339.24        28.15599
339.69        28.43985
340.14        28.70134
340.59        28.75939
341.05        28.58748
341.50        28.24779
341.95        27.86053
342.40        27.60929
342.85        27.54659
343.30        27.61686
343.75        27.76408
344.20        27.89775
344.66        27.97894
345.11        28.02518
345.56        28.03519
346.01        28.00388
346.46        27.94121
346.91        27.85766
347.36        27.75047
347.81        27.62444
348.26         27.4898
348.72        27.34374
349.17        27.24848
349.62        27.31098
350.07        27.53623
350.52         27.8929
350.97         28.2293
351.42        28.30041
351.87        28.06494
352.32        27.60442
352.77        27.11189
353.22        26.87657
353.67        26.95816
354.13        27.26963
354.58        27.64904
355.03        27.82522
355.48        27.72154
355.93        27.42557
356.38        27.07105
356.83        26.85635
357.28        26.82601
357.73        26.90632
358.18        26.99952
358.63        26.95471
359.08         26.7359
359.53        26.40764
359.98        26.04586
360.43        25.75396
360.88        25.55873
361.33        25.42216
361.78        25.31244
362.23        25.18364
362.68        25.02166
363.13         24.8491
363.58        24.67046
364.03        24.48627
364.48        24.30071
364.93        24.11029
365.38        23.93254
365.83        23.80043
366.28        23.71963
366.73        23.67976
367.18        23.65505
367.63        23.60385
368.08         23.5132
368.53        23.39207
368.98        23.25581
369.43        23.12925
369.88        23.02124
370.33        22.92731
370.78        22.83509
371.23        22.72667
371.68        22.59841
372.13        22.45295
372.58        22.31614
373.03        22.22729
373.48          22.188
373.93         22.1828
374.38        22.16057
374.83        22.04151
375.28        21.81484
375.72        21.50815
376.17        21.19739
376.62        20.96784
377.07        20.84363
377.52        20.80136
377.97        20.80529
378.42        20.79829
378.87        20.75876
379.32        20.69586
379.77        20.63241
380.22        20.60113
380.67         20.6046
381.11        20.63705
381.56        20.64031
382.01        20.54388
382.46          20.346
382.91        20.08561
383.36        19.84448
383.81        19.73328
384.26        19.76506
384.71        19.89832
385.15        20.06525
385.60         20.1531
386.05        20.12486
386.50        20.01678
386.95         19.8575
387.40        19.69461
387.85        19.55079
388.29         19.4001
388.74        19.27972
389.19        19.19643
389.64        19.14597
390.09        19.12456
390.54        19.10586
390.98        19.03832
391.43         18.9277
391.88        18.79259
392.33        18.65981
392.78        18.56792
393.23        18.52384
393.67        18.50069
394.12        18.50987
394.57        18.53307
395.02        18.56046
395.47        18.58916
395.91        18.60331
396.36        18.56521
396.81         18.4826
397.26        18.37316
397.71        18.25786
398.15        18.17906
398.60        18.16759
399.05        18.13437
399.50        18.09523
399.95        18.20749
400.39         18.4082
400.84         18.3688
401.29        18.11304
401.74        17.96819
402.18        17.95943
402.63        17.89589
403.08        17.78971
403.53        17.74194
403.97        17.75507
404.42        17.80202
404.87        17.85199
405.32        17.85192
405.76        17.78666
406.21        17.68228
406.66        17.56526
407.11        17.47915
407.55        17.44145
408.00        17.43184
408.45        17.43752
408.90        17.42803
409.34        17.39352
409.79        17.34757
410.24        17.30478
410.68         17.2788
411.13        17.27678
411.58        17.29032
412.03        17.30269
412.47        17.28956
412.92        17.24041
413.37        17.17022
413.81        17.09828
414.26        17.06647
414.71        17.07596
415.15        17.12095
415.60        17.17492
416.05        17.20574
416.49        17.20492
416.94        17.18164
417.39        17.15373
417.83        17.14741
418.28        17.16781
418.73        17.20039
419.17        17.23895
419.62        17.27579
420.07        17.30379
420.51        17.32006
420.96        17.31541
421.41        17.27113
421.85        17.18387
422.30        17.06127
422.74        16.91917
423.19        16.85586
423.64        16.85371
424.08        16.80224
424.53        16.71099
424.98        16.72506
425.42        16.85888
425.87        16.99041
426.31        17.08968
426.76        17.23686
427.21        17.36903
427.65        17.25346
428.10        16.97716
428.54        16.86168
428.99        16.94315
429.44        17.11108
429.88        17.27839
430.33        17.26567
430.77        17.09892
431.22        17.07411
431.66          17.194
432.11        17.20821
432.56        17.12544
433.00        17.14633
433.45        17.20893
433.89        17.10413
434.34        16.95285
434.78        16.65306
435.23        17.12423
435.67          17.237
436.12        17.22057
436.57        17.13613
437.01        17.01617
437.46        16.92524
437.90        16.87266
438.35        16.79301
438.79        16.70935
439.24        16.71253
439.68        16.80678
440.13        16.96782
440.57          17.137
441.02        17.23049
441.46         17.2243
441.91        17.10155
442.35        16.93079
442.80        16.97493
443.24        17.17708
443.69        17.21852
444.13        17.09586
444.58        17.07707
445.02        17.15918
445.47        17.18511
445.91        17.15668
446.36        17.15932
446.80        17.19183
447.24        17.23052
447.69        17.25939
448.13        17.24758
448.58        17.19568
449.02        17.11546
449.47        17.03637
449.91        16.99318
450.36        17.00004
450.80        17.04279
451.25        17.10442
451.69        17.14774
452.13        17.16336
452.58        17.15423
453.02        17.13439
453.47         17.1295
453.91        17.14402
454.36        17.17394
454.80        17.18687
455.24        17.13152
455.69        17.01082
456.13        16.83679
456.58        16.68281
457.02        16.62941
457.46        16.69625
457.91        16.85176
458.35        17.01914
458.79        17.08053
459.24        17.02494
459.68        16.88235
460.13        16.73277
460.57        16.65272
461.01        16.67457
461.46        16.75405
461.90        16.86848
462.34         16.9671
462.79         17.0231
463.23        17.05943
463.68        17.05714
464.12        16.99556
464.56        16.87861
465.01        16.73794
465.45        16.59218
465.89        16.51286
466.34        16.50868
466.78        16.55828
467.22        16.64074
467.67        16.70033
468.11        16.72833
468.55        16.73206
468.99        16.72523
469.44        16.72877
469.88        16.75012
470.32        16.77802
470.77        16.80798
471.21        16.83861
471.65        16.86554
472.10        16.89293
472.54        16.91406
472.98        16.92363
473.42        16.92154
473.87        16.91544
474.31        16.90121
474.75        16.88904
475.20        16.88662
475.64        16.88681
476.08        16.89572
476.52        16.91339
476.97        16.93849
477.41        16.97664
477.85        17.02922
478.29        17.07221
478.74        17.11636
479.18         17.2076
479.62        17.31908
480.06        17.38006
480.50        17.38873
480.95        17.35467
481.39         17.2954
481.83        17.41069
482.27        17.44588
482.72        17.57973
483.16        17.71756
483.60        17.79162
484.04        17.79117
484.48         17.8605
484.93        17.98899
485.37        17.83382
485.81        18.01902
486.25        18.03992
486.69        17.45064
487.14        18.17509
487.58        19.37914
488.02        19.13085
488.46        18.40367
488.90        18.46798
489.34         18.6934
489.79        19.02516
490.23        19.00654
490.67        19.09899
491.11        19.25065
491.55        19.27055
491.99        19.21409
492.43        19.25027
492.88        19.39997
493.32        19.58356
493.76        19.76903
494.20         19.9469
494.64         20.1102
495.08        20.22278
495.52         20.2934
495.96        20.46859
496.41        20.70961
496.85        20.69941
497.29        20.49382
497.73        20.65905
498.17        20.89714
498.61        21.07063
499.05        21.07017
499.49        21.11368
499.93        21.16434
500.37        21.32746
500.82        21.55793
501.26        21.72462
501.70        21.80948
502.14        21.89414
502.58        21.99787
503.02        22.10737
503.46        22.22504
503.90        22.35459
504.34        22.46936
504.78        22.52456
505.22        22.51601
505.66        22.46326
506.10        22.40697
506.54         22.4113
506.98        22.49143
507.42        22.62496
507.86        22.78717
508.30        22.93606
508.74        23.05329
509.18           23.15
509.62        23.21855
510.06         23.2484
510.50        23.24306
510.94        23.20441
511.38        23.16149
511.82        23.16243
512.26        23.21919
512.70         23.3232
513.14        23.44424
513.58        23.53003
514.02        23.56618
514.46        23.56409
514.90         23.5522
515.34        23.57781
515.78        23.64867
516.22        23.74544
516.66         23.8321
517.10        23.85309
517.54        23.79821
517.98         23.6911
518.42        23.56651
518.86         23.4782
519.30        23.44331
519.74        23.44588
520.18        23.47278
520.62        23.50224
521.06        23.52479
521.50        23.54799
521.93        23.56766
522.37        23.56716
522.81        23.54783
523.25        23.50959
523.69        23.46457
524.13         23.4348
524.57        23.42305
525.01        23.42028
525.45        23.41417
525.89        23.38449
526.32        23.32352
526.76        23.24552
527.20        23.15337
527.64        23.05296
528.08        22.95077
528.52        22.84815
528.96        22.75681
529.40        22.69429
529.83        22.66203
530.27        22.65544
530.71        22.65928
531.15        22.65062
531.59        22.62228
532.03        22.57874
532.46        22.52159
532.90        22.47074
533.34        22.42724
533.78        22.37401
534.22        22.31297
534.66        22.27466
535.09         22.2444
535.53        22.17245
535.97        22.06858
536.41        22.00506
536.85        21.98803
537.28        21.97754
537.72        21.97984
538.16        22.02038
538.60        22.09641
539.04        22.19979
539.47        22.29931
539.91        22.36195
540.35         22.3781
540.79        22.36053
541.22        22.34136
541.66        22.38039
542.10         22.4866
542.54        22.64085
542.97        22.80863
543.41        22.94506
543.85        23.03564
544.29        23.10051
544.72        23.15491
545.16        23.23723
545.60        23.35464
546.04         23.4992
546.47         23.6708
546.91        23.86523
547.35        24.07203
547.79        24.28821
548.22        24.49956
548.66        24.67931
549.10        24.85176
549.53        25.01267
549.97        25.16318
550.41        25.24966
550.84        25.30291
551.28        25.39529
551.72        25.52387
552.15        25.70319
552.59        25.96436
553.03        25.92019
553.46        26.32565
553.90        26.46508
554.34        26.55838
554.77         26.6157
555.21        26.67429
555.65        26.77184
556.08        26.90616
556.52        27.05015
556.96        27.17199
557.39         27.2975
557.83        27.39884
558.27        27.33465
558.70        27.16338
559.14        27.14035
559.57        27.26823
560.01        27.39368
560.45        27.49095
560.88        27.60703
561.32        27.74528
561.75        27.86365
562.19        27.96618
562.63         28.0534
563.06        28.12153
563.50        28.17371
563.93        28.19926
564.37        28.25632
564.80        28.36066
565.24          28.431
565.68        28.40393
566.11        28.79733
566.55          28.576
566.98        28.60693
567.42        28.64122
567.85        28.74622
568.29        28.93827
568.72        29.19657
569.16        29.50702
569.60        29.76065
570.03        29.92557
570.47        30.09947
570.90        30.28383
571.34        30.31428
571.77         30.3191
572.21        30.83043
572.64        30.53276
573.08        31.02654
573.51        30.96299
573.95         31.0986
574.38         31.2402
574.82        31.40159
575.25        31.49103
575.69        31.62432
576.12        31.78017
576.56        31.52051
576.99        31.36449
577.42        31.34933
577.86        31.68307
578.29        31.69538
578.73        31.67171
579.16        31.67007
579.60        31.44264
580.03        31.52101
580.47        31.36582
580.90        31.43628
581.33        31.43324
581.77        31.37403
582.20        30.56274
582.64        31.12679
583.07        31.04844
583.51        30.88733
583.94        30.67077
584.37        30.54011
584.81        30.30622
585.24        30.11929
585.68          29.924
586.11        29.99876
586.54        29.96573
586.98        29.89353
587.41        29.71482
587.85        29.56681
588.28        29.49538
588.71        29.51316
589.15        29.32219
589.58        29.38672
590.01        29.47856
590.45        29.34116
590.88          29.509
591.31        29.43114
591.75        29.34833
592.18        29.18421
592.61         28.9645
593.05        29.57207
593.48        29.56223
593.91        29.68995
594.35        29.70257
594.78        29.68246
595.21         29.7283
595.65        29.99634
596.08        30.49749
596.51        30.67928
596.94         30.5553
597.38        30.61194
597.81        30.84659
598.24        31.34748
598.68        31.34015
599.11        31.64382
599.54        32.04059
599.97          32.061
600.41        32.45646
600.84        32.50385
601.27        32.91299
601.70        33.27533
602.14        33.65658
602.57        33.97516
603.00        34.33336
603.43        34.29581
603.87        35.18276
604.30        35.73615
604.73        36.19339
605.16        36.21229
605.60        36.49704
606.03        36.57003
606.46        36.66273
606.89        37.37603
607.32        38.04736
607.76        38.42863
608.19        38.82462
608.62        38.98539
609.05         39.1935
609.48        39.55729
609.92        40.54548
610.35        40.72867
610.78         40.2415
611.21         40.6684
611.64        40.92357
612.07        41.41242
612.50        41.53016
612.94        41.79789
613.37        42.05632
613.80        42.09192
614.23        41.98431
614.66        42.20975
615.09        42.76146
615.52        43.08609
615.96        43.11806
616.39        43.55721
616.82        43.93486
617.25        43.86639
617.68        44.14881
618.11        44.42844
618.54        44.78457
618.97        44.98132
619.40        44.96816
619.84        45.07201
620.27        44.93514
620.70        45.11522
621.13        45.41172
621.56        45.36153
621.99        45.01516
622.42        44.93424
622.85        45.17808
623.28        45.17356
623.71        45.35468
624.14        45.36562
624.57        45.74973
625.00        45.43579
625.43        45.65157
625.86         45.5803
626.29        45.60892
626.72        45.09354
627.15        45.26675
627.58        45.08809
628.01        44.87265
628.44        44.75872
628.87        44.43888
629.30        44.15236
629.73        43.83431
630.16         43.6495
630.59        43.46616
631.02        43.37229
631.45        43.27619
631.88         43.0906
632.31         42.7901
632.74        42.39737
633.17        41.95673
633.60        41.54079
634.03        41.17303
634.46        40.83041
634.89        40.48492
635.32        40.10016
635.75        39.67163
636.18        39.18007
636.61        38.67136
637.04        38.23555
637.47        37.88666
637.89        37.59084
638.32        37.31034
638.75        37.02313
639.18        36.72078
639.61         36.4177
640.04          36.123
640.47        35.84586
640.90           35.59
641.33        35.35173
641.76         35.1381
642.18         34.9684
642.61        34.83708
643.04        34.74593
643.47        34.68711
643.90        34.64513
644.33        34.61503
644.76        34.60295
645.18        34.61087
645.61        34.63279
646.04        34.67541
646.47        34.74285
646.90        34.84895
647.33        35.00738
647.75        35.20503
648.18        35.47316
648.61        35.81197
649.04        36.07529
649.47        36.22148
649.89         36.8564
650.32        36.99956
650.75         37.3101
651.18        37.54235
651.61        37.97131
652.03        38.56924
652.46        39.04061
652.89        39.40854
653.32        39.85242
653.74        40.31049
654.17        40.84145
654.60        41.37844
655.03        41.55426
655.46        40.64863
655.88        41.78625
656.31        42.80908
656.74        41.30625
657.16        45.79367
657.59        50.97749
658.02        46.39821
658.45        45.35419
658.87        45.11023
659.30        45.24222
659.73         45.4783
660.15         46.6048
660.58        46.16633
661.01        46.38297
661.44        46.64501
661.86        46.69132
662.29        46.55695
662.72         47.1357
663.14        47.45995
663.57        47.60297
664.00        47.39539
664.42        47.52412
664.85         48.0205
665.27        48.51826
665.70        48.88158
666.13        49.10196
666.55        49.15389
666.98        48.99733
667.41        48.72485
667.83        48.80595
668.26        48.77578
668.69        48.99617
669.11        49.28107
669.54        49.55554
669.96        49.78672
670.39        50.04028
670.82        50.28334
671.24        50.33673
671.67        50.24446
672.09         50.2329
672.52         50.3381
672.94        50.42123
673.37        50.48169
673.80         50.5668
674.22        50.67894
674.65        50.78446
675.07        50.88767
675.50        50.96827
675.92        51.03177
676.35        51.09503
676.77        51.16422
677.20        51.22819
677.62            51.3
678.05        51.40282
678.47        51.53698
678.90        51.69961
679.32        51.86457
679.75        51.99977
680.17        52.09056
680.60        52.14531
681.02        52.18839
681.45        52.24703
681.87        52.33907
682.30        52.47575
682.72        52.63597
683.15        52.69454
683.57        52.67989
684.00        52.72543
684.42        52.85732
684.85        53.02286
685.27          53.237
685.70        53.48389
686.12        53.67169
686.54        53.87553
686.97        54.12254
687.39        53.50707
687.82        53.69478
688.24        53.58779
688.66        53.66859
689.09        53.73209
689.51        53.78295
689.94        53.88632
690.36        54.01986
690.78          54.125
691.21         54.2164
691.63        54.34324
692.06        54.51364
692.48        54.72687
692.90        54.91858
693.33        54.99068
693.75        54.92318
694.17        54.72123
694.60        54.53883
695.02        54.57824
695.44        54.85488
695.87        55.45726
696.29        56.14768
696.71        56.05471
697.14        55.33837
697.56        55.18348
697.98        55.62324
698.41        55.78648
698.83        55.66585
699.25        55.84927
699.68        56.24522
700.10        56.41939
700.52        56.30085
700.94        56.18081
701.37        55.90642
701.79        55.91106
702.21        56.15171
702.64        56.54594
703.06        56.97113
703.48        57.22638
703.90        57.25877
704.33        57.13239
704.75         56.9397
705.17        56.82125
705.59        56.83001
706.01        56.92254
706.44        57.07463
706.86        57.27168
707.28        57.48425
707.70        57.69341
708.12        57.89161
708.55        58.11271
708.97        58.32107
709.39        58.36689
709.81        58.27802
710.23        58.25815
710.66        58.32837
711.08        58.39841
711.50        58.42939
711.92        58.41899
712.34        58.36759
712.76        58.29466
713.19        58.22335
713.61        58.22216
714.03        58.29538
714.45        58.42675
714.87        58.61497
715.29        58.86058
715.71        59.14648
716.13        59.45321
716.56        59.71749
716.98        59.91436
717.40        59.99095
717.82        59.96157
718.24        59.83772
718.66        59.63309
719.08        59.38446
719.50        59.14978
719.92        58.97946
720.34        58.88113
720.76        58.89689
721.19        59.11848
721.61        59.53125
722.03        59.93452
722.45        60.26942
722.87        60.60998
723.29        60.86782
723.71        60.86995
724.13        60.60799
724.55        60.14802
724.97        59.63742
725.39        59.32288
725.81        59.27821
726.23        59.42391
726.65        59.67992
727.07        60.04106
727.49        60.23688
727.91        60.46898
728.33        60.67912
728.75        60.87569
729.17         61.0533
729.59        61.21006
730.01        61.32219
730.43        61.32526
730.85        61.24762
731.27        61.18011
731.69        61.14642
732.10        61.16005
732.52        61.18906
732.94        61.12709
733.36        61.01483
733.78         60.9222
734.20        60.86139
734.62        60.97872
735.04        61.30847
735.46        60.88499
735.88        61.51586
736.30        61.43087
736.72         61.5151
737.13         61.8613
737.55        62.36983
737.97        62.62782
738.39        62.52008
738.81         61.8546
739.23        60.94936
739.65        61.02123
740.06        61.90178
740.48        62.25928
740.90        62.01189
741.32        61.97674
741.74        62.21056
742.16        62.36483
742.57        62.43167
742.99        62.49274
743.41         62.5242
743.83        62.46731
744.25        62.32878
744.67        62.12333
745.08        61.93303
745.50        61.87391
745.92        61.96812
746.34        62.16021
746.75        62.38988
747.17        62.49823
747.59        62.44744
748.01        62.43428
748.42         62.4348
748.84        62.08628
749.26        61.57776
749.68        61.62072
750.09         62.1437
750.51        62.50811
750.93        62.57994
751.35         62.4658
751.76          62.229
752.18        62.08085
752.60        62.03622
753.01        61.96571
753.43        61.87175
753.85        61.78711
754.27        61.70393
754.68        62.01791
755.10        61.97702
755.52        62.11514
755.93         62.1922
756.35        62.22536
756.77        62.28669
757.18        62.37852
757.60        62.53267
758.02        62.91008
758.43        63.36668
758.85        62.81934
759.26        63.50982
759.68        62.25851
760.10        61.87434
760.51        62.72803
760.93        62.92915
761.34        62.77559
761.76          63.131
762.18        63.15202
762.59        63.35041
763.01        63.35987
763.42         63.2409
763.84        63.55061
764.26        63.44044
764.67        63.37361
765.09        63.17654
765.50        63.07402
765.92        63.09455
766.33        62.98238
766.75        62.86531
767.16        62.74967
767.58        62.68017
768.00         62.6767
768.41        62.79636
768.83        63.01635
769.24        63.25425
769.66        63.56241
770.07        63.81405
770.49        63.47649
770.90        62.80091
771.32        63.00986
771.73         63.9659
772.15        64.26935
772.56        63.85783
772.97        63.49981
773.39        63.35016
773.80        63.33659
774.22        63.46722
774.63        63.74675
775.05        64.04023
775.46        64.24983
775.88        64.30074
776.29        64.22133
776.70        64.07436
777.12         64.0088
777.53        64.06921
777.95        64.16615
778.36        64.27792
778.77        64.33586
779.19        64.33882
779.60        64.33814
780.02        64.30158
780.43         64.2573
780.84        64.23806
781.26        63.94526
781.67        63.56382
782.09        64.03919
782.50        65.09123
782.91        65.14072
783.33        64.26624
783.74        63.96951
784.15        64.31004
784.57        64.43678
784.98        64.34858
785.39        64.35648
785.81        64.50438
786.22         64.8865
786.63        65.36905
787.04         65.5621
787.46        65.42841
787.87        65.12871
788.28        64.83302
788.70        64.68919
789.11        64.72251
789.52        65.02564
789.93         65.4389
790.35        65.43462
790.76        65.08143
791.17        65.00097
791.58        65.23803
792.00        65.33466
792.41        65.25084
792.82        65.30225
793.23        65.39514
793.65        65.00815
794.06        64.41399
794.47        64.51107
794.88        65.08607
795.29        65.94479
795.71        65.33102
796.12        65.28579
796.53        65.38564
796.94        65.43026
797.35        65.44061
797.76        65.59807
798.18        65.85374
798.59        66.02087
799.00        66.05766
799.41        66.04281
799.82        66.01919
800.23        66.03779
800.64        66.10976
801.06        66.18139
801.47         66.2561
801.88        66.25261
802.29        66.15382
802.70        65.99387
803.11        65.79563
803.52        65.59323
803.93        65.42509
804.34        65.29295
804.75        65.24233
805.17        65.39173
805.58        65.78418
805.99        66.16537
806.40        66.46928
806.81        67.04897
807.22        67.63605
807.63        67.20858
808.04        66.01535
808.45        65.39906
808.86        65.51328
809.27        65.68996
809.68        65.79404
810.09        65.89288
810.50        65.93146
810.91        65.89526
811.32        65.88578
811.73         66.0606
812.14        66.43839
812.55        66.95599
812.96        67.44289
813.37        67.59074
813.78        67.32536
814.19        66.77748
814.60        66.13391
815.01        65.63989
815.42        65.35855
815.83        65.21843
816.24        65.20436
816.65        65.28194
817.05        65.42641
817.46        65.63443
817.87        65.84809
818.28        65.92215
818.69        65.83851
819.10        65.61705
819.51         65.3956
819.92        65.44273
820.33        65.81403
820.74        66.38947
821.14        67.00292
821.55        67.43152
821.96        67.57961
822.37        67.42686
822.78        67.07129
823.19        66.78188
823.60        66.63585
824.00        66.54162
824.41        66.46793
824.82        66.50066
825.23        66.62781
825.64         66.8416
826.04        67.06612
826.45         67.1255
826.86        66.99767
827.27        66.73571
827.68        66.41483
828.08        66.19733
828.49        66.08871
828.90        66.06064
829.31        66.12472
829.72        66.29729
830.12        66.58372
830.53        66.93249
830.94        67.23728
831.35        67.26618
831.75        66.99451
832.16        66.47329
832.57        65.91305
832.97        65.63409
833.38        65.71445
833.79        66.03454
834.20         66.4798
834.60        66.86314
835.01        67.11723
835.42         67.3391
835.82        67.49287
836.23        67.43969
836.64        67.20749
837.04        66.79802
837.45        66.44727
837.86        66.60564
838.26        67.36654
838.67        68.56145
839.08        69.77525
839.48        70.21371
839.89        69.66688
840.29        68.41432
840.70        67.03832
841.11        66.20343
841.51        66.08858
841.92        66.47631
842.33        67.14977
842.73        67.72478
843.14        67.95138
843.54        68.00432
843.95        67.97189
844.35        68.04111
844.76        68.23775
845.17        68.46835
845.57        68.65362
845.98        68.65733
846.38        68.47539
846.79        68.17044
847.19        67.82765
847.60        67.55032
848.00        67.39251
848.41        67.29979
848.81         67.3053
849.22        67.38189
849.62        67.54343
850.03        67.77428
850.43         68.0105
850.84        68.07957
851.24        67.98978
851.65        67.72105
852.05        67.45595
852.46        67.41729
852.86        67.65977
853.27        68.09546
853.67        68.50459
854.07        68.69644
854.48        68.60175
854.88        68.31047
855.29        67.86909
855.69        67.49099
856.10        67.19859
856.50        67.02768
856.90        66.92242
857.31        66.80953
857.71        66.71994
858.12         66.6076
858.52        66.58173
858.92        66.70541
859.33        66.95348
859.73         67.3294
860.13        67.62529
860.54        67.52618
860.94        67.02448
861.34        66.21935
861.75        65.37133
862.15        64.95064
862.55        65.06157
862.96        65.53537
863.36        66.22959
863.76         66.8043
864.17        67.10627
864.57        67.25072
864.97        67.18998
865.38        66.86343
865.78        66.33009
866.18        65.59866
866.58        64.86593
866.99        64.50169
867.39        64.62637
867.79        65.13221
868.19        65.83322
868.60        66.40115
869.00          66.765
869.40        66.99162
869.80         67.0943
870.21        67.10962
870.61        67.11742
871.01        67.02753
871.41        66.86957
871.81        66.70187
872.22        66.53025
872.62        66.36391
873.02         66.1889
873.42        65.95724
873.82        65.67082
874.22        65.35306
874.63        65.05479
875.03        64.87319
875.43         64.8103
875.83        64.83553
876.23        64.89101
876.63        64.88809
877.03        64.80697
877.44        64.64823
877.84        64.46511
878.24        64.37299
878.64        64.35585
879.04        64.22934
879.44        64.06178
879.84        64.07832
880.24        64.26887
880.64        64.52985
881.04        64.68043
881.44        64.45315
881.84        63.81872
882.24        62.90279
882.65        61.96748
883.05        61.40966
883.45        61.34177
883.85        61.65661
884.25        62.21632
884.65         62.7691
885.05        63.19416
885.45        63.53273
885.85        63.78092
886.25        63.94347
886.65        64.03334
887.05        64.03353
887.45        63.94498
887.85        63.79703
888.25        63.60823
888.65        63.38109
889.04         63.1773
889.44        63.10509
889.84        63.16771
890.24        63.35474
890.64        63.54319
891.04        63.52607
891.44        63.27581
891.84        62.86874
892.24        62.48485
892.64        62.39281
893.04        62.64806
893.44        63.17103
893.83        63.81672
894.23        64.28934
894.63        64.51521
895.03        64.54727
895.43        64.50216
895.83        64.58615
896.23        64.82912
896.63        65.12602
897.02        65.32366
897.42        65.21586
897.82        64.76883
898.22        64.11874
898.62        63.37737
899.01        62.68209
899.41        62.12297
899.81        61.66441
900.21        61.39269
900.61        61.44495
901.00        61.81042
901.40        62.41824
901.80        63.07446
902.20        63.46027
902.59        63.49799
902.99        63.26419
903.39        62.86512
903.79         62.4938
904.18        62.22252
904.58        62.00032
904.98        61.88761
905.38        61.98041
905.77        62.28036
906.17         62.8017
906.57        63.34344
906.96        63.55592
907.36        63.35671
907.76          62.846
908.15        62.35543
908.55        62.40397
908.95        63.09706
909.34        64.26481
909.74        65.48199
910.14         66.1328
910.53        66.01534
910.93        65.34444
911.33        64.38644
911.72        63.54277
912.12        63.02287
912.52        62.72952
912.91        62.58912
913.31        62.50676
913.70        62.44651
914.10        62.41596
914.49         62.5401
914.89        62.92316
915.29         63.5751
915.68        64.44296
916.08         65.1847
916.47        65.32225
916.87        64.78728
917.26        63.71354
917.66        62.60969
918.05         62.0998
918.45        62.31938
918.84        63.14703
919.24        64.13618
919.64        64.61773
920.03        64.41695
920.42        63.71051
920.82        62.96831
921.21        62.86669
921.61        63.53015
922.00         64.7527
922.40         66.0574
922.79        66.74359
923.19        66.57069
923.58        65.83076
923.98        64.86981
924.37        64.12113
924.77        63.74026
925.16        63.53726
925.55        63.52623
925.95        63.71903
926.34        64.07854
926.74        64.60652
927.13        65.03989
927.52        64.87548
927.92        64.10276
928.31        62.87247
928.70        61.62991
929.10        61.04144
929.49        61.24359
929.89        61.99718
930.28        63.07415
930.67         63.9519
931.07        64.39833
931.46        64.62366
931.85        64.58446
932.24        64.26738
932.64        63.77753
933.03        63.08389
933.42        62.49105
933.82         62.4509
934.21        63.02729
934.60        64.13156
934.99        65.40741
935.39        66.18102
935.78        66.28578
936.17        65.82241
936.56        65.07699
936.96        64.51012
937.35        64.26078
937.74        64.19646
938.13        64.15455
938.53        63.91117
938.92        63.42865
939.31        62.83917
939.70        62.28251
940.09        61.91758
940.49         61.7569
940.88        61.76704
941.27        61.91176
941.66        62.12305
942.05        62.35976
942.44        62.64175
942.84        62.93221
943.23        63.16027
943.62        63.31661
944.01        63.38435
944.40        63.42358
944.79        63.55921
945.18         63.7947
945.57        64.06664
945.97        64.22624
946.36        64.12786
946.75        63.71043
947.14        63.10606
947.53        62.42344
947.92        61.79012
948.31        61.27932
948.70         60.8753
949.09        60.68986
949.48        60.91035
949.87        61.53803
950.26        62.47621
950.65        63.50356
951.04        64.24872
951.43        64.58013
951.82        64.58185
952.21         64.3055
952.60        63.86807
952.99        63.37297
953.38        62.82409
953.77        62.37777
954.16        62.28133
954.55        62.55946
954.94        63.12262
955.33        63.80785
955.72        64.29514
956.11        64.45574
956.50        64.38513
956.89        64.02451
957.28        63.31495
957.66        62.32786
958.05        61.15233
958.44         60.1366
958.83        59.77666
959.22        60.13342
959.61        61.08186
960.00        62.22705
960.39        62.80951
960.78        62.58523
961.16        61.75608
961.55        60.73838
961.94        60.07884
962.33        59.93025
962.72        60.16792
963.11        60.58322
963.49        60.81139
963.88        60.67611
964.27        60.32998
964.66        60.08279
965.04        60.40986
965.43         61.3392
965.82        62.74118
966.21        64.15684
966.60        64.70396
966.98        64.09436
967.37        62.69343
967.76        61.08289
968.15        59.98412
968.53        59.56412
968.92         59.6454
969.31        59.97236
969.69        60.06625
970.08        59.72128
970.47        59.14128
970.86        58.68118
971.24        58.82471
971.63        59.65052
972.02        60.99756
972.40        62.45491
972.79         62.9897
973.17        62.37887
973.56        60.98688
973.95        59.42804
974.33        58.49138
974.72        58.34758
975.11        58.72798
975.49        59.42671
975.88        59.98082
976.26        60.23195
976.65         60.2997
977.04        60.16915
977.42        59.76919
977.81        59.10917
978.19         58.1829
978.58        57.35408
978.96        57.18695
979.35         57.7724
979.74        58.98661
980.12        60.45093
980.51        61.23095
980.89        61.18181
981.28        60.55025
981.66        59.77583
982.05        59.47012
982.43        59.81284
982.82        60.59398
983.20         61.7575
983.59        63.09195
983.97        64.49837
984.35        65.96978
984.74        67.17633
985.12        67.81168
985.51        67.73565
985.89        67.04567
986.28        66.09762
986.66        65.37701
987.04        65.08152
987.43          65.063
987.81        65.21241
988.20        65.18638
988.58        64.90764
988.96        64.44624
989.35        63.89392
989.73        63.34372
990.12        62.81225
990.50        62.30357
990.88        61.72633
991.27        60.99241
991.65        60.14558
992.03        59.25542
992.42        58.60807
992.80        58.54366
993.18        59.13515
993.56        60.33484
993.95        61.68605
994.33        62.49416
994.71        62.41499
995.10        61.67473
995.48        60.82507
995.86        60.82156
996.24        61.85034
996.63        63.51675
997.01        65.35675
997.39        66.08167
997.77         65.2568
998.15         63.4729
998.54        61.24759
998.92        59.17664
999.30        57.61178
999.68        56.39164
1000.06        55.90291
1000.45         56.6779
1000.83        58.82291
1001.21        62.31661
1001.59        66.37997
1001.97        68.97612
1002.35        69.28176
1002.73        67.83257
1003.12        65.79222
1003.50        64.67574
1003.88        64.96175
1004.26        66.07767
1004.64        67.83678
1005.02        69.74104
1005.40        71.35688
1005.78        72.97456
1006.16        73.80631
1006.54         72.5864
1006.92        69.41172
1007.30        64.81411
1007.69        60.48254
1008.07        58.67965
1008.45        60.02573
1008.83        64.04407
1009.21        69.47892
1009.59        73.07949
1009.97        73.21622
1010.35         70.7774
1010.73        66.96265
1011.11        63.55345
1011.49        61.23791
1011.86        59.57354
1012.24        58.57264
1012.62        58.26623
1013.00        58.57085
1013.38        59.56028
1013.76        61.16687
1014.14        62.90706
1014.52        64.33385
1014.90         65.3092
1015.28        65.56285
1015.66        64.90177
1016.04        63.41122
1016.41        61.20369
1016.79        58.73669
1017.17        56.99763
1017.55        56.35289
1017.93        56.56633
1018.31        57.35112
1018.69        58.23911
1019.06        59.09029
1019.44        60.11524
1019.82        61.06298
1020.20        61.34923
1020.58        60.76313
1020.95        59.29054
1021.33         57.8129
1021.71        57.30486
1022.09        57.91986
1022.46        59.73298
1022.84        61.78956
1023.22        61.81241
1023.60        59.18784
1023.97        54.69115
1024.35        50.84585
1024.73        50.47594
