SpectraSmart Spectrum 2.9.0.0
--------- Device Information -----------
Spectrum Name :  反射率_0
Saving Time :  2024/04/26 21:25:01
Spectro-Module Model Name : SE2030-DUVN
Spectro-Module Serial Number : OS361AC55029948
Wavelength Start : 200
Wavelength End : 1025
Wavelength Unit : Wavelength(nm)
Spectrum Unit : Reflectance(%)
-----------Spectrum Setting ------------
Integration Time : 20ms
Average : 10
Boxcar : 0
Background removal :  enabled
linearity correction :  enabled
SC :  disabled
Intensity correction :  disabled
DWT denoise :  enabled
savitzky-golay :  disabled
FFT :  disabled
Running average :  disabled
Kalman :  disabled
High pass :  disabled
---------------BEGIN--------------------
Wavelength(nm)             Reflectance(%)
200.29               0
200.75        41.43967
201.21        38.63052
201.67        36.39716
202.13        35.87435
202.58        37.11856
203.04        40.32733
203.50        45.55142
203.96        51.48476
204.42         56.5639
204.88        60.27868
205.34        62.15429
205.80        62.46141
206.26        61.56387
206.72        59.48288
207.18        56.77992
207.64        53.58852
208.10        49.61251
208.55        44.48319
209.01        38.31293
209.47        35.81648
209.93        39.25772
210.39        45.37414
210.85        50.87704
211.31        55.21362
211.77         59.8716
212.23        67.41418
212.69        85.39243
213.14         122.932
213.60        133.4315
214.06        116.2972
214.52        100.1813
214.98        89.26355
215.44        80.10148
215.90        70.14877
216.36        60.93936
216.81        55.48432
217.27        55.12033
217.73        60.56524
218.19        70.83686
218.65        76.58157
219.11        73.42576
219.57        66.79172
220.02        63.07845
220.48        66.88194
220.94        78.52975
221.40        99.50784
221.86        129.5204
222.32        150.0214
222.77        143.9481
223.23        123.6713
223.69        102.9235
224.15         89.4295
224.61        82.30843
225.06        78.17738
225.52        76.52959
225.98        76.63103
226.44        77.97118
226.90        80.61597
227.36        83.75348
227.81        85.67949
228.27        86.11086
228.73        85.37434
229.19        84.32172
229.65        84.05302
230.10        84.67654
230.56        85.92772
231.02        87.23162
231.48        87.74914
231.93         87.2606
232.39        86.44659
232.85         85.7324
233.31        85.78382
233.77        86.62036
234.22        87.93841
234.68        89.34987
235.14        90.35958
235.60        90.76363
236.05         90.7795
236.51        90.17577
236.97        88.79585
237.43         86.7295
237.88        84.17398
238.34        81.62136
238.80        80.10078
239.26        79.97464
239.71        81.70261
240.17        84.76767
240.63        88.13893
241.08        91.12423
241.54        93.04803
242.00        95.07771
242.46        100.0092
242.91        110.4397
243.37        127.7819
243.83        152.1496
244.28        171.6788
244.74        168.8253
245.20        143.7301
245.66        114.8334
246.11        97.59997
246.57        92.13923
247.03        94.38678
247.48        97.12047
247.94        89.67106
248.40        74.99685
248.85        60.09328
249.31        50.15524
249.77        47.95638
250.22        52.64169
250.68        63.43633
251.14         78.5498
251.59        88.95702
252.05        88.93575
252.51        82.72327
252.96        74.31174
253.42        68.21874
253.88        64.97234
254.33          62.485
254.79        62.59018
255.25        66.75977
255.70        74.21394
256.16        84.34731
256.62        92.60549
257.07        92.15577
257.53        85.28383
257.99        76.50466
258.44        69.62708
258.90        67.92684
259.35        69.88267
259.81        73.98897
260.27        78.07139
260.72        79.46635
261.18        78.38194
261.63         75.8076
262.09        73.41451
262.55        72.29481
263.00        72.32581
263.46        73.09695
263.91         73.7244
264.37        73.55553
264.83        72.47647
265.28         70.8214
265.74        69.28815
266.19        68.31034
266.65        68.04144
267.11         68.1591
267.56        68.33742
268.02        68.09309
268.47        67.30853
268.93        66.23294
269.38        65.02946
269.84        64.01767
270.30         63.2625
270.75        62.61399
271.21        62.12514
271.66        61.80273
272.12        61.60984
272.57        61.50425
273.03        61.25547
273.48        60.46254
273.94        59.16523
274.39        57.47565
274.85        55.81395
275.31        54.56915
275.76         53.7745
276.22         53.3409
276.67        53.01392
277.13        52.57795
277.58        51.88603
278.04        51.06475
278.49         50.1111
278.95         49.1828
279.40        48.25769
279.86        47.40414
280.31        46.52068
280.77        45.63143
281.22        44.69123
281.68        43.80291
282.13        43.01373
282.59        42.51384
283.04        42.25063
283.50        42.18455
283.95        42.13468
284.41        41.85522
284.86        41.29013
285.32        40.56113
285.77        39.80079
286.22         39.2793
286.68          39.038
287.13        38.94322
287.59        38.89094
288.04        38.65984
288.50        38.23941
288.95        37.67909
289.41        37.08621
289.86        36.52287
290.32        36.06159
290.77        35.64837
291.22        35.30873
291.68        35.06309
292.13        34.89219
292.59        34.81742
293.04         34.7998
293.50        34.80194
293.95        34.80113
294.40        34.80379
294.86        34.84464
295.31        34.96925
295.77        35.19217
296.22        35.48747
296.68        35.80657
297.13        36.05383
297.58        36.22097
298.04        36.33773
298.49        36.47147
298.95        36.75034
299.40        37.18173
299.85        37.71689
300.31        38.26718
300.76        38.68218
301.21        38.93244
301.67        39.08226
302.12        39.16569
302.58        39.30254
303.03        39.49236
303.48        39.71509
303.94         39.9665
304.39        40.20105
304.84         40.4181
305.30        40.64433
305.75        40.83337
306.20        40.97158
306.66        41.06989
307.11        41.11556
307.57        41.15483
308.02        41.20515
308.47        41.28331
308.93        41.38457
309.38        41.47727
309.83        41.56788
310.29        41.65053
310.74        41.71885
311.19        41.74686
311.65        41.68685
312.10        41.52943
312.55        41.29023
313.00         41.0309
313.46        40.84297
313.91        40.72944
314.36        40.67477
314.82        40.61592
315.27        40.46142
315.72         40.1894
316.18        39.84631
316.63        39.48193
317.08        39.18917
317.53        38.98969
317.99        38.84645
318.44         38.7307
318.89        38.58495
319.35        38.38707
319.80        38.15051
320.25        37.88404
320.70        37.60128
321.16        37.30716
321.61         37.0132
322.06        36.70697
322.51         36.3755
322.97        36.01868
323.42        35.64796
323.87         35.3147
324.32        35.10374
324.78         35.0129
325.23        35.03784
325.68        35.05961
326.13         34.8877
326.59        34.48188
327.04        33.91164
327.49        33.31715
327.94        32.92415
328.39        32.78031
328.85        32.80436
329.30        32.90724
329.75        32.86134
330.20        32.60083
330.66         32.1951
331.11        31.75008
331.56        31.40536
332.01        31.20534
332.46        31.09453
332.92        31.02378
333.37        30.96432
333.82        30.87716
334.27        30.79114
334.72        30.68932
335.17         30.5354
335.63        30.32708
336.08        30.08438
336.53         29.8604
336.98        29.76067
337.43         29.8039
337.88        29.95114
338.34        30.12757
338.79        30.23478
339.24        30.22112
339.69        30.11749
340.14        29.93782
340.59        29.71136
341.05        29.47245
341.50        29.21659
341.95        28.98879
342.40        28.85575
342.85        28.83058
343.30        28.89801
343.75        29.01537
344.20        29.10839
344.66        29.15251
345.11         29.1558
345.56        29.13165
346.01        29.10784
346.46        29.09486
346.91        29.08555
347.36        29.06674
347.81        29.02219
348.26        28.95258
348.72        28.86797
349.17        28.79346
349.62        28.78127
350.07        28.83341
350.52        28.92606
350.97        29.00528
351.42         28.9849
351.87        28.84916
352.32        28.63607
352.77        28.38925
353.22         28.1689
353.67        27.99723
354.13        27.85851
354.58        27.76049
355.03        27.71991
355.48        27.72746
355.93        27.76821
356.38        27.80788
356.83        27.79251
357.28        27.70582
357.73        27.56088
358.18        27.35786
358.63        27.10636
359.08        26.82543
359.53        26.52128
359.98        26.23757
360.43        26.03461
360.88        25.91744
361.33        25.86779
361.78        25.83395
362.23        25.73081
362.68        25.53828
363.13        25.28243
363.58         25.0017
364.03        24.75589
364.48        24.56273
364.93        24.40498
365.38        24.26741
365.83        24.12729
366.28        23.97833
366.73        23.83035
367.18        23.69307
367.63        23.57791
368.08        23.48457
368.53        23.40479
368.98        23.32145
369.43        23.21004
369.88        23.06403
370.33        22.88877
370.78        22.70265
371.23        22.53787
371.68        22.40587
372.13        22.30255
372.58        22.21014
373.03        22.09776
373.48        21.95819
373.93        21.79876
374.38        21.64424
374.83        21.53568
375.28        21.47591
375.72        21.43904
376.17         21.4018
376.62        21.30226
377.07        21.13419
377.52        20.92796
377.97        20.71087
378.42        20.53094
378.87        20.40541
379.32         20.3098
379.77        20.26102
380.22         20.2834
380.67        20.36742
381.11        20.51525
381.56        20.62987
382.01        20.56673
382.46        20.30938
382.91         19.9171
383.36         19.5277
383.81        19.33487
384.26        19.36809
384.71        19.56318
385.15        19.81312
385.60         19.9384
386.05        19.88375
386.50        19.70868
386.95        19.47659
387.40        19.28553
387.85         19.1698
388.29         19.0858
388.74        19.04002
389.19        19.00068
389.64         18.9564
390.09         18.9133
390.54        18.87407
390.98        18.83299
391.43        18.79931
391.88        18.77037
392.33        18.72914
392.78        18.65345
393.23        18.54562
393.67        18.40667
394.12        18.29051
394.57        18.23976
395.02        18.25891
395.47        18.32543
395.91        18.40243
396.36         18.4151
396.81        18.35669
397.26        18.25768
397.71         18.1413
398.15        18.05256
398.60        18.02587
399.05        17.96942
399.50        17.90901
399.95        18.01712
400.39        18.23346
400.84        18.22923
401.29        18.01275
401.74        17.88287
402.18        17.85843
402.63        17.75789
403.08        17.60966
403.53        17.53892
403.97        17.55639
404.42        17.63031
404.87        17.71948
405.32        17.75433
405.76        17.71375
406.21        17.62503
406.66        17.52663
407.11        17.48107
407.55        17.50788
408.00         17.5812
408.45        17.66001
408.90        17.66505
409.34        17.57692
409.79        17.42673
410.24        17.27392
410.68        17.19543
411.13        17.21092
411.58        17.29607
412.03        17.39741
412.47         17.4232
412.92          17.345
413.37        17.20212
413.81        17.05132
414.26        16.98746
414.71         17.0228
415.15        17.13255
415.60        17.26626
416.05        17.35028
416.49        17.36061
416.94        17.31989
417.39        17.25922
417.83        17.22473
418.28        17.22918
418.73        17.25186
419.17        17.28558
419.62        17.32148
420.07         17.3529
420.51        17.38128
420.96        17.39566
421.41        17.37342
421.85        17.30779
422.30        17.20052
422.74        17.07222
423.19        17.03095
423.64        17.05771
424.08         17.0385
424.53        16.96038
424.98         16.9334
425.42        16.96806
425.87        16.95676
426.31        16.91119
426.76        16.97197
427.21        17.09246
427.65        17.03017
428.10        16.83788
428.54        16.77612
428.99        16.86542
429.44         17.0211
429.88        17.17623
430.33        17.15983
430.77        17.01457
431.22        17.07081
431.66        17.30157
432.11        17.36487
432.56        17.25578
433.00        17.21656
433.45        17.20797
433.89        17.06147
434.34        16.90901
434.78        16.61458
435.23        17.08975
435.67        17.21977
436.12        17.22839
436.57        17.16719
437.01        17.06306
437.46        16.97604
437.90         16.9147
438.35        16.81539
438.79        16.70909
439.24         16.6999
439.68         16.7952
440.13        16.96568
440.57        17.15177
441.02        17.26754
441.46        17.28335
441.91        17.17904
442.35         17.0141
442.80        17.03964
443.24        17.19737
443.69        17.17483
444.13        16.97942
444.58        16.89312
445.02        16.92129
445.47        16.90999
445.91        16.86711
446.36        16.88361
446.80        16.95674
447.24        17.05691
447.69        17.16017
448.13        17.22329
448.58        17.23834
449.02        17.21512
449.47        17.17181
449.91        17.12873
450.36        17.09969
450.80        17.07627
451.25        17.06111
451.69        17.04679
452.13         17.0339
452.58         17.0235
453.02        17.01611
453.47        17.01307
453.91        17.01351
454.36        17.01871
454.80        17.01603
455.24        16.98555
455.69        16.93032
456.13        16.84464
456.58        16.76725
457.02        16.72941
457.46         16.7432
457.91        16.79692
458.35        16.84302
458.79         16.8108
459.24        16.70531
459.68        16.54392
460.13        16.39705
460.57        16.32688
461.01        16.35911
461.46        16.45531
461.90        16.58891
462.34        16.70014
462.79        16.76152
463.23        16.79811
463.68        16.79597
464.12        16.74502
464.56        16.65044
465.01        16.53543
465.45        16.42029
465.89        16.38069
466.34        16.42236
466.78         16.5214
467.22        16.63878
467.67        16.68683
468.11        16.65154
468.55        16.55329
468.99        16.43065
469.44        16.34429
469.88        16.31479
470.32        16.32222
470.77        16.35526
471.21        16.39816
471.65        16.43998
472.10        16.49047
472.54        16.53504
472.98        16.55536
473.42        16.54906
473.87        16.52289
474.31        16.48712
474.75        16.47667
475.20        16.50131
475.64        16.54499
476.08        16.59345
476.52        16.61434
476.97        16.60192
477.41        16.57643
477.85        16.55792
478.29        16.55398
478.74        16.58444
479.18        16.68077
479.62        16.81416
480.06        16.91161
480.50        16.96314
480.95        16.97851
481.39        16.95399
481.83        17.05075
482.27         17.0196
482.72         17.0545
483.16        17.09197
483.60        17.10699
484.04        17.08635
484.48         17.1763
484.93        17.38388
485.37        17.24823
485.81        17.34081
486.25        17.64475
486.69        17.12018
487.14        17.57941
487.58        18.48334
488.02         18.1622
488.46        17.78516
488.90        17.95175
489.34        18.02144
489.79        18.28221
490.23        18.30827
490.67        18.37631
491.11        18.44668
491.55         18.4193
491.99        18.34888
492.43        18.36158
492.88        18.47935
493.32        18.64613
493.76         18.8264
494.20        18.99365
494.64        19.13895
495.08        19.23277
495.52        19.28948
495.96        19.45812
496.41         19.7043
496.85         19.7222
497.29        19.55769
497.73        19.74265
498.17        19.98977
498.61        20.16721
499.05        20.17456
499.49        20.22786
499.93        20.29315
500.37        20.47053
500.82        20.70574
501.26        20.85548
501.70         20.9011
502.14        20.92691
502.58        20.97367
503.02        21.06355
503.46        21.20556
503.90        21.39326
504.34        21.57212
504.78        21.65143
505.22        21.61428
505.66        21.49129
506.10        21.35205
506.54        21.30651
506.98         21.3817
507.42        21.54496
507.86        21.74162
508.30        21.88057
508.74        21.93517
509.18        21.93461
509.62        21.91364
510.06        21.92766
510.50        21.99288
510.94         22.0871
511.38        22.19259
511.82        22.28399
512.26         22.3522
512.70        22.40854
513.14        22.45603
513.58        22.49719
514.02        22.53437
514.46        22.56343
514.90        22.59017
515.34        22.62617
515.78        22.67168
516.22        22.72267
516.66        22.76638
517.10        22.78166
517.54        22.76464
517.98        22.72331
518.42        22.66942
518.86        22.62235
519.30        22.58827
519.74        22.56108
520.18        22.53944
520.62        22.51965
521.06        22.50069
521.50        22.48869
521.93        22.47758
522.37        22.44825
522.81          22.403
523.25        22.34403
523.69        22.29382
524.13        22.28862
524.57        22.32984
525.01        22.40053
525.45        22.46492
525.89        22.46571
526.32        22.38811
526.76        22.25913
527.20        22.10475
527.64        21.96793
528.08         21.8649
528.52        21.78428
528.96        21.72835
529.40         21.6994
529.83        21.69259
530.27           21.71
530.71        21.73002
531.15        21.71843
531.59        21.66812
532.03        21.58524
532.46        21.48966
532.90        21.43068
533.34        21.41427
533.78        21.41508
534.22        21.41226
534.66         21.3994
535.09         21.3555
535.53        21.24491
535.97        21.09757
536.41        21.01481
536.85        21.00955
537.28        21.03111
537.72        21.07113
538.16        21.13141
538.60        21.20211
539.04        21.28423
539.47        21.35205
539.91        21.37934
540.35        21.36125
540.79        21.30893
541.22        21.25997
541.66        21.28307
542.10        21.38845
542.54        21.55472
542.97         21.7404
543.41        21.88806
543.85        21.97971
544.29        22.03828
544.72        22.08223
545.16        22.15493
545.60         22.2654
546.04        22.40325
546.47        22.56796
546.91         22.7557
547.35        22.95543
547.79        23.16399
548.22        23.36652
548.66        23.53449
549.10        23.69154
549.53        23.83681
549.97        23.97085
550.41        24.04212
550.84        24.08085
551.28        24.15425
551.72        24.26924
552.15        24.45477
552.59        24.74087
553.03         24.7537
553.46         25.1919
553.90        25.33704
554.34        25.39234
554.77        25.38649
555.21        25.38596
555.65        25.45112
556.08        25.58434
556.52        25.84536
556.96        25.99975
557.39        26.17046
557.83         26.2675
558.27        26.17214
558.70        25.95726
559.14        25.89596
559.57         26.0022
560.01         26.1228
560.45        26.22182
560.88        26.32689
561.32          26.438
561.75         26.5203
562.19        26.59767
562.63        26.69779
563.06        26.81988
563.50        26.96077
563.93        27.07175
564.37        27.14395
564.80        27.18373
565.24        27.13892
565.68         26.9936
566.11         27.3048
566.55        27.10546
566.98        27.19715
567.42         27.3164
567.85        27.47427
568.29        27.66972
568.72        27.92216
569.16        28.24912
569.60        28.43923
570.03        28.57456
570.47        28.78351
570.90         29.1335
571.34        28.78725
571.77        29.27837
572.21        29.38559
572.64         29.4991
573.08        29.66974
573.51        29.66811
573.95        29.77222
574.38        29.91917
574.82        30.25927
575.25        30.00963
575.69        30.13363
576.12        30.35846
576.56        30.33489
576.99        30.15759
577.42        30.18533
577.86        30.23438
578.29        30.74881
578.73        30.56844
579.16        30.41684
579.60        29.98433
580.03        29.93318
580.47        29.91729
580.90         30.1098
581.33        30.09021
581.77        30.26608
582.20        29.62013
582.64        29.70356
583.07        29.64398
583.51        29.55964
583.94        29.34911
584.37         29.2445
584.81         29.2503
585.24        29.07819
585.68        28.87109
586.11        28.57953
586.54        28.85498
586.98         28.8297
587.41        28.69679
587.85        28.48052
588.28        28.26103
588.71         28.2766
589.15        28.14293
589.58        28.19719
590.01        28.27889
590.45        28.28282
590.88        28.20801
591.31         28.1454
591.75        28.15159
592.18        28.13255
592.61        28.07529
593.05         28.4909
593.48        28.56281
593.91        28.53273
594.35        28.51357
594.78        28.42139
595.21        28.50135
595.65        28.60221
596.08        28.84562
596.51        29.06943
596.94        29.16809
597.38        29.36098
597.81        29.58664
598.24        29.95656
598.68        30.21943
599.11        30.31994
599.54        30.74921
599.97         30.8358
600.41         31.3854
600.84        31.51701
601.27        31.90244
601.70        32.15924
602.14        32.50971
602.57        32.86185
603.00        33.32263
603.43        33.37494
603.87        34.28312
604.30        34.70005
604.73        35.06751
605.16        35.17024
605.60        35.70893
606.03        35.83281
606.46        35.85369
606.89        36.14912
607.32        37.13165
607.76        37.68428
608.19        37.87469
608.62        38.09416
609.05        38.46745
609.48        38.80478
609.92         39.5428
610.35        39.98034
610.78        39.58088
611.21        39.88631
611.64        40.29046
612.07        40.77036
612.50        40.93966
612.94        41.20272
613.37        41.48596
613.80         41.6018
614.23        41.59238
614.66        41.73243
615.09        42.05654
615.52        42.50037
615.96        42.96999
616.39        43.32858
616.82        43.55175
617.25        43.64703
617.68        43.70175
618.11        43.92538
618.54        44.30261
618.97        44.56573
619.40        44.69306
619.84        44.85818
620.27        44.99982
620.70        45.10928
621.13        45.15211
621.56        45.04561
621.99        44.84935
622.42        44.80702
622.85        44.93881
623.28        44.98528
623.71        45.13374
624.14        45.23713
624.57        45.44517
625.00        45.56665
625.43        45.57671
625.86        45.54797
626.29        45.54671
626.72        44.96337
627.15        45.12982
627.58        44.93029
628.01        44.72318
628.44        44.47481
628.87        44.21656
629.30        43.80911
629.73        43.60529
630.16        43.37696
630.59        43.21628
631.02        43.05646
631.45        42.90727
631.88          42.667
632.31        42.32751
632.74        41.89457
633.17        41.40147
633.60        40.91574
634.03        40.46179
634.46        40.02394
634.89        39.59442
635.32        39.16798
635.75        38.74506
636.18        38.29362
636.61        37.84098
637.04        37.44733
637.47        37.11501
637.89        36.81719
638.32        36.51302
638.75        36.17674
639.18        35.80449
639.61        35.41343
640.04         35.0323
640.47        34.70087
640.90        34.43038
641.33        34.21238
641.76        34.03675
642.18        33.89106
642.61         33.7605
643.04        33.65354
643.47         33.5763
643.90        33.53702
644.33        33.53489
644.76        33.56506
645.18        33.61218
645.61        33.64577
646.04         33.6654
646.47        33.68229
646.90        33.72786
647.33        33.84401
647.75        34.03121
648.18        34.31754
648.61        34.68589
649.04         34.9847
649.47        35.17418
649.89        35.78932
650.32        35.90927
650.75         36.3716
651.18        36.86803
651.61         37.3142
652.03        37.73851
652.46        38.18197
652.89        38.66765
653.32        39.29392
653.74        40.07853
654.17        40.30201
654.60         40.8573
655.03        41.28506
655.46        41.77882
655.88        41.90462
656.31        43.23974
656.74        43.58619
657.16        46.26229
657.59         49.5573
658.02        46.36133
658.45        46.00916
658.87        45.69811
659.30        46.37695
659.73        46.56715
660.15        47.45265
660.58         47.1964
661.01        47.36906
661.44        47.63503
661.86        47.75737
662.29        47.75944
662.72        48.36951
663.14        48.63288
663.57         48.9262
664.00        49.02746
664.42        49.32259
664.85        49.82811
665.27         50.3444
665.70        50.76102
666.13        51.00593
666.55        51.12068
666.98        51.01448
667.41        50.79679
667.83        50.94796
668.26        50.98037
668.69        51.27944
669.11        51.62105
669.54        51.89549
669.96        52.07476
670.39        52.19387
670.82        52.28661
671.24        52.42883
671.67        52.64187
672.09        52.77695
672.52        52.83959
672.94        53.21528
673.37        53.41371
673.80        53.46657
674.22        53.30991
674.65         53.3036
675.07        53.48744
675.50        53.65849
675.92        53.78168
676.35        53.86583
676.77        53.90192
677.20        53.89157
677.62        53.87337
678.05        53.90566
678.47          54.002
678.90        54.15167
679.32         54.3219
679.75         54.4697
680.17         54.5765
680.60        54.65554
681.02        54.73059
681.45        54.83027
681.87        54.97158
682.30        55.14658
682.72        55.32863
683.15         55.4319
683.57        55.47364
684.00        55.48777
684.42        55.50898
684.85        55.72339
685.27          55.847
685.70        56.11909
686.12        56.38024
686.54        56.53321
686.97        56.55533
687.39        56.44234
687.82        56.33928
688.24        56.29592
688.66        56.36796
689.09        56.49144
689.51          56.683
689.94        56.82937
690.36        56.92635
690.78        56.98388
691.21        57.03085
691.63        57.10224
692.06        57.21195
692.48        57.35916
692.90        57.49728
693.33        57.55971
693.75        57.53178
694.17        57.40434
694.60        57.28363
695.02        57.33773
695.44        57.56777
695.87        57.96352
696.29         58.3665
696.71        58.27833
697.14        57.80782
697.56        57.61956
697.98        57.76847
698.41        57.99109
698.83        57.95024
699.25        58.25727
699.68         58.6868
700.10        58.91825
700.52         58.8905
700.94        58.67526
701.37        58.39717
701.79        58.38996
702.21        58.72986
702.64        58.77883
703.06        59.37914
703.48        59.58212
703.90        59.61494
704.33        59.53279
704.75        59.40794
705.17        59.29042
705.59        59.19982
706.01        59.25766
706.44        59.22744
706.86        59.34274
707.28        59.50845
707.70        59.78249
708.12        60.08501
708.55        60.14964
708.97        60.01711
709.39        60.00752
709.81        60.14275
710.23        60.20319
710.66        60.18861
711.08        60.26114
711.50        60.37975
711.92        60.41787
712.34        60.36792
712.76        60.27925
713.19        60.17733
713.61        60.13746
714.03        60.16911
714.45        60.25398
714.87        60.39035
715.29        60.58025
715.71        60.80879
716.13        61.05816
716.56        61.27847
716.98        61.46918
717.40         61.5813
717.82        61.61916
718.24        61.57037
718.66        61.42029
719.08        61.19447
719.50        60.92905
719.92        60.69119
720.34         60.5767
720.76        60.60757
721.19        60.73598
721.61        60.96568
722.03        61.25097
722.45        61.55106
722.87        61.85925
723.29        62.09206
723.71        62.11967
724.13        61.92905
724.55        61.57072
724.97        61.17038
725.39        60.91829
725.81        60.87054
726.23        61.00209
726.65        61.26348
727.07        61.45242
727.49        61.70619
727.91        61.90985
728.33        62.10418
728.75        62.26285
729.17        62.37852
729.59        62.43011
730.01        62.43851
730.43        62.45924
730.85        62.50051
731.27        62.54929
731.69        62.57025
732.10        62.50463
732.52        62.34552
732.94        62.13256
733.36        61.93856
733.78        61.76054
734.20        61.61782
734.62        61.73624
735.04        62.14614
735.46        61.75311
735.88        62.36979
736.30        62.45905
736.72        62.59562
737.13        62.88982
737.55        63.23341
737.97        63.48135
738.39        63.52464
738.81        63.14964
739.23        62.55166
739.65        62.44514
740.06        62.76872
740.48        62.97341
740.90        63.05547
741.32        62.75843
741.74        63.31894
742.16        63.46265
742.57        63.53594
742.99        63.56983
743.41        63.57328
743.83        63.51633
744.25        63.39941
744.67         63.2316
745.08        63.09054
745.50        63.08392
745.92        63.23226
746.34        63.49557
746.75        63.77451
747.17        63.85813
747.59        63.70371
748.01        63.47658
748.42        63.25309
748.84        62.91158
749.26        62.61095
749.68        62.85929
750.09        63.49628
750.51        63.77104
750.93        63.61156
751.35        63.43313
751.76        63.29847
752.18        63.14753
752.60        62.99945
753.01        62.89407
753.43        62.84436
753.85         62.8058
754.27        62.77039
754.68        63.03294
755.10         63.2818
755.52        63.18256
755.93        63.19402
756.35        63.23714
756.77        63.50913
757.18        63.70868
757.60        63.82784
758.02         64.2285
758.43        64.70924
758.85        64.30244
759.26        63.78182
759.68        63.13526
760.10        62.96331
760.51        63.21565
760.93        63.81768
761.34        63.82347
761.76        63.67761
762.18        63.82469
762.59        64.37096
763.01        64.49489
763.42        64.24781
763.84        64.18988
764.26        64.35848
764.67        64.34592
765.09         64.2047
765.50        64.15945
765.92        64.22089
766.33        64.14404
766.75        63.86851
767.16        63.76416
767.58        63.60998
768.00        63.37891
768.41        63.16719
768.83        63.32741
769.24        63.77248
769.66        64.32946
770.07        64.78285
770.49        64.46677
770.90        63.68355
771.32         63.9832
771.73        65.18806
772.15        65.53999
772.56        64.96309
772.97         64.4084
773.39        64.09974
773.80        64.04919
774.22        64.24934
774.63        64.53202
775.05        64.74111
775.46        64.90663
775.88        64.95044
776.29        64.80443
776.70        64.56202
777.12        64.47685
777.53        64.60491
777.95        64.82217
778.36        65.05906
778.77        65.17024
779.19        65.13241
779.60        65.02061
780.02         64.8521
780.43        64.71999
780.84        64.67457
781.26        64.43203
781.67        64.13421
782.09        64.57445
782.50        65.49664
782.91        65.52479
783.33         64.7403
783.74        64.49643
784.15        64.85078
784.57        65.01651
784.98        64.98534
785.39        65.08335
785.81        65.31467
786.22        65.62362
786.63        65.93143
787.04        66.08774
787.46        66.07384
787.87        65.92069
788.28        65.74899
788.70        65.67398
789.11        65.69795
789.52        65.94087
789.93        66.26473
790.35         66.1224
790.76        65.62492
791.17        65.53194
791.58         65.8503
792.00        65.92058
792.41        65.73975
792.82        65.76648
793.23        65.91035
793.65        65.79514
794.06        65.55898
794.47        65.45622
794.88        65.37511
795.29        66.39459
795.71        65.65681
796.12        65.84765
796.53        66.11662
796.94        66.08135
797.35        65.81277
797.76        66.00397
798.18        66.58216
798.59        66.81917
799.00        66.64785
799.41        66.45659
799.82        66.34653
800.23        66.31759
800.64        66.39894
801.06        66.55238
801.47        66.74332
801.88        66.82579
802.29        66.75343
802.70        66.55717
803.11        66.28866
803.52        66.02927
803.93        65.84174
804.34        65.74502
804.75         65.7271
805.17        65.79816
805.58        66.12235
805.99        66.19505
806.40        66.14977
806.81        67.03465
807.22        68.42477
807.63        68.24844
808.04        66.73153
808.45        66.04924
808.86        66.36996
809.27        66.49292
809.68        66.31927
810.09        66.27322
810.50        66.34041
810.91        66.40713
811.32        66.50787
811.73        66.68517
812.14         66.9268
812.55        67.23614
812.96         67.5029
813.37        67.47765
813.78        67.14649
814.19        66.70069
814.60        66.26075
815.01        65.89859
815.42        65.65505
815.83        65.54346
816.24        65.55863
816.65        65.65353
817.05        65.80933
817.46        66.00967
817.87        66.22708
818.28        66.37292
818.69        66.42957
819.10        66.39866
819.51        66.34153
819.92        66.38371
820.33        66.54935
820.74        66.79028
821.14        67.03121
821.55        67.14442
821.96        67.10292
822.37        66.96057
822.78        66.76315
823.19        66.58499
823.60        66.46458
824.00        66.40268
824.41        66.38368
824.82        66.48538
825.23        66.69594
825.64        66.98563
826.04        67.27628
826.45        67.40012
826.86        67.33383
827.27        67.13693
827.68        66.85178
828.08        66.58432
828.49        66.33692
828.90         66.0999
829.31        65.96472
829.72        66.07825
830.12        66.47079
830.53        67.04997
830.94        67.60765
831.35        67.73435
831.75        67.35055
832.16        66.55764
832.57        65.64842
832.97        65.07571
833.38         64.9669
833.79         65.1776
834.20         65.5611
834.60        65.87596
835.01        66.04369
835.42        66.18523
835.82        66.30696
836.23        66.33611
836.64        66.30355
837.04        66.16825
837.45        66.09572
837.86        66.43409
838.26        67.24641
838.67        68.39293
839.08        69.48448
839.48        69.78246
839.89        69.11504
840.29        67.75786
840.70        66.32382
841.11        65.51811
841.51        65.52207
841.92         66.1144
842.33        67.03341
842.73        67.80087
843.14         68.1277
843.54        68.19944
843.95        68.14112
844.35        68.20753
844.76          68.446
845.17        68.74722
845.57        68.99306
845.98        68.98949
846.38        68.71613
846.79        68.24273
847.19        67.72145
847.60        67.35862
848.00        67.22571
848.41        67.24946
848.81        67.33883
849.22        67.26077
849.62        66.99857
850.03        66.60867
850.43         66.2303
850.84        66.01541
851.24        66.05413
851.65        66.24673
852.05        66.57961
852.46        66.92194
852.86        67.22057
853.27        67.47685
853.67        67.64082
854.07        67.82765
854.48        67.99191
854.88        67.98641
855.29        67.80905
855.69         67.7289
856.10         67.7168
856.50        67.73456
856.90        67.68953
857.31        67.49081
857.71        67.16845
858.12        66.68913
858.52        66.20631
858.92        65.86131
859.33        65.68704
859.73        65.70963
860.13        65.77818
860.54        65.65186
860.94        65.32424
861.34        64.85152
861.75        64.43039
862.15        64.42406
862.55        64.87879
862.96        65.63286
863.36        66.47371
863.76        66.96353
864.17        66.95608
864.57        66.61171
864.97        66.04735
865.38        65.45762
865.78        64.96686
866.18        64.53073
866.58        64.23029
866.99        64.20743
867.39        64.49437
867.79        65.03272
868.19        65.69699
868.60        66.26257
869.00        66.68232
869.40        66.97318
869.80        67.10368
870.21        67.04038
870.61        66.86464
871.01        66.56116
871.41        66.19865
871.81        65.87303
872.22        65.60191
872.62        65.35629
873.02        65.19618
873.42        65.19668
873.82        65.35132
874.22        65.64304
874.63        65.88171
875.03        65.78281
875.43        65.29952
875.83        64.53625
876.23        63.76672
876.63         63.4197
877.03        63.59166
877.44        64.12216
877.84        64.80675
878.24         65.3017
878.64        65.43211
879.04        65.15895
879.44        64.68668
879.84        64.43697
880.24        64.47677
880.64        64.64434
881.04        64.74206
881.44        64.49242
881.84        63.85913
882.24        62.97995
882.65        62.14577
883.05        61.78135
883.45        61.98804
883.85         62.6397
884.25        63.49044
884.65         64.1142
885.05        64.36786
885.45        64.36037
885.85        64.24036
886.25        64.25166
886.65        64.45183
887.05        64.73093
887.45        64.99851
887.85        65.11892
888.25        65.05201
888.65        64.87874
889.04        64.61729
889.44        64.30933
889.84        63.97536
890.24        63.59874
890.64        63.28221
891.04        63.19874
891.44          63.365
891.84        63.73131
892.24        64.10726
892.64        64.19165
893.04        63.94479
893.44         63.4813
893.83        63.01516
894.23        62.85253
894.63        63.09654
895.03        63.61489
895.43        64.28719
895.83        64.92512
896.23        65.41221
896.63        65.75955
897.02        65.88511
897.42        65.68742
897.82        65.18971
898.22        64.49496
898.62        63.71159
899.01        62.99506
899.41        62.44042
899.81        62.00583
900.21        61.83896
900.61        62.15812
901.00        62.94443
901.40        64.09836
901.80        65.24369
902.20        65.77465
902.59         65.5675
902.99        64.78178
903.39        63.77534
903.79        63.16408
904.18        63.11064
904.58        63.41574
904.98        63.89782
905.38        64.28155
905.77        64.47288
906.17        64.61013
906.57          64.616
906.96         64.3484
907.36        63.81403
907.76        63.05506
908.15        62.39428
908.55        62.33827
908.95        62.97885
909.34        64.16999
909.74        65.46223
910.14         66.1789
910.53        66.09821
910.93        65.43697
911.33        64.47838
911.72         63.6603
912.12        63.20346
912.52        63.00175
912.91        62.96711
913.31        62.98766
913.70        63.02118
914.10        63.06949
914.49        63.28028
914.89        63.79597
915.29        64.61912
915.68        65.67329
916.08        66.53966
916.47        66.61685
916.87        65.83242
917.26        64.39793
917.66        62.91801
918.05        62.14236
918.45        62.24415
918.84        63.05969
919.24        64.15809
919.64         64.8923
920.03        65.04849
920.42        64.76474
920.82        64.39029
921.21        64.41882
921.61        64.94314
922.00        65.82173
922.40        66.65461
922.79        66.90949
923.19        66.42901
923.58        65.45653
923.98        64.40392
924.37        63.78931
924.77        63.74962
925.16        64.08563
925.55        64.58651
925.95        64.86896
926.34         64.8148
926.74        64.53389
927.13         64.0916
927.52        63.51807
927.92        62.91988
928.31         62.2855
928.70        61.74928
929.10        61.49768
929.49        61.54524
929.89        61.78856
930.28         62.2367
930.67        62.77707
931.07        63.30505
931.46        63.90385
931.85        64.30489
932.24         64.1362
932.64        63.41514
933.03        62.24182
933.42        61.14205
933.82        60.88151
934.21        61.60392
934.60        63.13941
934.99        64.94319
935.39         66.0106
935.78         66.0687
936.17        65.29488
936.56        64.20997
936.96        63.64959
937.35        63.82344
937.74        64.47487
938.13        65.13287
938.53         65.0833
938.92        64.20549
939.31        62.82856
939.70        61.43737
940.09        60.69387
940.49        60.72305
940.88        61.33157
941.27        62.26038
941.66        63.02741
942.05        63.44463
942.44        63.67711
942.84        63.78564
943.23        63.85827
943.62        63.94776
944.01        63.94145
944.40        63.97405
944.79        64.31071
945.18        64.95931
945.57         65.8541
945.97         66.5883
946.36        66.55868
946.75        65.62847
947.14        64.08199
947.53        62.43213
947.92        61.40322
948.31        61.17093
948.70        61.53397
949.09        62.24916
949.48        62.88173
949.87        63.25451
950.26        63.47741
950.65         63.6045
951.04        63.73159
951.43        63.87963
951.82        63.95708
952.21        63.92857
952.60        63.77686
952.99        63.52342
953.38         63.2419
953.77        62.96045
954.16         62.7007
954.55        62.47544
954.94        62.24871
955.33        62.12375
955.72         62.2744
956.11        62.70459
956.50        63.36592
956.89        63.93218
957.28        63.85917
957.66        63.05233
958.05        61.75038
958.44        60.41052
958.83        59.69008
959.22        59.71888
959.61        60.30371
960.00        61.14255
960.39        61.66139
960.78        61.65543
961.16        61.30449
961.55        60.82917
961.94        60.48069
962.33        60.35831
962.72        60.38767
963.11        60.54521
963.49        60.83607
963.88        61.15005
964.27        61.46198
964.66        61.81205
965.04        62.29575
965.43        62.85726
965.82         63.5113
966.21        63.92019
966.60        63.49238
966.98        62.15729
967.37        60.24791
967.76        58.43969
968.15        57.55761
968.53        57.73689
968.92        58.79189
969.31        60.23395
969.69        61.05336
970.08        60.84359
970.47        59.93403
970.86        58.95969
971.24        58.83892
971.63        59.76845
972.02        61.47136
972.40         63.4412
972.79        64.42412
973.17        64.07378
973.56        62.82153
973.95        61.31477
974.33         60.3805
974.72        60.21413
975.11         60.5313
975.49        61.11875
975.88        61.51561
976.26        61.59405
976.65        61.50535
977.04        61.30139
977.42        61.00086
977.81        60.61293
978.19         60.0734
978.58        59.67149
978.96        59.85516
979.35        60.66277
979.74        62.00364
980.12        63.44244
980.51        63.95814
980.89        63.43741
981.28        62.17857
981.66        60.81135
982.05        60.21819
982.43         60.6066
982.82        61.67969
983.20        63.21592
983.59        64.66744
983.97        65.83459
984.35        66.85196
984.74        67.45839
985.12         67.4789
985.51        66.87249
985.89        65.68454
986.28        64.48376
986.66        64.08473
987.04        64.70143
987.43        66.11459
987.81         67.7515
988.20        68.35137
988.58        67.55873
988.96        65.70171
989.35         63.4902
989.73         61.9102
990.12        61.20647
990.50        61.19555
990.88        61.42362
991.27        61.12309
991.65        60.15122
992.03        58.81065
992.42        57.79752
992.80        58.04647
993.18        59.71214
993.56        62.49932
993.95        65.50117
994.33        67.14343
994.71        66.76797
995.10        64.95501
995.48        62.62606
995.86        61.22218
996.24        61.11341
996.63        61.77056
997.01         62.9821
997.39        63.95259
997.77        64.29295
998.15        64.38701
998.54        64.12291
998.92        63.16751
999.30        61.67497
999.68        59.72522
1000.06        58.07724
1000.45        57.82853
1000.83        59.24995
1001.21        62.16436
1001.59        65.73878
1001.97        67.86909
1002.35        67.76747
1002.73        66.13004
1003.12        64.13215
1003.50        63.23529
1003.88        63.89528
1004.26         65.4926
1004.64        67.86325
1005.02        70.53522
1005.40        72.99197
1005.78         75.4601
1006.16        76.89478
1006.54        75.68775
1006.92        71.91722
1007.30        66.22294
1007.69        60.70251
1008.07        58.20135
1008.45        59.46807
1008.83        63.95583
1009.21        70.01199
1009.59         73.4896
1009.97        72.48981
1010.35        68.24824
1010.73        62.72371
1011.11        58.70591
1011.49        56.96613
1011.86        56.63753
1012.24        57.08257
1012.62         57.5145
1013.00        57.69049
1013.38        57.90661
1013.76        58.45688
1014.14        59.71753
1014.52        61.62325
1014.90        63.72283
1015.28        65.30583
1015.66        65.62976
1016.04        64.63344
1016.41        62.59077
1016.79        60.06545
1017.17        58.20164
1017.55        57.46148
1017.93        57.59431
1018.31        58.25644
1018.69          58.912
1019.06        59.39784
1019.44        59.88586
1019.82        60.38591
1020.20        60.83576
1020.58        61.11094
1020.95        60.99287
1021.33         60.6624
1021.71        60.25896
1022.09        59.85684
1022.46         59.6468
1022.84        59.33691
1023.22        58.44071
1023.60        56.99756
1023.97        55.04302
1024.35        53.90498
1024.73        55.03284
