SpectraSmart Spectrum 2.9.0.0
--------- Device Information -----------
Spectrum Name :  反射率_0
Saving Time :  2024/04/27 00:28:49
Spectro-Module Model Name : SE2030-DUVN
Spectro-Module Serial Number : OS361AC55029948
Wavelength Start : 200
Wavelength End : 1025
Wavelength Unit : Wavelength(nm)
Spectrum Unit : Reflectance(%)
-----------Spectrum Setting ------------
Integration Time : 20ms
Average : 10
Boxcar : 0
Background removal :  enabled
linearity correction :  enabled
SC :  disabled
Intensity correction :  disabled
DWT denoise :  enabled
savitzky-golay :  disabled
FFT :  disabled
Running average :  disabled
Kalman :  disabled
High pass :  disabled
---------------BEGIN--------------------
Wavelength(nm)             Reflectance(%)
200.29               0
200.75        47.87053
201.21        47.61775
201.67        48.44937
202.13        50.38736
202.58        53.48864
203.04        58.70231
203.50        65.78849
203.96        72.01959
204.42        75.19432
204.88        74.92361
205.34         72.8324
205.80        73.29851
206.26        76.83891
206.72        80.73676
207.18         83.7831
207.64        85.25979
208.10        85.34016
208.55        85.80951
209.01        84.16804
209.47        76.57719
209.93        66.42017
210.39        58.18254
210.85        55.04557
211.31        58.87577
211.77         71.5269
212.23        102.2902
212.69        180.3137
213.14        310.3528
213.60        304.5823
214.06          212.39
214.52        149.4641
214.98        120.0786
215.44        106.1603
215.90        96.78367
216.36        91.78849
216.81         93.2131
217.27        102.2377
217.73        123.2647
218.19        153.8831
218.65        168.3561
219.11         155.713
219.57        131.8783
220.02        114.9421
220.48        115.0072
220.94        130.7344
221.40        163.1975
221.86        211.1161
222.32        242.4866
222.77        229.8538
223.23        195.1091
223.69        161.3065
224.15        141.0932
224.61        132.3348
225.06        128.7012
225.52        128.8819
225.98        131.2353
226.44        135.0493
226.90        140.8514
227.36        147.3134
227.81        151.4995
228.27        152.8998
228.73        151.9381
229.19        150.5219
229.65        151.1918
230.10        154.0363
230.56        158.3501
231.02        162.2798
231.48        162.9872
231.93        160.1123
232.39          155.71
232.85        151.4226
233.31        149.4275
233.77        149.9569
234.22        152.0536
234.68        155.0995
235.14        158.2233
235.60        160.9513
236.05        163.7665
236.51        165.5905
236.97        164.8179
237.43        161.0208
237.88        154.6016
238.34        147.2203
238.80        142.1487
239.26        140.4571
239.71        142.6866
240.17         147.407
240.63        151.4036
241.08        152.7884
241.54        150.9801
242.00        148.9348
242.46        152.6721
242.91         166.786
243.37        193.3005
243.83        232.6976
244.28        265.9682
244.74        264.4369
245.20        228.4312
245.66        184.6334
246.11        156.1086
246.57        143.2767
247.03        139.3845
247.48        137.4175
247.94        128.1524
248.40        114.1312
248.85         101.431
249.31        93.14571
249.77        89.76514
250.22        90.24214
250.68        93.26874
251.14        98.91609
251.59        105.7053
252.05        111.3209
252.51        116.1536
252.96        117.4973
253.42        114.1668
253.88        107.6317
254.33        99.06921
254.79        93.81011
255.25         96.1335
255.70        105.2238
256.16        119.1996
256.62        132.0282
257.07        134.3987
257.53        128.4071
257.99        119.5904
258.44        112.4863
258.90        111.3463
259.35        114.3416
259.81        119.8139
260.27        125.1458
260.72        127.1565
261.18        126.1886
261.63        123.2435
262.09        120.4645
262.55        119.0707
263.00        118.8707
263.46        119.5278
263.91        119.8709
264.37        119.1876
264.83        117.3566
265.28        114.8211
265.74         112.556
266.19        111.1025
266.65        110.6865
267.11        110.8357
267.56        111.1687
268.02        111.1503
268.47        110.5691
268.93        109.6839
269.38        108.4873
269.84        107.0967
270.30        105.5635
270.75        103.8312
271.21        102.1851
271.66         100.938
272.12        100.1412
272.57        99.62102
273.03        99.09687
273.48        98.04068
273.94         96.4704
274.39        94.52736
274.85        92.55642
275.31        90.72523
275.76        89.06702
276.22        87.61869
276.67        86.34939
277.13        85.48837
277.58        84.87019
278.04          84.465
278.49        83.94617
278.95        83.08542
279.40        81.73875
279.86         80.1945
280.31        78.44504
280.77        76.75322
281.22        75.11243
281.68        73.62005
282.13        72.32552
282.59        71.52867
283.04        71.11838
283.50        71.04156
283.95        70.98527
284.41        70.52148
284.86          69.543
285.32        68.26104
285.77        66.86674
286.22        65.76657
286.68        65.03986
287.13         64.4945
287.59        64.04174
288.04        63.44801
288.50        62.71383
288.95        61.87085
289.41        61.01401
289.86        60.12492
290.32        59.29166
290.77        58.46452
291.22        57.70753
291.68        57.08949
292.13        56.58932
292.59        56.21467
293.04        55.92984
293.50        55.71932
293.95        55.55207
294.40        55.43694
294.86        55.35532
295.31        55.25872
295.77        55.15516
296.22        55.03679
296.68        54.95142
297.13        54.93916
297.58        55.02195
298.04         55.1921
298.49         55.4057
298.95        55.62442
299.40        55.81738
299.85        55.99242
300.31        56.18308
300.76        56.41146
301.21        56.68211
301.67         56.9928
302.12        57.25054
302.58        57.41167
303.03         57.4271
303.48        57.34715
303.94        57.25663
304.39        57.21767
304.84        57.26537
305.30        57.38407
305.75        57.48379
306.20        57.50654
306.66        57.45665
307.11        57.34467
307.57        57.22289
308.02        57.08712
308.47        56.96655
308.93        56.85868
309.38        56.77247
309.83         56.7983
310.29        56.93415
310.74        57.14026
311.19         57.3068
311.65        57.24822
312.10         56.9248
312.55         56.4002
313.00        55.82215
313.46        55.41076
313.91         55.1983
314.36        55.13647
314.82        55.11454
315.27        54.96763
315.72        54.64917
316.18        54.23422
316.63        53.79854
317.08        53.47836
317.53        53.30416
317.99         53.2187
318.44        53.16674
318.89        53.04808
319.35         52.8317
319.80        52.54939
320.25         52.2373
320.70        51.95313
321.16        51.71022
321.61        51.50395
322.06        51.30294
322.51        51.06527
322.97        50.77478
323.42        50.45254
323.87        50.14165
324.32        49.91672
324.78        49.77418
325.23        49.72507
325.68        49.66701
326.13        49.44559
326.59        49.03407
327.04        48.49677
327.49         47.9673
327.94        47.66397
328.39        47.62753
328.85        47.77178
329.30        48.00114
329.75        48.04021
330.20        47.81202
330.66        47.39259
331.11        46.92601
331.56        46.60654
332.01        46.49427
332.46        46.51414
332.92        46.58622
333.37        46.65076
333.82        46.64156
334.27        46.59787
334.72        46.50277
335.17        46.31918
335.63        46.05191
336.08        45.73781
336.53        45.44534
336.98        45.31068
337.43        45.36574
337.88        45.56525
338.34        45.84244
338.79        46.12408
339.24        46.34208
339.69        46.51145
340.14        46.58574
340.59        46.50114
341.05        46.27353
341.50        45.92028
341.95        45.54764
342.40        45.32133
342.85        45.28248
343.30          45.391
343.75        45.57284
344.20        45.69809
344.66         45.7293
345.11        45.70302
345.56        45.65009
346.01        45.62069
346.46        45.63556
346.91        45.67604
347.36        45.73232
347.81        45.79903
348.26        45.86699
348.72        45.93097
349.17        45.99269
349.62        46.07159
350.07        46.16278
350.52        46.26308
350.97        46.30636
351.42        46.19205
351.87        45.91438
352.32        45.51239
352.77        45.11161
353.22         44.8914
353.67        44.88518
354.13         45.0474
354.58        45.24948
355.03        45.26888
355.48        45.05156
355.93        44.66211
356.38        44.25237
356.83        44.05095
357.28        44.09594
357.73        44.30394
358.18        44.51209
358.63        44.46187
359.08        44.09489
359.53        43.50511
359.98        42.84717
360.43        42.34468
360.88        42.05153
361.33        41.89919
361.78        41.78944
362.23        41.56879
362.68        41.20296
363.13        40.75514
363.58        40.30296
364.03        39.95576
364.48        39.73866
364.93        39.60707
365.38        39.50918
365.83        39.36927
366.28        39.16263
366.73        38.91314
367.18        38.64563
367.63        38.39581
368.08        38.17462
368.53        37.97053
368.98        37.76847
369.43        37.54585
369.88        37.30009
370.33        37.04334
370.78        36.79803
371.23         36.6013
371.68        36.45953
372.13        36.35297
372.58        36.25933
373.03        36.14347
373.48        35.98882
373.93         35.8029
374.38        35.57613
374.83        35.29733
375.28        34.97544
375.72        34.61371
376.17        34.26982
376.62        33.98615
377.07        33.77748
377.52         33.6396
377.97        33.54749
378.42        33.46027
378.87        33.36304
379.32        33.25352
379.77        33.16002
380.22        33.12605
380.67        33.14833
381.11        33.21732
381.56          33.237
382.01        33.08887
382.46        32.76476
382.91        32.32733
383.36        31.89472
383.81        31.62437
384.26        31.54092
384.71        31.59241
385.15         31.7039
385.60        31.74705
386.05        31.67888
386.50        31.53551
386.95        31.34709
387.40        31.16233
387.85        31.00143
388.29        30.83056
388.74        30.68318
389.19        30.53211
389.64          30.373
390.09        30.21037
390.54        30.05727
390.98        29.92638
391.43        29.83855
391.88        29.78355
392.33        29.73869
392.78        29.67085
393.23        29.57528
393.67         29.4492
394.12        29.34364
394.57        29.27644
395.02         29.2498
395.47        29.24296
395.91        29.24344
396.36        29.21692
396.81        29.16956
397.26        29.11761
397.71        29.05208
398.15        28.97689
398.60          28.931
399.05        28.79493
399.50         28.6267
399.95        28.72174
400.39        28.99286
400.84         28.9115
401.29        28.50797
401.74        28.28497
402.18        28.27573
402.63        28.18038
403.08        28.02068
403.53        27.95582
403.97        27.98874
404.42        28.08053
404.87        28.16658
405.32        28.14006
405.76        27.98008
406.21        27.73716
406.66        27.49391
407.11          27.382
407.55        27.43752
408.00        27.60695
408.45        27.81956
408.90        27.93282
409.34         27.8987
409.79        27.76744
410.24        27.59778
410.68        27.46531
411.13        27.39902
411.58        27.37059
412.03        27.35846
412.47        27.33324
412.92        27.27819
413.37         27.2201
413.81        27.16883
414.26        27.15896
414.71        27.18599
415.15        27.24558
415.60        27.31233
416.05        27.37326
416.49          27.419
416.94        27.44295
417.39        27.44787
417.83        27.43643
418.28        27.40967
418.73        27.36595
419.17        27.30546
419.62        27.23021
420.07        27.14782
420.51        27.05933
420.96        26.98389
421.41        26.94155
421.85        26.92466
422.30        26.91328
422.74        26.88695
423.19         26.9362
423.64        27.01402
424.08        26.95762
424.53        26.78116
424.98        26.71759
425.42        26.80155
425.87        26.84397
426.31        26.83695
426.76        26.96368
427.21        27.13838
427.65        26.98551
428.10        26.61255
428.54        26.46776
428.99        26.58857
429.44         26.8294
429.88        27.06034
430.33        26.97448
430.77        26.64635
431.22        26.61831
431.66        26.86993
432.11        26.94795
432.56        26.85969
433.00        26.85484
433.45        26.88019
433.89        26.92866
434.34        27.02397
434.78        26.51719
435.23         26.6063
435.67        26.56933
436.12        26.69314
436.57        26.66607
437.01        26.49534
437.46        26.39946
437.90        26.37735
438.35        26.29457
438.79        26.17044
439.24        26.12257
439.68        26.15754
440.13         26.2491
440.57        26.35117
441.02        26.40985
441.46        26.40619
441.91        26.29261
442.35        26.12491
442.80        26.23958
443.24        26.53586
443.69        26.54363
444.13        26.28853
444.58        26.22803
445.02          26.371
445.47        26.45758
445.91        26.47503
446.36        26.53363
446.80        26.62218
447.24        26.70976
447.69        26.77217
448.13         26.7625
448.58        26.68285
449.02         26.5505
449.47        26.41075
449.91        26.31803
450.36        26.29692
450.80        26.32635
451.25        26.39077
451.69        26.44448
452.13        26.47787
452.58        26.49783
453.02        26.51003
453.47        26.52795
453.91        26.55267
454.36        26.57912
454.80        26.58859
455.24        26.55404
455.69        26.48198
456.13        26.36938
456.58        26.26787
457.02        26.21272
457.46        26.22207
457.91        26.28093
458.35        26.33872
458.79        26.32446
459.24        26.24649
459.68        26.11709
460.13        26.00342
460.57        25.94349
461.01        25.96838
461.46        26.03895
461.90        26.15371
462.34        26.29188
462.79        26.42716
463.23        26.56836
463.68        26.66146
464.12        26.63563
464.56        26.48271
465.01        26.26782
465.45        26.02378
465.89        25.86437
466.34        25.80884
466.78        25.82223
467.22        25.89064
467.67        25.96238
468.11        26.03079
468.55        26.09673
468.99        26.15367
469.44         26.1872
469.88        26.19777
470.32        26.18246
470.77        26.15291
471.21        26.13683
471.65           26.14
472.10        26.16029
472.54        26.18814
472.98        26.21547
473.42          26.238
473.87        26.26574
474.31        26.28249
474.75        26.28772
475.20        26.28766
475.64        26.27312
476.08        26.25755
476.52        26.24811
476.97        26.24791
477.41        26.26931
477.85        26.31333
478.29        26.34224
478.74        26.37315
479.18        26.47286
479.62        26.61651
480.06        26.71843
480.50        26.77426
480.95        26.79593
481.39        26.76582
481.83        26.91431
482.27        26.84735
482.72        26.88625
483.16        26.93764
483.60        26.97499
484.04         26.9927
484.48        27.13368
484.93        27.40241
485.37         27.1633
485.81        27.29877
486.25        27.19114
486.69        27.61211
487.14        27.55791
487.58        27.58165
488.02        28.15586
488.46         27.4113
488.90        27.92679
489.34        27.86578
489.79        28.31598
490.23        28.71609
490.67        28.81338
491.11        28.65628
491.55        28.54453
491.99        28.55176
492.43        28.54181
492.88        28.54411
493.32        28.65745
493.76        28.85939
494.20         29.0774
494.64        29.30114
495.08        29.49141
495.52        29.62783
495.96        29.87024
496.41        30.14941
496.85        30.01472
497.29        29.58167
497.73        29.72027
498.17        30.01148
498.61        30.24208
499.05        30.23869
499.49        30.28679
499.93        30.32442
500.37        30.51203
500.82        30.79264
501.26        30.99005
501.70        31.08232
502.14        31.18152
502.58        31.30847
503.02        31.43555
503.46        31.56404
503.90         31.7007
504.34         31.8165
504.78        31.86324
505.22        31.83556
505.66        31.75319
506.10        31.65915
506.54        31.62061
506.98        31.65625
507.42        31.74859
507.86        31.87205
508.30        31.98275
508.74        32.06395
509.18        32.12554
509.62        32.17573
510.06        32.22834
510.50        32.28711
510.94        32.34513
511.38        32.39512
511.82        32.42752
512.26        32.44382
512.70        32.45328
513.14        32.46906
513.58        32.51059
514.02        32.58099
514.46        32.66829
514.90        32.76514
515.34        32.86092
515.78        32.94516
516.22        33.01613
516.66        33.05515
517.10        33.03373
517.54        32.95241
517.98        32.82689
518.42        32.68755
518.86        32.58292
519.30        32.52925
519.74        32.51495
520.18        32.53308
520.62        32.56923
521.06        32.61373
521.50        32.66981
521.93        32.72258
522.37         32.7358
522.81        32.70831
523.25        32.64706
523.69        32.57468
524.13        32.53021
524.57         32.5207
525.01        32.52977
525.45        32.54372
525.89        32.53967
526.32        32.50524
526.76         32.4584
527.20        32.38915
527.64        32.28428
528.08        32.14939
528.52        31.99199
528.96        31.84648
529.40        31.76617
529.83        31.75916
530.27        31.81166
530.71        31.88339
531.15        31.91172
531.59        31.87921
532.03        31.80098
532.46        31.69841
532.90        31.62911
533.34        31.60056
533.78         31.5781
534.22         31.5447
534.66        31.51428
535.09        31.46025
535.53        31.32335
535.97        31.13661
536.41        31.03025
536.85        31.02109
537.28         31.0461
537.72         31.0984
538.16        31.18943
538.60        31.30737
539.04        31.44391
539.47        31.57163
539.91         31.6703
540.35        31.72794
540.79        31.75172
541.22        31.75706
541.66        31.78163
542.10        31.83302
542.54        31.90498
542.97        31.98632
543.41        32.07227
543.85        32.15657
544.29        32.24742
544.72        32.34406
545.16        32.46461
545.60        32.60592
546.04        32.76729
546.47        32.94691
546.91        33.13671
547.35        33.32767
547.79        33.51817
548.22        33.70284
548.66        33.86759
549.10        34.04916
549.53        34.23425
549.97        34.41596
550.41        34.50634
550.84        34.54194
551.28        34.62671
551.72        34.75027
552.15        34.92323
552.59         35.1892
553.03        35.02702
553.46        35.47821
553.90        35.60659
554.34        35.71492
554.77        35.81072
555.21        35.91837
555.65        36.04688
556.08        36.18445
556.52        36.30507
556.96        36.39735
557.39        36.54408
557.83        36.71477
558.27        36.70197
558.70        36.54387
559.14        36.52277
559.57        36.63047
560.01        36.68293
560.45         36.6851
560.88        36.75793
561.32         36.9197
561.75        37.09719
562.19        37.26969
562.63        37.39706
563.06        37.46369
563.50        37.48757
563.93        37.47318
564.37        37.52618
564.80        37.67262
565.24         37.7915
565.68        37.78121
566.11        38.30617
566.55        37.98353
566.98        37.97803
567.42        37.97189
567.85        38.06212
568.29        38.27502
568.72        38.60257
569.16        39.03111
569.60        39.30349
570.03        39.53323
570.47        39.73277
570.90        39.96391
571.34        39.82458
571.77        40.10705
572.21        40.22423
572.64        40.33152
573.08        40.39458
573.51        40.15989
573.95        40.28392
574.38        40.70036
574.82         41.0189
575.25        40.76292
575.69        40.83269
576.12        40.95627
576.56        40.60179
576.99        40.82657
577.42        40.88079
577.86        40.99218
578.29        41.59359
578.73        41.08772
579.16        40.95985
579.60        40.71301
580.03        40.78887
580.47        40.64014
580.90        40.84492
581.33        40.94384
581.77        40.95899
582.20        40.81059
582.64        40.66448
583.07          40.355
583.51        40.06257
583.94        39.90435
584.37         39.9865
584.81        40.21709
585.24        40.13852
585.68        39.82248
586.11        39.42013
586.54        39.38303
586.98        39.21011
587.41        38.97559
587.85        39.25597
588.28        38.97875
588.71        38.81483
589.15        38.95432
589.58        39.03643
590.01        38.90501
590.45        39.07384
590.88        39.37086
591.31         39.2031
591.75          38.736
592.18        38.56727
592.61        38.70753
593.05        39.42345
593.48        39.83206
593.91         39.3616
594.35        39.42277
594.78        39.14537
595.21        39.08583
595.65        39.53983
596.08        40.47277
596.51        40.41818
596.94        40.15386
597.38        40.11747
597.81        40.57695
598.24        40.84567
598.68        41.04133
599.11        41.12165
599.54        42.09459
599.97        42.03902
600.41        42.22049
600.84        42.17576
601.27        42.83426
601.70        42.96768
602.14        43.41666
602.57        43.72694
603.00        44.20028
603.43         44.0681
603.87        45.01002
604.30        45.47515
604.73        45.45281
605.16        45.72221
605.60        46.13107
606.03        46.36639
606.46        46.44096
606.89        46.78543
607.32        47.77055
607.76        48.04564
608.19        48.50998
608.62        48.81783
609.05        49.23267
609.48        49.51307
609.92        50.25682
610.35        50.47713
610.78        50.36503
611.21        50.36017
611.64        50.89795
612.07        51.33095
612.50        51.47047
612.94         51.7503
613.37        52.08066
613.80        52.14055
614.23        52.02964
614.66        52.26615
615.09        52.84807
615.52        53.23756
615.96        53.34975
616.39        53.63617
616.82         54.1507
617.25        53.72678
617.68        54.06443
618.11        54.26726
618.54        54.77482
618.97        55.07759
619.40        55.17621
619.84        55.45485
620.27        55.33702
620.70         55.5402
621.13        55.98063
621.56        54.87386
621.99        54.95406
622.42        54.89017
622.85        55.30056
623.28        55.00986
623.71        55.34018
624.14        55.56893
624.57        55.90251
625.00        55.27819
625.43        55.73993
625.86        55.57133
626.29        55.44837
626.72        55.07782
627.15        55.21678
627.58        55.18017
628.01        55.07216
628.44        54.98438
628.87        54.94701
629.30        54.20818
629.73        53.96977
630.16        53.91335
630.59        53.63861
631.02        53.55818
631.45        53.42046
631.88        53.24466
632.31        52.98401
632.74        52.73915
633.17        52.30179
633.60        51.88517
634.03        51.44089
634.46        50.96278
634.89        50.46802
635.32         50.0017
635.75        49.58156
636.18        49.15245
636.61        48.73177
637.04        48.36638
637.47        48.05205
637.89        47.77635
638.32        47.50544
638.75        47.20782
639.18         46.8753
639.61        46.61809
640.04        46.27811
640.47         46.0306
640.90        45.82798
641.33        45.66597
641.76         45.5262
642.18        45.38885
642.61        45.23688
643.04        45.08304
643.47        44.94628
643.90        44.85462
644.33        44.81548
644.76        44.82476
645.18        44.86449
645.61        44.89225
646.04        44.90803
646.47        44.92984
646.90          44.994
647.33        45.14618
647.75        45.37593
648.18        45.71375
648.61        46.14439
649.04        46.45133
649.47        46.57924
649.89        47.32604
650.32        47.43549
650.75         47.7641
651.18        47.99966
651.61         48.4557
652.03        49.14311
652.46        49.69789
652.89        50.03273
653.32        50.46631
653.74        51.17824
654.17        50.63849
654.60        51.47171
655.03        51.99138
655.46        51.79236
655.88        52.33936
656.31        54.87339
656.74        56.82789
657.16        56.13215
657.59        55.42646
658.02        54.45839
658.45        55.84184
658.87        55.50595
659.30        56.08968
659.73        56.17082
660.15        57.13938
660.58        56.45985
661.01        56.67806
661.44        57.12083
661.86        57.31168
662.29        57.22071
662.72        57.82994
663.14        58.01798
663.57        58.23207
664.00        58.22929
664.42        58.45963
664.85        58.94995
665.27        59.49575
665.70        59.94905
666.13         60.2026
666.55         60.2277
666.98        60.00712
667.41        59.65778
667.83        59.75316
668.26        59.72751
668.69        60.02574
669.11        60.40191
669.54        60.75232
669.96        61.03461
670.39        61.28095
670.82        61.49382
671.24        61.63339
671.67        61.70922
672.09        61.73952
672.52        61.76255
672.94        61.79693
673.37        61.85332
673.80        61.89292
674.22        61.94846
674.65        62.06822
675.07        62.26695
675.50        62.49971
675.92        62.72445
676.35        62.87299
676.77        62.93501
677.20        62.93247
677.62        62.91429
678.05        62.96161
678.47        63.08729
678.90        63.26382
679.32        63.46949
679.75        63.65092
680.17        63.78289
680.60        63.97796
681.02        64.19765
681.45        64.16408
681.87        63.99141
682.30        64.14742
682.72        64.60382
683.15        64.90534
683.57        64.99373
684.00        64.97437
684.42        64.92349
684.85         64.9945
685.27        65.19986
685.70         65.4408
686.12        65.64301
686.54        65.77305
686.97          65.812
687.39        65.75529
687.82        65.63639
688.24        65.67138
688.66        65.66193
689.09        65.76038
689.51        65.89857
689.94        66.04617
690.36        66.19453
690.78        66.33994
691.21         66.4891
691.63        66.63628
692.06        66.78355
692.48        66.94059
692.90        67.07042
693.33        67.12245
693.75        67.08988
694.17        66.95847
694.60        66.83617
695.02        66.89758
695.44        67.14154
695.87        67.55592
696.29        67.99629
696.71        67.94363
697.14        67.51305
697.56        67.44915
697.98        67.78661
698.41        67.98228
698.83        68.02663
699.25        68.30668
699.68        68.70295
700.10        68.89407
700.52        68.81814
700.94           68.57
701.37        68.29843
701.79        68.32859
702.21        68.58254
702.64        69.05907
703.06        69.57997
703.48         69.9038
703.90        69.95803
704.33        69.81965
704.75         69.5846
705.17        69.39463
705.59        69.31188
706.01        69.29889
706.44          69.341
706.86        69.44812
707.28        69.60075
707.70        69.76493
708.12        69.94682
708.55        70.22779
708.97        70.55353
709.39        70.68848
709.81        70.64413
710.23        70.67287
710.66        70.78752
711.08         70.8545
711.50        70.84416
711.92        70.79937
712.34        70.72993
712.76        70.64868
713.19        70.56694
713.61        70.54005
714.03        70.56992
714.45        70.65009
714.87        70.80532
715.29        71.07429
715.71        71.44282
716.13         71.8745
716.56        72.26657
716.98        72.54279
717.40        72.62873
717.82         72.5598
718.24         72.3671
718.66        72.10706
719.08        71.83421
719.50         71.5668
719.92        71.37521
720.34        71.35918
720.76        71.52918
721.19        71.82855
721.61        72.22953
722.03        72.62115
722.45        72.94446
722.87        73.20959
723.29        73.35207
723.71        73.28139
724.13        73.00652
724.55        72.56796
724.97        72.11195
725.39        71.88571
725.81         71.9518
726.23        72.22292
726.65        72.58322
727.07        72.99681
727.49        73.13917
727.91        73.26963
728.33        73.35265
728.75        73.47021
729.17        73.63733
729.59        73.80692
730.01        73.95213
730.43        74.03863
730.85        74.05379
731.27        74.01608
731.69        73.93217
732.10         73.8047
732.52        73.64675
732.94         73.4843
733.36        73.36941
733.78        73.24245
734.20        73.10408
734.62        73.23399
735.04         73.7019
735.46          73.245
735.88        74.01953
736.30        74.24138
736.72        74.53854
737.13        74.82661
737.55        75.01515
737.97        75.25095
738.39        75.42735
738.81        75.03757
739.23        74.30367
739.65        74.33334
740.06        75.01734
740.48         75.3344
740.90        75.21762
741.32        75.27753
741.74        75.54075
742.16        75.72943
742.57        75.82954
742.99        75.89278
743.41        75.90985
743.83        75.84746
744.25        75.71716
744.67        75.52852
745.08        75.36093
745.50        75.31747
745.92        75.42683
746.34        75.64417
746.75          75.909
747.17        76.08836
747.59        76.14896
748.01        76.18319
748.42        76.18978
748.84         76.0542
749.26        75.86104
749.68        75.84293
750.09        75.98672
750.51        76.15437
750.93        76.25919
751.35        76.16727
751.76        75.91901
752.18        75.77878
752.60        75.75512
753.01        75.71469
753.43        75.65504
753.85        75.57372
754.27        75.46376
754.68        75.61954
755.10         75.8603
755.52        75.58711
755.93        75.98136
756.35        76.07672
756.77        76.29108
757.18        76.49854
757.60        76.71366
758.02        77.16741
758.43        77.62345
758.85        77.09938
759.26        76.89235
759.68        75.68919
760.10        75.92536
760.51         76.3791
760.93         76.8613
761.34        77.07513
761.76        76.87974
762.18        76.95389
762.59        77.40916
763.01        77.65832
763.42        78.19786
763.84         78.2551
764.26        78.01617
764.67        77.42192
765.09        76.78465
765.50        76.78017
765.92        77.34552
766.33          77.339
766.75         77.1843
767.16        77.06911
767.58        77.02185
768.00        76.97632
768.41        76.96203
768.83        77.26424
769.24        77.70269
769.66        77.71956
770.07        77.36764
770.49        77.03675
770.90        76.92847
771.32        77.43658
771.73        78.35458
772.15        78.73722
772.56        78.50725
772.97         78.1468
773.39         77.8474
773.80        77.73042
774.22        77.83434
774.63        78.16674
775.05        78.52155
775.46        78.65572
775.88        78.47559
776.29        78.10085
776.70        77.69694
777.12        77.55287
777.53        77.74973
777.95        78.14141
778.36        78.62454
778.77        78.96608
779.19        79.10358
779.60        79.16691
780.02        79.13992
780.43        78.96736
780.84        78.75476
781.26        78.44547
781.67        78.19467
782.09        78.63838
782.50        79.50043
782.91         79.4512
783.33        78.59594
783.74        78.28619
784.15         78.5679
784.57        78.79115
784.98        78.90761
785.39        78.76934
785.81        78.54163
786.22        79.13071
786.63        80.32215
787.04        80.53919
787.46        80.38467
787.87        79.90463
788.28        79.53207
788.70        79.31319
789.11        79.29602
789.52        79.57317
789.93        79.97652
790.35        80.02078
790.76        79.73577
791.17        79.65475
791.58        79.83801
792.00        79.82359
792.41        79.61656
792.82        79.80292
793.23        80.19613
793.65        79.69513
794.06        78.72601
794.47        78.95509
794.88        79.99964
795.29        81.40807
795.71        80.23837
796.12         79.9801
796.53        79.97617
796.94        79.86542
797.35        79.77254
797.76        80.26703
798.18        81.13927
798.59        81.56387
799.00        81.41054
799.41        81.05164
799.82        80.67177
800.23        80.45345
800.64        80.47519
801.06        80.63468
801.47        80.87341
801.88        80.99399
802.29        80.93152
802.70        80.74493
803.11         80.4901
803.52        80.25327
803.93        80.09856
804.34        80.01681
804.75         80.0027
805.17        80.15205
805.58        80.52073
805.99        80.69506
806.40        80.73326
806.81        81.61395
807.22        82.90096
807.63        82.55103
808.04        80.86388
808.45         80.1153
808.86        80.50233
809.27        80.81669
809.68        80.86201
810.09        80.88358
810.50        80.82412
810.91          80.617
811.32        80.45017
811.73        80.59801
812.14        81.09577
812.55        81.92929
812.96        82.80416
813.37        82.98251
813.78        82.41602
814.19        81.73469
814.60         81.1595
815.01        80.62953
815.42        80.22477
815.83        80.08186
816.24         80.1684
816.65        80.29369
817.05         80.4134
817.46        80.56721
817.87        80.74005
818.28         80.8395
818.69         80.8518
819.10        80.76122
819.51        80.66133
819.92        80.74342
820.33        81.03964
820.74        81.48392
821.14        81.92512
821.55        82.11161
821.96        81.99274
822.37          81.652
822.78        81.22865
823.19        80.96055
823.60        80.92611
824.00        81.08163
824.41        81.29925
824.82        81.48818
825.23        81.58756
825.64        81.63213
826.04         81.6245
826.45        81.51381
826.86        81.32874
827.27        81.09898
827.68        80.86008
828.08        80.71098
828.49        80.62595
828.90        80.59106
829.31        80.67285
829.72        80.97441
830.12        81.51237
830.53        82.18839
830.94        82.76984
831.35        82.80923
831.75        82.24107
832.16        81.18594
832.57        80.03839
832.97        79.40264
833.38        79.43683
833.79        79.95016
834.20        80.69981
834.60        81.28868
835.01        81.59108
835.42        81.76983
835.82        81.87836
836.23        81.90968
836.64         81.9263
837.04        81.85609
837.45        81.84865
837.86         82.2475
838.26        83.11208
838.67        84.29495
839.08         85.3979
839.48        85.65259
839.89        84.88127
840.29         83.3785
840.70        81.78747
841.11        80.82104
841.51        80.67146
841.92        81.10773
842.33        81.89989
842.73        82.63451
843.14        83.01286
843.54          83.205
843.95        83.27223
844.35        83.37811
844.76        83.54271
845.17         83.6922
845.57        83.73978
845.98        83.53738
846.38         83.1019
846.79        82.49586
847.19        81.90874
847.60        81.60169
848.00        81.64608
848.41        81.93484
848.81        82.33045
849.22        82.49607
849.62        82.39307
850.03        82.11489
850.43        81.78753
850.84        81.53649
851.24        81.47081
851.65        81.45361
852.05        81.63136
852.46        82.11317
852.86        82.85675
853.27        83.78919
853.67        84.53922
854.07         84.7429
854.48        84.32093
854.88        83.40639
855.29        82.24078
855.69        81.44816
856.10        81.16309
856.50        81.34849
856.90        81.73034
857.31        81.84869
857.71        81.63629
858.12        81.15779
858.52        80.70534
858.92        80.62243
859.33        80.97264
859.73        81.67001
860.13        82.39356
860.54        82.65627
860.94        82.38631
861.34        81.71495
861.75        80.94363
862.15        80.61878
862.55        80.85566
862.96        81.44473
863.36        82.18263
863.76        82.61642
864.17        82.58853
864.57        82.28341
864.97        81.77078
865.38        81.15975
865.78        80.55498
866.18         79.9162
866.58        79.38299
866.99        79.20965
867.39        79.47784
867.79        80.11649
868.19        80.91441
868.60        81.50664
869.00        81.82253
869.40        81.89432
869.80        81.84541
870.21        81.92523
870.61        82.26145
871.01        82.70222
871.41        83.01128
871.81        82.86629
872.22        82.22244
872.62        81.19076
873.02         80.1155
873.42        79.57198
873.82        79.71331
874.22         80.3758
874.63        81.16281
875.03        81.44854
875.43        81.07431
875.83        80.25441
876.23        79.34354
876.63        78.88417
877.03        79.01344
877.44        79.52164
877.84        80.19616
878.24         80.6589
878.64        80.74049
879.04        80.47359
879.44        80.04844
879.84        79.80547
880.24        79.80228
880.64        79.91087
881.04        79.93852
881.44        79.60535
881.84        78.88444
882.24        77.92439
882.65        77.01664
883.05        76.58176
883.45         76.7279
883.85        77.33349
884.25        78.17804
884.65        78.87667
885.05        79.28035
885.45        79.46577
885.85        79.53766
886.25        79.67482
886.65        79.92385
887.05        80.20961
887.45        80.43878
887.85        80.47668
888.25        80.29752
888.65        79.96993
889.04        79.60533
889.44        79.39471
889.84        79.36744
890.24        79.46754
890.64         79.6056
891.04        79.63632
891.44        79.51971
891.84        79.31429
892.24        79.07512
892.64        78.87067
893.04        78.74375
893.44        78.70426
893.83        78.77224
894.23        78.92019
894.63        79.15882
895.03        79.45219
895.43         79.8466
895.83        80.42354
896.23        81.13576
896.63        81.89843
897.02        82.46635
897.42         82.4888
897.82         81.9284
898.22        80.97344
898.62        79.87997
899.01        79.01688
899.41        78.53257
899.81        78.30757
900.21        78.36457
900.61        78.72638
901.00        79.32333
901.40        80.11852
901.80        80.85437
902.20        81.10413
902.59        80.80339
902.99        80.07681
903.39        79.18344
903.79         78.5736
904.18        78.37811
904.58          78.457
904.98        78.77717
905.38          79.288
905.77        79.92588
906.17        80.74471
906.57         81.4652
906.96        81.61285
907.36        81.09733
907.76        80.05424
908.15        78.99744
908.55        78.74548
908.95        79.46935
909.34        80.92092
909.74         82.5021
910.14        83.30159
910.53        83.04029
910.93        82.05928
911.33        80.71466
911.72        79.54124
912.12        78.81789
912.52        78.38207
912.91        78.23151
913.31        78.40451
913.70         78.8538
914.10        79.54855
914.49         80.4044
914.89         81.1339
915.29         81.6495
915.68        81.98709
916.08        82.04324
916.47        81.78439
916.87        81.27293
917.26         80.5196
917.66        79.82662
918.05        79.48677
918.45        79.56711
918.84        80.04173
919.24        80.64068
919.64        81.01825
920.03        81.07619
920.42        80.86879
920.82        80.61824
921.21        80.62597
921.61        80.92979
922.00        81.45422
922.40        81.96457
922.79        82.22997
923.19        82.14355
923.58        81.84221
923.98        81.45003
924.37        81.05858
924.77        80.74191
925.16        80.41231
925.55        80.18461
925.95        80.23347
926.34        80.58709
926.74        81.17666
927.13        81.69137
927.52        81.56011
927.92        80.76245
928.31         79.4894
928.70        78.21558
929.10        77.63376
929.49        77.88839
929.89        78.70547
930.28         79.8766
930.67        80.89389
931.07        81.50736
931.46        81.93134
931.85        82.03034
932.24         81.6552
932.64        80.90408
933.03        79.79648
933.42        78.78915
933.82        78.54731
934.21         79.1956
934.60        80.62032
934.99        82.33846
935.39         83.4379
935.78          83.681
936.17        83.17615
936.56        82.38054
936.96        82.03866
937.35        82.32107
937.74        82.99014
938.13         83.5568
938.53        83.28916
938.92        82.08901
939.31        80.32125
939.70        78.55116
940.09        77.55043
940.49        77.46416
940.88        78.08277
941.27        79.12022
941.66        80.03413
942.05        80.59889
942.44        80.98339
942.84        81.21939
943.23        81.35349
943.62        81.43431
944.01        81.35697
944.40        81.27891
944.79        81.51814
945.18        82.09229
945.57        82.89996
945.97        83.54971
946.36        83.48248
946.75        82.54846
947.14        81.04116
947.53        79.36361
947.92        78.06363
948.31        77.31516
948.70        76.98866
949.09        77.04862
949.48        77.42063
949.87        78.02601
950.26         78.8681
950.65        79.80853
951.04        80.60619
951.43        81.15988
951.82        81.46182
952.21        81.53194
952.60        81.45856
952.99        81.30893
953.38         81.1005
953.77            80.9
954.16        80.81107
954.55        80.85069
954.94        80.97231
955.33        81.19354
955.72        81.51378
956.11        81.89813
956.50        82.36953
956.89        82.67657
957.28        82.41021
957.66        81.52856
958.05        80.22522
958.44        78.99711
958.83        78.56849
959.22        79.04789
959.61        80.21607
960.00         81.5828
960.39        82.22677
960.78        81.85382
961.16        80.74856
961.55        79.39029
961.94        78.35664
962.33        77.83794
962.72         77.7123
963.11        77.85328
963.49        78.07304
963.88        78.19485
964.27        78.27934
964.66        78.53982
965.04        79.32822
965.43        80.61411
965.82        82.31921
966.21         83.8217
966.60        83.96793
966.98         82.4908
967.37        79.92457
967.76        77.28007
968.15        75.81352
968.53        75.76117
968.92        76.81951
969.31        78.39236
969.69        79.26839
970.08        78.94441
970.47         77.8384
970.86        76.66797
971.24        76.44598
971.63        77.37894
972.02        79.13393
972.40        81.11958
972.79        81.87904
973.17        81.07083
973.56        79.25864
973.95        77.22391
974.33        75.94542
974.72        75.64913
975.11        75.98508
975.49        76.77029
975.88        77.53954
976.26        78.12704
976.65          78.644
977.04        78.95102
977.42        78.77758
977.81        78.09071
978.19        76.90635
978.58        75.74662
978.96        75.46925
979.35        76.21713
979.74        77.80616
980.12        79.65151
980.51        80.41104
980.89         79.8753
981.28        78.45146
981.66        76.85088
982.05        76.08158
982.43        76.38695
982.82        77.41262
983.20        78.95281
983.59        80.45159
983.97        81.73315
984.35        82.93419
984.74        83.75606
985.12        83.96645
985.51        83.49016
985.89        82.36142
986.28        81.20985
986.66        80.94719
987.04        81.82594
987.43        83.62315
987.81        85.66254
988.20        86.40891
988.58        85.46986
988.96         83.2193
989.35        80.67884
989.73        79.27222
990.12        79.30224
990.50        80.44518
990.88        81.82607
991.27        81.91854
991.65        80.38581
992.03        77.78193
992.42         75.2914
992.80        74.46536
993.18        75.63471
993.56        78.39059
993.95        81.56816
994.33        83.15665
994.71        82.37366
995.10        79.99228
995.48        77.31195
995.86        76.33536
996.24        77.52502
996.63        80.12352
997.01        83.47424
997.39        85.74452
997.77        86.11411
998.15        85.30377
998.54        83.60634
998.92        81.27308
999.30        78.73395
999.68        75.94025
1000.06        73.81084
1000.45         73.6693
1000.83        75.79435
1001.21        80.01842
1001.59        85.18051
1001.97        88.31499
1002.35        88.25067
1002.73        85.85896
1003.12        82.72404
1003.50        80.87884
1003.88        80.93617
1004.26        82.10877
1004.64        84.15669
1005.02        86.49249
1005.40        88.57142
1005.78        90.73365
1006.16        91.98629
1006.54        90.72041
1006.92        87.03747
1007.30        81.61279
1007.69        76.46144
1008.07        74.33626
1008.45        75.99104
1008.83        80.83108
1009.21        87.48412
1009.59        92.29458
1009.97        93.31181
1010.35        91.46937
1010.73        87.81745
1011.11        83.99372
1011.49        80.80567
1011.86        77.90823
1012.24        75.73933
1012.62         74.8236
1013.00        75.14885
1013.38        76.68279
1013.76        79.12006
1014.14        81.33795
1014.52         82.6179
1014.90         83.0647
1015.28        82.64304
1015.66        81.48642
1016.04        79.76956
1016.41        77.42554
1016.79        75.02238
1017.17        73.79784
1017.55        74.04433
1017.93        75.40501
1018.31        77.09251
1018.69        77.90164
1019.06        77.57165
1019.44        76.39859
1019.82        74.63937
1020.20        73.07541
1020.58        72.18218
1020.95        71.58542
1021.33        71.54943
1021.71        72.25589
1022.09        73.72852
1022.46        76.36372
1022.84        79.26135
1023.22        80.23228
1023.60        78.52599
1023.97        74.56992
1024.35        71.05819
1024.73        71.18694
