SpectraSmart Spectrum 2.9.0.0
--------- Device Information -----------
Spectrum Name :  反射率_0
Saving Time :  2024/04/27 00:28:32
Spectro-Module Model Name : SE2030-DUVN
Spectro-Module Serial Number : OS361AC55029948
Wavelength Start : 200
Wavelength End : 1025
Wavelength Unit : Wavelength(nm)
Spectrum Unit : Reflectance(%)
-----------Spectrum Setting ------------
Integration Time : 20ms
Average : 10
Boxcar : 0
Background removal :  enabled
linearity correction :  enabled
SC :  disabled
Intensity correction :  disabled
DWT denoise :  enabled
savitzky-golay :  disabled
FFT :  disabled
Running average :  disabled
Kalman :  disabled
High pass :  disabled
---------------BEGIN--------------------
Wavelength(nm)             Reflectance(%)
200.29               0
200.75        22.14352
201.21        25.42637
201.67        28.53413
202.13        29.62496
202.58        28.49759
203.04        25.98638
203.50        22.91182
203.96        21.76866
204.42        24.28573
204.88        29.78953
205.34        36.57964
205.80        41.41326
206.26         42.8981
206.72         41.8574
207.18        39.57089
207.64        36.98577
208.10        34.15995
208.55        30.74991
209.01        26.17558
209.47        22.61562
209.93        22.24598
210.39        23.92977
210.85        26.53178
211.31        30.16372
211.77        36.14322
212.23        48.61931
212.69        77.82865
213.14        121.7584
213.60        110.5297
214.06        72.54881
214.52        49.71666
214.98        41.23589
215.44        39.54568
215.90        40.33518
216.36         42.9598
216.81        46.88827
217.27        52.34447
217.73         61.9682
218.19        73.28439
218.65        73.10237
219.11        60.13132
219.57        44.54931
220.02        35.74326
220.48         38.3414
220.94         52.1153
221.40        79.28133
221.86        120.7779
222.32        154.0706
222.77        154.7728
223.23        135.2804
223.69        112.2709
224.15        96.39278
224.61        87.41209
225.06        81.41692
225.52        78.07794
225.98        76.83427
226.44        77.18703
226.90        79.27259
227.36        82.34116
227.81        84.72634
228.27        86.00351
228.73        86.22954
229.19        86.10984
229.65         86.6776
230.10         87.9474
230.56          89.617
231.02        90.81843
231.48         90.2814
231.93        87.97393
232.39        85.05729
232.85        82.39485
233.31        81.14513
233.77        81.38245
234.22        82.54522
234.68        84.34753
235.14        86.46997
235.60        88.65953
236.05        91.19299
236.51        93.07323
236.97         92.5134
237.43        89.04771
237.88           83.12
238.34        76.60394
238.80        72.93898
239.26        73.29469
239.71        77.99979
240.17        85.73325
240.63         92.1964
241.08        94.45012
241.54        92.01218
242.00        87.42104
242.46        86.50745
242.91         92.8584
243.37        106.7804
243.83        128.0097
244.28        144.1447
244.74        138.6338
245.20        114.6686
245.66        87.24088
246.11        67.17638
246.57        54.71288
247.03        46.09118
247.48        41.09476
247.94        40.39382
248.40        42.79784
248.85        46.59355
249.31        50.17515
249.77        52.29787
250.22        53.06354
250.68        52.69006
251.14        51.66655
251.59        51.64611
252.05        53.60394
252.51        57.00256
252.96         59.6293
253.42        59.92484
253.88        58.39653
254.33        55.78952
254.79         54.8807
255.25        57.87321
255.70        64.35937
256.16        73.30841
256.62        81.22395
257.07        82.67716
257.53        79.01543
257.99        73.59619
258.44        69.09396
258.90        68.06673
259.35        69.41948
259.81        72.20887
260.27        74.98903
260.72        76.03667
261.18        75.51463
261.63        73.90359
262.09        72.36221
262.55        71.47635
263.00        71.15886
263.46        71.30743
263.91        71.27167
264.37        70.66798
264.83        69.45419
265.28        67.84916
265.74        66.51952
266.19        65.89838
266.65        66.10062
267.11        66.79388
267.56        67.55596
268.02        67.73563
268.47        67.15347
268.93        66.07392
269.38        64.72398
269.84        63.53569
270.30        62.62182
270.75        61.83631
271.21        61.18953
271.66        60.62001
272.12        60.09536
272.57        59.60362
273.03        59.06596
273.48        58.30696
273.94        57.37637
274.39        56.29345
274.85        55.22333
275.31        54.20681
275.76        53.24913
276.22        52.40014
276.67        51.65159
277.13        51.14257
277.58        50.77913
278.04        50.53378
278.49        50.21947
278.95        49.72732
279.40        48.96351
279.86        48.09425
280.31        47.08332
280.77         46.0432
281.22        44.97285
281.68        43.95692
282.13        43.06168
282.59        42.51119
283.04        42.25153
283.50        42.23156
283.95        42.26067
284.41        42.06583
284.86         41.5755
285.32        40.92117
285.77        40.19648
286.22        39.61964
286.68        39.23673
287.13        38.93079
287.59        38.68439
288.04        38.41252
288.50        38.11889
288.95        37.79962
289.41        37.45527
289.86        36.98815
290.32        36.44552
290.77        35.83666
291.22        35.26632
291.68        34.87249
292.13        34.66708
292.59        34.62774
293.04        34.69289
293.50        34.79029
293.95        34.87891
294.40         34.9824
294.86        35.10895
295.31        35.25844
295.77        35.44326
296.22        35.64632
296.68        35.87412
297.13        36.12207
297.58        36.39619
298.04        36.69548
298.49         37.0243
298.95        37.40917
299.40        37.83402
299.85        38.28606
300.31        38.72305
300.76        39.06656
301.21        39.30696
301.67        39.48146
302.12        39.61016
302.58        39.79139
303.03        40.01754
303.48        40.28577
303.94        40.57491
304.39         40.8121
304.84        40.99387
305.30        41.14177
305.75        41.25796
306.20        41.40738
306.66        41.60408
307.11        41.80873
307.57        41.97555
308.02        41.97943
308.47        41.82581
308.93        41.57303
309.38        41.30566
309.83        41.20477
310.29        41.30366
310.74        41.53765
311.19        41.80536
311.65        41.93387
312.10        41.86825
312.55        41.66008
313.00        41.39106
313.46        41.18244
313.91        41.05363
314.36        40.97853
314.82        40.90223
315.27        40.75411
315.72        40.51595
316.18        40.22817
316.63        39.94175
317.08        39.74749
317.53        39.66002
317.99        39.64194
318.44        39.63214
318.89        39.52021
319.35        39.28013
319.80        38.94704
320.25        38.58369
320.70        38.29134
321.16        38.09567
321.61         37.9795
322.06        37.89303
322.51        37.75808
322.97        37.54776
323.42        37.29056
323.87        37.03463
324.32        36.86341
324.78         36.7789
325.23         36.7712
325.68         36.7494
326.13        36.57572
326.59        36.22442
327.04          35.761
327.49         35.2845
327.94         34.9524
328.39        34.80019
328.85        34.76318
329.30         34.8094
329.75        34.80867
330.20        34.71597
330.66        34.56273
331.11        34.38103
331.56        34.19382
332.01        34.01519
332.46        33.82441
332.92        33.62186
333.37        33.47159
333.82        33.36838
334.27        33.31536
334.72        33.28126
335.17         33.2047
335.63        33.06946
336.08        32.90841
336.53        32.76046
336.98        32.70555
337.43        32.75496
337.88        32.86627
338.34        32.98575
338.79        33.05875
339.24        33.04758
339.69        32.98441
340.14        32.85099
340.59        32.62101
341.05        32.32333
341.50        31.96976
341.95        31.67205
342.40        31.59937
342.85        31.77496
343.30        32.14298
343.75          32.564
344.20        32.80511
344.66         32.8042
345.11        32.62356
345.56        32.36292
346.01        32.18813
346.46         32.1532
346.91        32.21001
347.36        32.31079
347.81        32.38611
348.26        32.41161
348.72        32.41082
349.17        32.40711
349.62        32.44516
350.07        32.52909
350.52        32.64111
350.97        32.71741
351.42        32.66286
351.87        32.46828
352.32        32.17315
352.77        31.87633
353.22        31.72024
353.67        31.73079
354.13        31.86401
354.58        32.02995
355.03         32.0774
355.48        31.96367
355.93        31.73542
356.38        31.46801
356.83        31.27386
357.28        31.17786
357.73        31.13864
358.18        31.10172
358.63        30.98475
359.08        30.76894
359.53         30.4895
359.98        30.19071
360.43        29.93077
360.88        29.72392
361.33        29.55194
361.78        29.39144
362.23        29.20712
362.68        28.99617
363.13        28.78053
363.58        28.57934
364.03        28.41846
364.48        28.30021
364.93        28.20296
365.38        28.12484
365.83        28.06689
366.28        28.01826
366.73        27.97581
367.18        27.89478
367.63        27.70649
368.08         27.4056
368.53        27.01808
368.98        26.61686
369.43        26.31685
369.88        26.14963
370.33        26.09097
370.78        26.08255
371.23        26.02267
371.68        25.88242
372.13        25.68929
372.58        25.49636
373.03        25.38815
373.48        25.37797
373.93        25.42686
374.38        25.47091
374.83        25.41519
375.28        25.23795
375.72        24.96936
376.17        24.67883
376.62        24.43592
377.07        24.26748
377.52        24.16035
377.97        24.09153
378.42        24.02714
378.87        23.95293
379.32        23.86671
379.77        23.79901
380.22        23.79304
380.67        23.84591
381.11         23.9506
381.56        24.00347
382.01        23.86056
382.46        23.51345
382.91         23.0338
383.36        22.57376
383.81        22.34071
384.26        22.36459
384.71        22.57447
385.15        22.85426
385.60        23.00811
386.05        22.97149
386.50        22.80258
386.95        22.55916
387.40        22.33416
387.85        22.16301
388.29        22.00403
388.74          21.877
389.19        21.75829
389.64        21.64266
390.09        21.54229
390.54        21.46028
390.98        21.39029
391.43        21.34489
391.88        21.31754
392.33        21.30543
392.78        21.30689
393.23        21.31767
393.67        21.32298
394.12        21.33898
394.57        21.34955
395.02        21.34983
395.47        21.33303
395.91        21.30288
396.36        21.25571
396.81         21.2046
397.26        21.15588
397.71        21.09711
398.15        21.02219
398.60         20.9582
399.05        20.82387
399.50        20.66754
399.95        20.70859
400.39        20.88608
400.84        20.81981
401.29        20.52619
401.74         20.3575
402.18        20.33649
402.63        20.25032
403.08        20.13075
403.53         20.1176
403.97        20.21467
404.42        20.38196
404.87        20.54386
405.32        20.57812
405.76        20.45803
406.21        20.23232
406.66        19.98779
407.11        19.86177
407.55        19.89233
408.00        20.03244
408.45        20.20967
408.90        20.28236
409.34        20.20951
409.79        20.04484
410.24        19.86223
410.68        19.75933
411.13        19.76301
411.58         19.8342
412.03        19.92834
412.47        19.97269
412.92        19.93619
413.37        19.85436
413.81        19.74953
414.26        19.66726
414.71         19.6131
415.15        19.57799
415.60        19.55398
416.05        19.54953
416.49        19.56549
416.94        19.60022
417.39        19.64264
417.83        19.67055
418.28        19.67803
418.73        19.66626
419.17        19.64983
419.62        19.65546
420.07        19.68782
420.51        19.73222
420.96        19.77407
421.41        19.78601
421.85        19.75751
422.30        19.69571
422.74        19.60956
423.19        19.60032
423.64        19.64355
424.08        19.60815
424.53        19.50733
424.98        19.51595
425.42        19.65288
425.87        19.77747
426.31        19.84962
426.76        19.95173
427.21        20.01226
427.65        19.77287
428.10        19.36226
428.54        19.18225
428.99        19.27948
429.44        19.52837
429.88        19.80187
430.33        19.82378
430.77        19.62585
431.22        19.61633
431.66         19.8002
432.11        19.84343
432.56        19.75447
433.00        19.79471
433.45        19.88421
433.89        19.74967
434.34        19.53133
434.78        19.13145
435.23        19.62269
435.67        19.73008
436.12        19.72053
436.57        19.65175
437.01        19.55792
437.46         19.5064
437.90         19.5004
438.35        19.46816
438.79        19.41041
439.24         19.3952
439.68        19.42459
440.13        19.47966
440.57        19.54574
441.02        19.60932
441.46        19.65807
441.91        19.66368
442.35         19.6319
442.80        19.72341
443.24        19.87862
443.69        19.85947
444.13        19.69407
444.58         19.6477
445.02        19.72903
445.47        19.80082
445.91         19.8314
446.36        19.83947
446.80        19.81474
447.24        19.75774
447.69        19.69596
448.13        19.66369
448.58        19.67364
449.02        19.71051
449.47        19.75836
449.91        19.78131
450.36        19.77536
450.80        19.74695
451.25        19.71194
451.69        19.68106
452.13        19.66162
452.58        19.64559
453.02        19.62934
453.47         19.6113
453.91        19.59037
454.36        19.57264
454.80        19.55034
455.24        19.50875
455.69        19.45376
456.13        19.37813
456.58        19.31828
457.02        19.29796
457.46        19.32942
457.91        19.40293
458.35        19.47378
458.79        19.47734
459.24        19.41841
459.68        19.30577
460.13        19.20676
460.57        19.17545
461.01        19.23716
461.46        19.35402
461.90        19.49723
462.34        19.60252
462.79        19.64185
463.23        19.64259
463.68        19.60024
464.12        19.52136
464.56        19.41646
465.01        19.31146
465.45        19.21137
465.89        19.17711
466.34        19.21325
466.78        19.29922
467.22          19.415
467.67        19.50231
468.11        19.55222
468.55        19.57089
468.99        19.56656
469.44         19.5525
469.88        19.53849
470.32        19.51803
470.77        19.50386
471.21        19.52159
471.65        19.57099
472.10        19.64603
472.54        19.72107
472.98        19.76135
473.42        19.75769
473.87        19.72726
474.31        19.67151
474.75        19.61214
475.20        19.56418
475.64        19.51907
476.08        19.48917
476.52        19.48197
476.97        19.49921
477.41        19.54903
477.85        19.63046
478.29        19.71032
478.74        19.79593
479.18        19.93443
479.62        20.09575
480.06        20.20149
480.50        20.24456
480.95        20.23378
481.39        20.17424
481.83        20.26842
482.27        20.22834
482.72        20.29684
483.16        20.38198
483.60        20.42447
484.04        20.40133
484.48        20.46265
484.93        20.68939
485.37        20.54669
485.81        20.69167
486.25        21.09623
486.69        21.09767
487.14        20.94366
487.58        21.65582
488.02        21.57804
488.46        21.11749
488.90         21.3522
489.34        21.04655
489.79        21.42743
490.23        21.62015
490.67        21.80779
491.11        21.84628
491.55        21.82449
491.99        21.80479
492.43        21.84354
492.88        21.96635
493.32        22.13128
493.76        22.31219
494.20        22.48973
494.64        22.65446
495.08        22.79663
495.52        22.91482
495.96        23.06605
496.41        23.23843
496.85        23.29471
497.29        23.24655
497.73        23.43737
498.17        23.54441
498.61        23.67508
499.05        23.72226
499.49        23.77481
499.93        23.79227
500.37        23.97758
500.82        24.27323
501.26        24.48101
501.70        24.57427
502.14        24.65897
502.58        24.75631
503.02        24.85057
503.46         24.9482
503.90        25.05362
504.34        25.14599
504.78        25.19336
505.22        25.19214
505.66         25.1534
506.10        25.11864
506.54        25.14558
506.98        25.24408
507.42        25.40891
507.86        25.59642
508.30        25.66236
508.74        25.70201
509.18        25.64941
509.62        25.58119
510.06        25.56399
510.50        25.61819
510.94        25.71975
511.38        25.84272
511.82        25.94859
512.26        26.02325
512.70        26.08029
513.14         26.1251
513.58        26.16527
514.02         26.2038
514.46        26.23286
514.90        26.25637
515.34         26.2837
515.78        26.31554
516.22        26.35166
516.66        26.37973
517.10         26.3786
517.54        26.34576
517.98        26.28878
518.42        26.22798
518.86        26.19517
519.30        26.19806
519.74        26.22825
520.18        26.26575
520.62        26.27832
521.06        26.25853
521.50        26.21584
521.93        26.17048
522.37        26.14706
522.81        26.15419
523.25        26.17843
523.69        26.20112
524.13        26.19504
524.57        26.15232
525.01        26.08168
525.45        25.99322
525.89        25.90279
526.32        25.81639
526.76        25.73929
527.20        25.66869
527.64        25.60283
528.08        25.54097
528.52        25.48197
528.96        25.43466
529.40        25.41116
529.83        25.40966
530.27        25.42775
530.71        25.43666
531.15        25.39473
531.59        25.29651
532.03        25.15424
532.46         25.0061
532.90        24.92965
533.34        24.93532
533.78        24.98822
534.22        25.04465
534.66        25.06717
535.09        25.02435
535.53        24.88134
535.97        24.69209
536.41        24.60543
536.85        24.64248
537.28        24.73406
537.72         24.8482
538.16        24.95234
538.60        25.02706
539.04        25.08443
539.47        25.11837
539.91        25.13484
540.35        25.13575
540.79        25.12256
541.22        25.11629
541.66        25.16051
542.10        25.26016
542.54        25.40465
542.97        25.56669
543.41        25.71233
543.85        25.82704
544.29        25.92192
544.72        26.00515
545.16        26.10834
545.60        26.23368
546.04        26.37532
546.47        26.52865
546.91        26.68169
547.35        26.82836
547.79         26.9757
548.22        27.12301
548.66        27.26195
549.10        27.42488
549.53        27.59935
549.97        27.78677
550.41        27.92699
550.84        28.04579
551.28        28.21836
551.72        28.41685
552.15        28.61999
552.59        28.85642
553.03        28.70894
553.46        29.04416
553.90        29.11572
554.34          29.181
554.77        29.24229
555.21        29.32507
555.65        29.44388
556.08        29.58896
556.52        29.73857
556.96        29.87052
557.39        30.03219
557.83        30.19372
558.27         30.1873
558.70        30.05649
559.14        30.05407
559.57        30.17698
560.01        30.26675
560.45        30.31104
560.88        30.38613
561.32        30.50302
561.75        30.60825
562.19        30.70409
562.63        30.78689
563.06        30.85042
563.50        30.90266
563.93        30.92583
564.37        30.97238
564.80        31.05987
565.24        31.10305
565.68        31.04631
566.11        31.47748
566.55        31.26642
566.98        31.35075
567.42        31.44565
567.85        31.59541
568.29        31.80905
568.72        32.09393
569.16        32.44259
569.60        32.64418
570.03        32.80222
570.47        32.95873
570.90        33.10892
571.34        33.04302
571.77        33.31261
572.21        33.48926
572.64         33.6794
573.08         33.7739
573.51        33.81413
573.95           33.88
574.38        34.05469
574.82        34.27657
575.25        34.11835
575.69        34.30611
576.12        34.10681
576.56        34.03342
576.99        34.41479
577.42        34.33671
577.86         34.3838
578.29         34.7743
578.73        34.56991
579.16        34.43879
579.60        34.05155
580.03        34.03142
580.47         33.9558
580.90        34.18206
581.33        34.03614
581.77        34.41523
582.20        34.01802
582.64        34.07473
583.07        33.68875
583.51        33.46713
583.94        33.37106
584.37        33.37623
584.81        33.42831
585.24        33.32753
585.68        33.15401
586.11        32.74723
586.54        32.81729
586.98        32.67013
587.41        32.46816
587.85        32.63628
588.28        32.36622
588.71        32.37573
589.15        32.15743
589.58        32.57238
590.01        32.35889
590.45        32.36371
590.88        32.43157
591.31        32.34137
591.75        32.24758
592.18        32.11858
592.61        31.96864
593.05        32.64524
593.48        32.96317
593.91        32.67903
594.35        32.69269
594.78        32.59644
595.21        32.77578
595.65        33.02264
596.08        33.37697
596.51        33.59312
596.94        33.56966
597.38        33.66601
597.81        33.82116
598.24        34.27218
598.68         34.4647
599.11        34.34422
599.54        35.30479
599.97        35.20654
600.41        35.54712
600.84        35.53627
601.27        36.03022
601.70         36.1554
602.14        36.52642
602.57        36.76466
603.00         37.1436
603.43        37.18869
603.87        38.25158
604.30        38.69193
604.73        39.04186
605.16        38.78613
605.60        39.39708
606.03         39.6358
606.46        39.92991
606.89        39.98571
607.32        40.74321
607.76        41.01716
608.19        41.38483
608.62        41.66425
609.05        42.00507
609.48        42.28816
609.92        43.00265
610.35        43.04567
610.78        42.91588
611.21        43.23082
611.64        43.43381
612.07         43.8272
612.50        43.95091
612.94        44.19636
613.37        44.48339
613.80        44.55249
614.23        44.45406
614.66        44.70747
615.09        45.33001
615.52        45.58291
615.96        45.38427
616.39        46.04871
616.82         46.3924
617.25        46.00126
617.68        46.55843
618.11         46.7012
618.54        46.99776
618.97        47.08417
619.40        47.00197
619.84         47.1932
620.27        47.21668
620.70        47.40664
621.13        47.56208
621.56        47.43406
621.99        47.10517
622.42        47.07866
622.85        47.35219
623.28        47.42063
623.71        47.34045
624.14        47.35068
624.57        47.64096
625.00        47.46638
625.43        47.53407
625.86        47.42546
626.29        47.38377
626.72        47.09285
627.15        47.15268
627.58        47.07051
628.01         46.9854
628.44        46.84677
628.87        46.65076
629.30        46.41156
629.73        46.15701
630.16        45.94369
630.59        45.78069
631.02        45.64356
631.45        45.51295
631.88        45.36059
632.31        45.16909
632.74        44.94069
633.17         44.6601
633.60        44.30515
634.03        43.87999
634.46        43.39583
634.89        42.88356
635.32        42.40338
635.75        41.97833
636.18        41.55447
636.61        41.15219
637.04        40.82139
637.47        40.55906
637.89        40.34841
638.32        40.13465
638.75        39.86858
639.18        39.54008
639.61        39.16382
640.04        38.79516
640.47        38.52075
640.90        38.35802
641.33        38.28459
641.76        38.24339
642.18        38.14449
642.61        37.95607
643.04        37.71375
643.47        37.48237
643.90         37.3637
644.33        37.38211
644.76        37.50703
645.18        37.67651
645.61        37.78249
646.04        37.80157
646.47        37.76612
646.90        37.74318
647.33        37.83122
647.75        38.04518
648.18        38.39698
648.61         38.8332
649.04        39.14663
649.47        39.28479
649.89        39.81834
650.32         39.7602
650.75        40.20885
651.18        40.79759
651.61        41.17417
652.03        41.36653
652.46        41.72244
652.89        42.25968
653.32        42.70875
653.74         43.1543
654.17        43.46288
654.60        44.12718
655.03        44.61089
655.46        44.17991
655.88         44.7194
656.31        47.08441
656.74        49.40131
657.16        48.83616
657.59        48.39894
658.02        47.34095
658.45        47.86301
658.87        47.60232
659.30        47.67775
659.73        48.15371
660.15        48.80902
660.58        48.47082
661.01        48.67767
661.44         49.0494
661.86        49.11343
662.29        48.88213
662.72         49.3189
663.14        49.47153
663.57        49.66407
664.00        49.65622
664.42        49.81376
664.85        50.15085
665.27        50.49379
665.70         50.7588
666.13        50.93134
666.55         51.0001
666.98        50.91836
667.41        50.74164
667.83        50.89163
668.26        50.86626
668.69        51.06629
669.11        51.30069
669.54        51.50582
669.96        51.66141
670.39        51.80302
670.82        51.93875
671.24        52.01477
671.67        52.07031
672.09        52.13957
672.52        52.38641
672.94        52.47528
673.37        52.45768
673.80        52.42353
674.22        52.42337
674.65        52.46318
675.07        52.56724
675.50         52.7255
675.92        52.89466
676.35        52.99487
676.77        53.01299
677.20        52.96945
677.62        52.92495
678.05         52.9771
678.47         53.1422
678.90        53.38806
679.32        53.64665
679.75        53.82141
680.17        53.88479
680.60        53.87464
681.02        53.84087
681.45        53.85731
681.87        53.95958
682.30        54.11544
682.72        54.31344
683.15        54.50805
683.57        54.68667
684.00        54.82772
684.42        54.95435
684.85        55.10998
685.27        55.28387
685.70        55.50885
686.12        55.72293
686.54         55.7202
686.97        55.55555
687.39        55.56889
687.82        55.74071
688.24        55.79473
688.66        55.72852
689.09        55.67393
689.51        55.68249
689.94        55.83107
690.36        56.07981
690.78        56.17298
691.21        56.13548
691.63        56.23024
692.06        56.45775
692.48        56.64087
692.90        56.73647
693.33        56.77956
693.75        56.76379
694.17        56.65818
694.60        56.55212
695.02        56.58163
695.44        56.76661
695.87        57.12899
696.29        57.54449
696.71        57.59687
697.14        57.33173
697.56        57.20055
697.98        57.27606
698.41        57.34867
698.83        57.42813
699.25        57.63263
699.68        57.98378
700.10        58.14293
700.52        58.09324
700.94        57.91858
701.37        57.72662
701.79        57.70454
702.21        57.89082
702.64        58.17627
703.06        58.49534
703.48        58.80634
703.90        59.02657
704.33        59.02058
704.75        58.84652
705.17        58.71998
705.59        58.67698
706.01        58.65136
706.44        58.68023
706.86        58.60888
707.28         58.8733
707.70        59.10501
708.12        59.38663
708.55        59.58676
708.97        59.69799
709.39        59.79336
709.81        59.87452
710.23        59.91624
710.66        59.92197
711.08        59.92891
711.50        59.92091
711.92         59.8767
712.34          59.805
712.76         59.7308
713.19        59.67074
713.61        59.68114
714.03        59.76234
714.45        59.90303
714.87        60.09879
715.29        60.34672
715.71        60.62871
716.13        60.92044
716.56        61.17142
716.98        61.38249
717.40        61.50542
717.82        61.54993
718.24        61.49455
718.66         61.3097
719.08        61.02684
719.50        60.68649
719.92        60.38916
720.34        60.29645
720.76        60.43905
721.19        60.68622
721.61         61.1034
722.03        61.48404
722.45        61.79533
722.87        62.04999
723.29        62.18766
723.71        62.11859
724.13        61.84996
724.55        61.42224
724.97         60.9697
725.39        60.72062
725.81        60.73577
726.23        60.93751
726.65        61.23497
727.07        61.60711
727.49        61.77726
727.91        61.96026
728.33        62.10296
728.75        62.23471
729.17        62.35983
729.59        62.45214
730.01        62.51198
730.43        62.54918
730.85         62.5662
731.27        62.56672
731.69        62.55017
732.10        62.50968
732.52        62.44595
732.94        62.37731
733.36        62.33168
733.78        62.23662
734.20        62.08729
734.62        62.13124
735.04        62.42605
735.46        61.97443
735.88        62.42027
736.30        62.60385
736.72        62.96378
737.13        63.27464
737.55        63.43379
737.97        63.56404
738.39        63.62904
738.81        63.41234
739.23        63.05433
739.65         63.1331
740.06        63.54426
740.48        63.76608
740.90        63.61569
741.32         63.5555
741.74        63.60139
742.16        63.65441
742.57        63.72428
742.99        63.85342
743.41        63.99366
743.83        63.97289
744.25        63.81615
744.67        63.71493
745.08        63.71902
745.50        63.73774
745.92        63.77821
746.34        63.89246
746.75        64.04321
747.17        64.08963
747.59        64.02735
748.01        63.98861
748.42        63.95219
748.84         63.7985
749.26        63.63852
749.68        63.57399
750.09        63.66535
750.51        64.27881
750.93        65.10272
751.35         64.9895
751.76        64.08408
752.18        63.67136
752.60        63.81751
753.01        63.80145
753.43        63.61272
753.85        63.46837
754.27        63.60205
754.68        63.82838
755.10        64.12666
755.52        64.19482
755.93         64.0563
756.35        64.07708
756.77        64.35061
757.18        64.52097
757.60        64.56384
758.02        65.09304
758.43        65.93089
758.85        65.06425
759.26        64.86353
759.68        64.27501
760.10        64.16692
760.51        64.58779
760.93        65.14684
761.34        64.88798
761.76         65.3248
762.18        65.16595
762.59        65.04631
763.01        65.15277
763.42        65.51444
763.84        65.71876
764.26        65.69127
764.67        65.48479
765.09        65.23183
765.50        65.11312
765.92        65.16391
766.33        65.17846
766.75        65.06562
767.16        64.96565
767.58        64.88974
768.00        64.77396
768.41        64.69402
768.83        65.05858
769.24        65.64915
769.66        65.50121
770.07        64.77695
770.49        64.54556
770.90        64.90138
771.32        65.39796
771.73        65.86679
772.15        66.09791
772.56        66.04654
772.97        65.80843
773.39        65.50872
773.80        65.33294
774.22        65.31902
774.63        65.46658
775.05        65.66357
775.46        65.79658
775.88        65.79923
776.29        65.73979
776.70        65.67722
777.12        65.72107
777.53        65.89923
777.95         66.1248
778.36        66.34354
778.77        66.43269
779.19        66.38688
779.60        66.27825
780.02        66.11225
780.43        65.99336
780.84        65.97862
781.26        65.70481
781.67        65.36199
782.09         66.0062
782.50        67.29053
782.91        67.39167
783.33        66.40093
783.74        66.04945
784.15        66.40968
784.57        66.50738
784.98        66.33528
785.39        66.23438
785.81        66.27013
786.22        66.59259
786.63        67.08089
787.04         67.2984
787.46        67.21085
787.87        67.01642
788.28        66.83663
788.70        66.76315
789.11        66.81168
789.52        66.97807
789.93        67.18205
790.35        67.27806
790.76        67.24058
791.17        67.11191
791.58        66.96969
792.00        66.86385
792.41        66.83236
792.82        66.99404
793.23         67.2549
793.65        67.11734
794.06        66.71607
794.47        66.86512
794.88        67.46283
795.29        67.66263
795.71        67.39019
796.12        67.28423
796.53        67.37863
796.94          67.136
797.35        66.73098
797.76         67.0853
798.18        68.01492
798.59        68.44067
799.00        68.23448
799.41        67.97228
799.82        67.78189
800.23        67.62876
800.64        67.56311
801.06        67.55847
801.47        67.60999
801.88         67.6219
802.29        67.56688
802.70        67.47268
803.11        67.36224
803.52        67.27106
803.93        67.23186
804.34        67.23829
804.75        67.29163
805.17        67.47138
805.58        67.82076
805.99         68.0233
806.40        68.09828
806.81        68.73117
807.22        69.59769
807.63         69.2114
808.04        67.82946
808.45        67.18185
808.86        67.43065
809.27        67.67638
809.68        67.75572
810.09        67.81193
810.50        67.79193
810.91        67.65842
811.32        67.55601
811.73        67.71353
812.14        68.16386
812.55        68.83128
812.96        69.49306
813.37        69.73557
813.78        69.44972
814.19         68.7954
814.60        68.01271
815.01        67.42079
815.42        67.10151
815.83        66.96771
816.24        66.97123
816.65        67.01757
817.05        67.07124
817.46        67.15456
817.87        67.26305
818.28        67.32941
818.69        67.34249
819.10         67.2829
819.51        67.23177
819.92        67.35203
820.33        67.66414
820.74        68.10956
821.14        68.53295
821.55        68.68021
821.96        68.50485
822.37        68.09509
822.78        67.61169
823.19        67.32742
823.60        67.33427
824.00        67.58208
824.41        67.93966
824.82        68.27894
825.23        68.52532
825.64        68.71136
826.04        68.84593
826.45        68.90495
826.86        68.90713
827.27         68.8531
827.68        68.74322
828.08         68.6206
828.49        68.45271
828.90        68.25186
829.31        68.09528
829.72        68.09819
830.12        68.30125
830.53        68.63465
830.94        68.93742
831.35        68.88512
831.75        68.43227
832.16        67.65499
832.57        66.85848
832.97        66.50699
833.38        66.69881
833.79        67.26689
834.20        67.95798
834.60        68.36747
835.01        68.38971
835.42        68.19534
835.82          67.904
836.23        67.64821
836.64        67.53229
837.04        67.46538
837.45        67.55857
837.86        68.06291
838.26        69.00201
838.67        70.26654
839.08        71.45168
839.48         71.7847
839.89        71.08949
840.29        69.64108
840.70        68.09447
841.11        67.22044
841.51        67.21378
841.92        67.83846
842.33         68.8092
842.73        69.59996
843.14        69.90419
843.54         69.9273
843.95        69.80955
844.35        69.82926
844.76        70.04219
845.17        70.33067
845.57        70.57845
845.98        70.59373
846.38        70.35742
846.79        69.94426
847.19        69.49437
847.60        69.19428
848.00        69.10839
848.41        69.15619
848.81        69.27476
849.22        69.27522
849.62        69.14948
850.03         68.9502
850.43        68.74678
850.84         68.5764
851.24        68.50986
851.65        68.46733
852.05        68.56364
852.46        68.88317
852.86        69.40425
853.27        70.06205
853.67        70.62038
854.07        70.87805
854.48        70.77872
854.88        70.41064
855.29        69.85506
855.69        69.40936
856.10        69.11292
856.50        68.97111
856.90          68.911
857.31        68.82131
857.71        68.71664
858.12        68.58316
858.52        68.47229
858.92           68.34
859.33        68.17383
859.73        68.02967
860.13        67.88086
860.54         67.7169
860.94         67.5839
861.34        67.45673
861.75        67.40456
862.15         67.5831
862.55        67.97802
862.96        68.50007
863.36        69.00378
863.76        69.16364
864.17        68.88784
864.57        68.30215
864.97        67.54904
865.38        66.86037
865.78        66.35637
866.18         66.0006
866.58        65.79654
866.99         65.7379
867.39        65.83562
867.79        66.08471
868.19        66.47641
868.60        66.96431
869.00        67.54538
869.40        68.18518
869.80        68.77653
870.21        69.12782
870.61        69.22989
871.01        69.07761
871.41        68.76645
871.81        68.44249
872.22        68.14797
872.62        67.85627
873.02        67.59721
873.42        67.40147
873.82        67.28226
874.22        67.25847
874.63        67.27211
875.03        67.23885
875.43         67.1205
875.83        66.92027
876.23        66.72561
876.63        66.67951
877.03         66.8078
877.44         67.0518
877.84        67.27881
878.24        67.28019
878.64        66.97792
879.04        66.31284
879.44        65.59335
879.84        65.39011
880.24        65.76589
880.64         66.5163
881.04        67.24628
881.44        67.32612
881.84        66.62846
882.24        65.38811
882.65        64.07363
883.05        63.40654
883.45        63.57339
883.85         64.3551
884.25        65.42503
884.65        66.21924
885.05         66.5408
885.45         66.5566
885.85        66.42095
886.25        66.37241
886.65        66.48415
887.05        66.64349
887.45        66.79991
887.85        66.89893
888.25        66.90977
888.65        66.87282
889.04        66.77377
889.44        66.59991
889.84        66.34907
890.24        66.03324
890.64        65.70338
891.04        65.45108
891.44        65.30762
891.84        65.26119
892.24        65.27853
892.64        65.29431
893.04         65.3018
893.44        65.34017
893.83        65.44586
894.23        65.62296
894.63        65.88654
895.03        66.18402
895.43        66.52795
895.83        66.95664
896.23         67.4269
896.63        67.88179
897.02        68.15755
897.42         68.0289
897.82        67.47795
898.22         66.6459
898.62        65.70837
899.01        64.90784
899.41        64.36285
899.81        64.01993
900.21        63.93054
900.61        64.16314
901.00        64.68209
901.40        65.43259
901.80        66.23077
902.20        66.77354
902.59        66.98786
902.99        66.93681
903.39         66.7064
903.79        66.46789
904.18        66.27744
904.58        66.07113
904.98        65.94197
905.38        66.03668
905.77        66.36483
906.17         66.9444
906.57        67.48525
906.96        67.48906
907.36        66.86457
907.76        65.77135
908.15        64.73305
908.55        64.56742
908.95        65.44015
909.34        67.09473
909.74        68.89046
910.14        69.84098
910.53        69.63967
910.93        68.61546
911.33        67.20605
911.72        66.08595
912.12          65.541
912.52        65.37589
912.91        65.43765
913.31        65.51891
913.70        65.54852
914.10        65.58831
914.49          65.767
914.89        66.18122
915.29        66.84205
915.68        67.66707
916.08        68.36349
916.47        68.54892
916.87        68.16488
917.26        67.32708
917.66        66.41699
918.05        65.86449
918.45        65.78366
918.84        66.10128
919.24        66.56136
919.64        66.84248
920.03        66.84653
920.42        66.63393
920.82        66.42168
921.21        66.48604
921.61        66.86612
922.00         67.5037
922.40        68.11488
922.79        68.35956
923.19        68.12466
923.58        67.56135
923.98        66.96072
924.37         66.6852
924.77        66.82949
925.16          67.231
925.55        67.72743
925.95        68.01746
926.34        68.00964
926.74        67.78677
927.13        67.37424
927.52        66.74138
927.92        65.99642
928.31        65.17073
928.70        64.46241
929.10        64.14407
929.49        64.25064
929.89        64.64711
930.28         65.3081
930.67        66.05406
931.07        66.74474
931.46        67.47745
931.85        67.96729
932.24        67.82125
932.64        67.06582
933.03        65.81112
933.42        64.62408
933.82         64.3378
934.21        65.10789
934.60         66.7368
934.99        68.66486
935.39        69.85362
935.78          70.006
936.17          69.305
936.56        68.21503
936.96        67.48273
937.35        67.32166
937.74        67.51668
938.13        67.71713
938.53        67.40805
938.92        66.51248
939.31        65.29067
939.70        64.13478
940.09        63.56314
940.49        63.65559
940.88        64.26809
941.27        65.14067
941.66        65.79323
942.05        66.05918
942.44        66.09792
942.84        66.04878
943.23        66.12976
943.62         66.4126
944.01        66.75011
944.40        67.16885
944.79        67.74951
945.18        68.44627
945.57        69.23611
945.97        69.79002
946.36        69.65193
946.75        68.72945
947.14        67.25907
947.53        65.69801
947.92         64.6919
948.31        64.39578
948.70        64.63621
949.09        65.20387
949.48         65.7178
949.87        66.01676
950.26        66.19182
950.65        66.26434
951.04        66.27786
951.43        66.24721
951.82        66.11489
952.21        65.89058
952.60        65.61833
952.99        65.34812
953.38         65.1469
953.77        65.02369
954.16        64.97626
954.55        64.99338
954.94        65.00759
955.33        65.13961
955.72        65.59289
956.11        66.35501
956.50        67.37357
956.89        68.15984
957.28        67.91264
957.66        66.53136
958.05        64.37512
958.44        62.23184
958.83        61.22288
959.22        61.56026
959.61        62.92825
960.00        64.72914
960.39        65.81864
960.78        65.79554
961.16        64.99607
961.55        63.91646
961.94         63.2024
962.33        63.05097
962.72         63.2752
963.11        63.68257
963.49        63.97628
963.88        63.96144
964.27        63.74779
964.66        63.58934
965.04        63.86757
965.43        64.58354
965.82        65.66048
966.21        66.59493
966.60         66.4634
966.98        65.08199
967.37        62.91734
967.76        60.78543
968.15         59.6876
968.53        59.80825
968.92        60.89219
969.31        62.46715
969.69        63.55535
970.08        63.70067
970.47        63.18876
970.86        62.53631
971.24        62.50008
971.63        63.24739
972.02        64.53745
972.40        65.90805
972.79        66.24657
973.17        65.33147
973.56        63.60208
973.95        61.77157
974.33        60.71744
974.72        60.61975
975.11        61.20187
975.49        62.13317
975.88        62.70993
976.26        62.72146
976.65        62.34995
977.04         61.8165
977.42        61.42184
977.81        61.23745
978.19         61.1306
978.58        61.18644
978.96        61.52245
979.35         62.1049
979.74        62.93818
980.12        63.84946
980.51        64.28297
980.89        64.21863
981.28        63.75816
981.66        63.21812
982.05        63.04226
982.43         63.3499
982.82        64.00477
983.20        64.92854
983.59        65.84617
983.97        66.69403
984.35        67.49549
984.74        68.06996
985.12        68.37836
985.51        68.33033
985.89        67.91595
986.28        67.37074
986.66         66.9848
987.04         66.8874
987.43        67.01016
987.81        67.12385
988.20        66.68506
988.58         65.6367
988.96        64.11406
989.35        62.62928
989.73        61.87304
990.12        61.94815
990.50        62.73359
990.88        63.63175
991.27        63.59223
991.65        62.41759
992.03        60.49736
992.42        58.72113
992.80        58.30592
993.18         59.4968
993.56        61.94724
993.95        64.81055
994.33        66.60077
994.71        66.63813
995.10        65.44721
995.48        63.77404
995.86        62.81012
996.24        62.87594
996.63        63.49944
997.01        64.48448
997.39        65.12003
997.77        65.08838
998.15        64.73001
998.54        64.12464
998.92         63.2098
999.30        62.13426
999.68        60.91223
1000.06        59.93906
1000.45        59.74295
1000.83        60.50187
1001.21         62.1714
1001.59         64.3317
1001.97        65.85602
1002.35        66.29021
1002.73        65.91822
1003.12        65.42032
1003.50        65.62582
1003.88        66.81581
1004.26        68.60206
1004.64        70.66211
1005.02        72.24426
1005.40        72.96429
1005.78         73.2431
1006.16        72.78851
1006.54        71.14268
1006.92        68.53119
1007.30        65.15272
1007.69        62.41211
1008.07        62.17959
1008.45        64.91531
1008.83        70.29352
1009.21        76.60192
1009.59        79.62592
1009.97        77.58724
1010.35        71.83312
1010.73        64.72712
1011.11        59.63016
1011.49        57.42148
1011.86        57.06315
1012.24        57.88068
1012.62        59.01934
1013.00         60.1596
1013.38        61.68037
1013.76        63.41201
1014.14        64.63927
1014.52        64.99655
1014.90        64.45467
1015.28         63.3336
1015.66         62.2938
1016.04        61.50754
1016.41        60.77872
1016.79        60.24205
1017.17        60.15949
1017.55        60.52567
1017.93        61.34634
1018.31        62.06716
1018.69        61.80731
1019.06        60.42468
1019.44        58.03777
1019.82        55.37256
1020.20        54.26429
1020.58        55.29266
1020.95         57.5586
1021.33        60.08664
1021.71        61.70498
1022.09        62.23387
1022.46        62.23611
1022.84        61.36082
1023.22        59.11389
1023.60        55.87946
1023.97        51.95914
1024.35        49.11287
1024.73        49.18997
