SpectraSmart Spectrum 2.9.0.0
--------- Device Information -----------
Spectrum Name :  反射率_0
Saving Time :  2024/04/27 00:23:33
Spectro-Module Model Name : SE2030-DUVN
Spectro-Module Serial Number : OS361AC55029948
Wavelength Start : 200
Wavelength End : 1025
Wavelength Unit : Wavelength(nm)
Spectrum Unit : Reflectance(%)
-----------Spectrum Setting ------------
Integration Time : 20ms
Average : 10
Boxcar : 0
Background removal :  enabled
linearity correction :  enabled
SC :  disabled
Intensity correction :  disabled
DWT denoise :  enabled
savitzky-golay :  disabled
FFT :  disabled
Running average :  disabled
Kalman :  disabled
High pass :  disabled
---------------BEGIN--------------------
Wavelength(nm)             Reflectance(%)
200.29               0
200.75        9.669058
201.21        8.187134
201.67        7.353155
202.13        7.669518
202.58        9.078661
203.04        12.22232
203.50        16.30511
203.96        18.22293
204.42        15.86345
204.88        8.805552
205.34       0.8217661
205.80      -0.7341515
206.26        4.982678
206.72        14.65183
207.18        22.35942
207.64        22.73553
208.10        15.19938
208.55      -0.7120126
209.01       -23.26019
209.47       -34.28235
209.93       -24.55173
210.39       -6.461965
210.85        8.466277
211.31        16.09002
211.77        18.12961
212.23        15.68192
212.69        5.160031
213.14       -10.01363
213.60       -5.561401
214.06        6.997118
214.52        14.43964
214.98        17.88986
215.44        19.41936
215.90        20.28591
216.36        20.36465
216.81        18.64962
217.27        15.12486
217.73         9.56374
218.19        1.658674
218.65       -4.596617
219.11       -5.157798
219.57       -2.210825
220.02        2.400059
220.48        8.804284
220.94         18.3041
221.40        33.35263
221.86        54.28428
222.32        69.22753
222.77        66.86074
223.23        54.66779
223.69        41.88282
224.15        34.19874
224.61        30.97963
225.06         29.6658
225.52        30.04144
225.98        32.05932
226.44        35.32257
226.90        39.92157
227.36        44.33437
227.81         45.6946
228.27         43.8026
228.73        39.81305
229.19        35.96841
229.65        34.86545
230.10        36.67471
230.56        40.51118
231.02        44.81299
231.48        47.03889
231.93         46.6183
232.39        44.76621
232.85        42.78939
233.31        42.41149
233.77        43.79771
234.22          46.249
234.68        48.83977
235.14         50.2741
235.60        50.12329
236.05         48.8167
236.51        46.63858
236.97        44.28706
237.43        42.26485
237.88         40.5486
238.34        39.28651
238.80         38.8123
239.26        39.21733
239.71        40.87634
240.17        43.63293
240.63        46.88999
241.08        50.09803
241.54        52.68554
242.00         54.7205
242.46        57.01337
242.91        60.41786
243.37        64.58778
243.83        69.19333
244.28        71.11653
244.74        66.64571
245.20        57.47583
245.66        48.46674
246.11        42.11377
246.57        38.40211
247.03        36.22085
247.48        34.99158
247.94        33.86046
248.40        32.96245
248.85        32.45113
249.31        32.26625
249.77         32.1263
250.22        31.81357
250.68        31.22307
251.14        30.79253
251.59        31.73447
252.05        34.55645
252.51        38.64831
252.96        41.61552
253.42        41.66006
253.88        39.46945
254.33        35.98861
254.79        34.05705
255.25        36.05287
255.70        41.60868
256.16        49.59669
256.62        56.78289
257.07         58.1657
257.53        54.84221
257.99        49.93917
258.44        45.92801
258.90        45.00668
259.35        46.27549
259.81        48.79604
260.27        51.30411
260.72        52.27681
261.18        51.80097
261.63        50.38854
262.09        48.98377
262.55        48.13514
263.00        47.77949
263.46        47.74324
263.91         47.5517
264.37        46.88652
264.83        45.73219
265.28        44.30089
265.74           43.02
266.19        42.12743
266.65        41.71057
267.11        41.55569
267.56        41.52187
268.02        41.39637
268.47         41.0938
268.93        40.70271
269.38        40.16324
269.84        39.43686
270.30        38.53236
270.75        37.45947
271.21        36.40689
271.66        35.61172
272.12        35.12405
272.57        34.86165
273.03        34.65414
273.48        34.21061
273.94         33.5157
274.39        32.64262
274.85        31.79932
275.31         31.1449
275.76        30.69229
276.22        30.40472
276.67        30.16509
277.13        29.89261
277.58        29.51779
278.04         29.0956
278.49        28.63016
278.95        28.22972
279.40        27.86751
279.86        27.57939
280.31        27.25544
280.77        26.83942
281.22        26.29964
281.68        25.71729
282.13        25.18649
282.59        24.90797
283.04        24.86919
283.50        25.02356
283.95        25.20043
284.41        25.14003
284.86        24.79251
285.32        24.27032
285.77        23.73873
286.22        23.48533
286.68        23.54774
287.13        23.78834
287.59        24.05886
288.04        24.09379
288.50        23.85886
288.95         23.4356
289.41        22.94603
289.86        22.50468
290.32        22.18872
290.77         21.9518
291.22        21.80949
291.68        21.77501
292.13        21.83349
292.59        21.99865
293.04        22.24259
293.50        22.53267
293.95        22.84024
294.40        23.16074
294.86        23.48774
295.31        23.81142
295.77        24.13817
296.22        24.46796
296.68        24.80295
297.13         25.1365
297.58        25.47787
298.04        25.82671
298.49        26.21547
298.95        26.70884
299.40        27.29426
299.85        27.93963
300.31        28.55612
300.76        29.00241
301.21        29.25444
301.67         29.3718
302.12        29.41627
302.58        29.53595
303.03        29.74758
303.48        30.02966
303.94        30.34948
304.39         30.6292
304.84        30.85647
305.30         31.0591
305.75        31.23662
306.20        31.43511
306.66        31.66342
307.11        31.88833
307.57        32.07626
308.02        32.13834
308.47        32.07863
308.93        31.93977
309.38        31.78221
309.83         31.7399
310.29        31.83656
310.74        32.02266
311.19        32.22354
311.65        32.31075
312.10        32.24422
312.55        32.06472
313.00        31.82793
313.46        31.61693
313.91        31.44345
314.36        31.28581
314.82        31.12131
315.27        30.92681
315.72        30.69647
316.18        30.46085
316.63        30.21997
317.08        29.98023
317.53        29.74658
317.99         29.5099
318.44        29.29511
318.89        29.13481
319.35        29.02886
319.80         28.9602
320.25        28.88697
320.70        28.74232
321.16        28.51066
321.61        28.22656
322.06        27.91339
322.51         27.6168
322.97        27.35129
323.42        27.09929
323.87        26.88788
324.32        26.76494
324.78        26.71819
325.23        26.75422
325.68        26.75624
326.13        26.53266
326.59        26.05395
327.04        25.39463
327.49        24.72457
327.94        24.31181
328.39        24.21261
328.85         24.3387
329.30        24.57035
329.75        24.63811
330.20        24.45373
330.66         24.0944
331.11        23.66022
331.56        23.29242
332.01        23.04134
332.46          22.853
332.92        22.70176
333.37        22.58953
333.82        22.49352
334.27        22.43603
334.72         22.3905
335.17        22.29967
335.63        22.15154
336.08        21.96572
336.53        21.78509
336.98        21.69691
337.43        21.71717
337.88        21.80964
338.34        21.92009
338.79        21.97899
339.24        21.94887
339.69        21.85457
340.14        21.69849
340.59        21.48797
341.05        21.24924
341.50        20.98578
341.95         20.7473
342.40        20.60783
342.85        20.58136
343.30        20.64729
343.75        20.75946
344.20        20.83933
344.66        20.86154
345.11        20.83853
345.56        20.78625
346.01         20.7345
346.46        20.69766
346.91        20.67096
347.36         20.6464
347.81        20.61586
348.26        20.57929
348.72        20.53958
349.17        20.51976
349.62        20.56491
350.07        20.67488
350.52        20.83246
350.97        20.96886
351.42        20.97545
351.87        20.83483
352.32        20.58586
352.77        20.31431
353.22        20.14654
353.67        20.11107
354.13         20.1736
354.58        20.26946
355.03        20.29504
355.48        20.21985
355.93        20.07662
356.38        19.91692
356.83        19.81553
357.28        19.78774
357.73        19.80583
358.18        19.82143
358.63         19.7615
359.08        19.61112
359.53        19.39809
359.98        19.17584
360.43        19.01972
360.88        18.94481
361.33        18.92836
361.78        18.92356
362.23        18.85606
362.68        18.71297
363.13        18.52449
363.58        18.33713
364.03        18.22114
364.48         18.1899
364.93        18.21177
365.38        18.25446
365.83        18.26835
366.28        18.23274
366.73        18.16218
367.18         18.0534
367.63        17.90078
368.08        17.71287
368.53        17.49661
368.98        17.28119
369.43        17.11326
369.88        17.00598
370.33        16.95068
370.78        16.93107
371.23        16.91552
371.68         16.8905
372.13        16.86099
372.58        16.82606
373.03        16.78594
373.48        16.73919
373.93        16.67962
374.38         16.6064
374.83        16.52288
375.28        16.43138
375.72        16.33033
376.17        16.23273
376.62        16.13488
377.07        16.03951
377.52        15.95051
377.97        15.87237
378.42        15.81301
378.87        15.77241
379.32        15.74274
379.77        15.72151
380.22        15.70502
380.67        15.68758
381.11        15.67298
381.56        15.63454
382.01        15.54698
382.46        15.41357
382.91        15.25162
383.36        15.09736
383.81         14.9981
384.26        14.96049
384.71        14.97048
385.15        15.00261
385.60        15.01696
386.05        14.99887
386.50        14.95966
386.95        14.91007
387.40        14.86892
387.85        14.83944
388.29        14.80079
388.74        14.76695
389.19        14.72477
389.64        14.67175
390.09        14.61352
390.54        14.54281
390.98         14.4444
391.43        14.33214
391.88        14.21196
392.33        14.10898
392.78        14.05826
393.23        14.05936
393.67        14.08836
394.12        14.12995
394.57        14.13262
395.02        14.08548
395.47        14.00067
395.91        13.89559
396.36        13.79378
396.81        13.71668
397.26        13.65777
397.71        13.61773
398.15        13.60521
398.60        13.63116
399.05        13.63456
399.50        13.61337
399.95        13.66398
400.39        13.73876
400.84        13.59945
401.29        13.29391
401.74        13.11395
402.18        13.09156
402.63        13.07422
403.08         13.0539
403.53        13.07484
403.97        13.12645
404.42        13.19621
404.87        13.25298
405.32        13.24428
405.76        13.15991
406.21        13.02229
406.66        12.87219
407.11        12.77702
407.55        12.75655
408.00        12.78616
408.45        12.83743
408.90        12.85127
409.34        12.80955
409.79        12.73601
410.24        12.65337
410.68        12.58746
411.13        12.54912
411.58          12.525
412.03        12.50896
412.47        12.49526
412.92        12.47669
413.37        12.46136
413.81        12.44499
414.26        12.42988
414.71        12.41189
415.15        12.39142
415.60        12.36931
416.05         12.3583
416.49         12.3621
416.94        12.37686
417.39        12.39121
417.83        12.38658
418.28        12.35776
418.73        12.30669
419.17        12.25257
419.62        12.22693
420.07        12.23509
420.51        12.26459
420.96        12.28821
421.41        12.26118
421.85        12.17462
422.30        12.04539
422.74        11.90264
423.19        11.84329
423.64         11.8567
424.08        11.85076
424.53        11.81314
424.98        11.81713
425.42        11.86501
425.87        11.88616
426.31        11.86442
426.76        11.86079
427.21        11.83905
427.65        11.64283
428.10        11.36677
428.54        11.27461
428.99        11.39251
429.44        11.63361
429.88        11.88843
430.33        11.94097
430.77        11.80004
431.22        11.72525
431.66        11.74424
432.11        11.69635
432.56        11.60241
433.00         11.6078
433.45        11.65406
433.89        11.55747
434.34        11.39717
434.78         11.1251
435.23        11.38204
435.67        11.44876
436.12        11.48109
436.57        11.50189
437.01         11.5036
437.46        11.48099
437.90        11.42826
438.35        11.32174
438.79        11.19444
439.24        11.13208
439.68        11.14771
440.13         11.2134
440.57        11.30765
441.02        11.40336
441.46           11.48
441.91        11.51139
442.35        11.49442
442.80        11.53945
443.24        11.59964
443.69        11.48095
444.13         11.2331
444.58        11.11649
445.02         11.1495
445.47        11.20822
445.91         11.2581
446.36        11.29679
446.80        11.30785
447.24        11.29438
447.69        11.26917
448.13        11.24684
448.58        11.23452
449.02        11.22252
449.47        11.21045
449.91        11.19378
450.36        11.17536
450.80        11.16021
451.25        11.14739
451.69        11.12781
452.13          11.102
452.58         11.0674
453.02        11.04014
453.47        11.04793
453.91        11.09282
454.36        11.16832
454.80        11.23421
455.24        11.22538
455.69        11.13624
456.13        10.98121
456.58        10.82825
457.02        10.76056
457.46        10.79807
457.91        10.91116
458.35        11.03296
458.79        11.05828
459.24        10.97739
459.68        10.82275
460.13         10.6678
460.57         10.5897
461.01        10.61594
461.46        10.70823
461.90        10.83734
462.34        10.94404
462.79        11.00228
463.23        11.03399
463.68        11.03594
464.12        11.01079
464.56        10.96255
465.01        10.90116
465.45        10.83125
465.89          10.792
466.34        10.78765
466.78         10.8094
467.22        10.84193
467.67        10.84571
468.11        10.81802
468.55        10.76636
468.99        10.71355
469.44        10.69448
469.88        10.71745
470.32        10.77006
470.77        10.83344
471.21        10.87992
471.65         10.8999
472.10        10.90514
472.54        10.90194
472.98        10.90537
473.42        10.92018
473.87        10.94284
474.31        10.96739
474.75        10.99698
475.20        11.03282
475.64        11.07084
476.08        11.10791
476.52        11.13179
476.97        11.14188
477.41        11.14807
477.85        11.16154
478.29        11.18428
478.74        11.22793
479.18        11.31457
479.62        11.42575
480.06        11.51371
480.50        11.57101
480.95        11.60268
481.39         11.6055
481.83        11.68804
482.27        11.68389
482.72        11.73345
483.16        11.79064
483.60        11.84003
484.04        11.86599
484.48        11.95091
484.93        12.15092
485.37        12.12983
485.81        12.20442
486.25        12.58631
486.69        12.28478
487.14        12.11212
487.58        13.00328
488.02        12.80222
488.46        12.55812
488.90        12.68112
489.34        12.67804
489.79         12.8539
490.23        12.91079
490.67        13.08037
491.11        13.28765
491.55        13.29612
491.99        13.16637
492.43        13.18052
492.88        13.36366
493.32        13.55773
493.76        13.71654
494.20        13.84635
494.64         13.9394
495.08        13.96888
495.52        13.97124
495.96        14.09785
496.41        14.33168
496.85        14.43552
497.29        14.41591
497.73        14.62554
498.17        14.84448
498.61        14.99024
499.05        14.99251
499.49        15.02024
499.93          15.055
500.37         15.1649
500.82        15.33079
501.26          15.481
501.70        15.60412
502.14        15.75384
502.58        15.91728
503.02        16.03995
503.46         16.1148
503.90        16.15731
504.34         16.1786
504.78        16.19836
505.22        16.22597
505.66        16.25723
506.10        16.29509
506.54        16.34429
506.98        16.40435
507.42        16.47464
507.86        16.54966
508.30        16.61813
508.74         16.6762
509.18        16.72626
509.62        16.76721
510.06        16.79959
510.50        16.82479
510.94        16.84124
511.38        16.85922
511.82        16.89445
512.26        16.95052
512.70        17.02728
513.14        17.10625
513.58        17.15646
514.02        17.17237
514.46        17.16047
514.90        17.15142
515.34        17.19543
515.78        17.29915
516.22        17.44328
516.66        17.58276
517.10         17.6467
517.54        17.61911
517.98        17.52322
518.42        17.40055
518.86        17.31744
519.30          17.294
519.74        17.31256
520.18        17.34842
520.62        17.36164
521.06        17.34179
521.50        17.30374
521.93        17.26575
522.37        17.24928
522.81        17.26081
523.25        17.28535
523.69        17.30778
524.13        17.30771
524.57        17.27844
525.01        17.22743
525.45        17.15739
525.89        17.07281
526.32        16.97821
526.76        16.87908
527.20        16.78578
527.64        16.71554
528.08        16.67118
528.52        16.64799
528.96        16.63575
529.40        16.61676
529.83        16.58539
530.27        16.54757
530.71        16.50423
531.15        16.45935
531.59        16.41618
532.03        16.37228
532.46        16.33114
532.90        16.31092
533.34        16.30955
533.78        16.31238
534.22        16.30946
534.66        16.30469
535.09        16.28384
535.53        16.21627
535.97        16.11687
536.41        16.05172
536.85        16.03012
537.28        16.01887
537.72        16.02484
538.16        16.06961
538.60        16.14991
539.04        16.25945
539.47        16.36576
539.91        16.42922
540.35        16.44051
540.79        16.41319
541.22        16.38265
541.66        16.41244
542.10        16.51351
542.54        16.66604
542.97         16.8338
543.41        16.96632
543.85         17.0488
544.29        17.10147
544.72        17.14406
545.16        17.21851
545.60        17.33251
546.04        17.47448
546.47        17.63713
546.91        17.80559
547.35        17.96934
547.79        18.13183
548.22        18.28608
548.66        18.41743
549.10        18.54646
549.53        18.66711
549.97        18.78553
550.41        18.86943
550.84        18.94178
551.28        19.05562
551.72        19.19441
552.15        19.34649
552.59        19.53095
553.03        19.46195
553.46        19.72823
553.90        19.82567
554.34        19.92601
554.77        20.02905
555.21        20.13606
555.65        20.23199
556.08        20.30735
556.52        20.35589
556.96        20.38881
557.39        20.47895
557.83        20.61449
558.27        20.66964
558.70        20.64869
559.14        20.68425
559.57         20.7651
560.01        20.79597
560.45        20.79029
560.88        20.83285
561.32        20.93936
561.75        21.06277
562.19        21.18814
562.63        21.28817
563.06        21.35229
563.50         21.3933
563.93        21.41339
564.37        21.47102
564.80        21.58116
565.24        21.67389
565.68        21.69285
566.11         22.0237
566.55        21.87227
566.98        21.90628
567.42        21.94029
567.85        22.02738
568.29        22.18158
568.72        22.39546
569.16        22.65865
569.60        22.85012
570.03         23.0487
570.47        23.20614
570.90        23.33467
571.34        23.47297
571.77        23.60572
572.21        23.71859
572.64        23.80982
573.08        24.00622
573.51        24.14849
573.95        24.33768
574.38        24.55145
574.82        24.52389
575.25        24.31054
575.69        24.47205
576.12        24.61947
576.56        24.59419
576.99        24.52785
577.42        24.53792
577.86        24.65637
578.29        24.98907
578.73        24.79497
579.16        24.74764
579.60         24.5975
580.03        24.65239
580.47        24.59674
580.90         24.4996
581.33        24.52019
581.77        24.45239
582.20        24.33912
582.64        24.15325
583.07        24.06642
583.51        23.87011
583.94        23.70894
584.37         23.6752
584.81        23.73953
585.24        23.66734
585.68        23.52245
586.11         23.2122
586.54          23.263
586.98        23.17982
587.41        23.12507
587.85        22.99811
588.28        22.69806
588.71        22.86479
589.15        22.70064
589.58        22.67491
590.01        22.81109
590.45        22.75916
590.88        22.63285
591.31        22.55126
591.75        22.58686
592.18        22.66382
592.61        22.73225
593.05        22.99314
593.48        23.25574
593.91        22.88054
594.35        22.91594
594.78        22.85311
595.21        23.01057
595.65        23.20664
596.08        23.45694
596.51        23.57572
596.94        23.49454
597.38        23.59514
597.81        23.86885
598.24        24.13115
598.68        24.34328
599.11        24.55168
599.54        25.21218
599.97        25.09524
600.41        25.48707
600.84        25.53944
601.27        25.96843
601.70        26.31639
602.14        26.70477
602.57        27.00627
603.00         27.3066
603.43        27.35062
603.87        28.17928
604.30        28.53269
604.73        28.76927
605.16        28.98133
605.60        29.32929
606.03        29.55906
606.46         29.7651
606.89        29.92748
607.32        30.86169
607.76        31.17834
608.19        31.54224
608.62        31.80273
609.05         32.1718
609.48        32.47252
609.92        33.11376
610.35        33.31783
610.78        33.26838
611.21        33.50402
611.64         33.7314
612.07         34.1299
612.50        34.38106
612.94        34.69036
613.37        34.98795
613.80        35.11863
614.23        35.15894
614.66        35.44583
615.09        35.96726
615.52        36.34192
615.96        36.51391
616.39        36.82284
616.82        37.16478
617.25        37.17876
617.68        37.32747
618.11        37.62167
618.54        38.13799
618.97        38.40178
619.40        38.40463
619.84        38.63965
620.27        38.74772
620.70        38.90706
621.13        39.01219
621.56        38.87411
621.99        38.75866
622.42        38.82112
622.85         39.1433
623.28        38.97694
623.71        39.27764
624.14        39.25118
624.57         39.4946
625.00        39.52956
625.43        39.43797
625.86        39.34306
626.29        39.29913
626.72        38.91551
627.15        39.05088
627.58        38.92026
628.01        38.87068
628.44        38.72399
628.87        38.52999
629.30        38.18581
629.73        37.70695
630.16        37.74138
630.59        37.33716
631.02        37.23896
631.45        37.11674
631.88        36.92767
632.31        36.64258
632.74        36.29055
633.17        35.89719
633.60        35.47784
634.03        35.04924
634.46        34.60446
634.89        34.15283
635.32        33.71831
635.75        33.30865
636.18        32.88946
636.61        32.46948
637.04        32.07523
637.47        31.70508
637.89        31.34822
638.32        30.98716
638.75        30.62778
639.18        30.27493
639.61        29.93172
640.04          29.614
640.47        29.34258
640.90        29.11819
641.33         28.9347
641.76        28.77284
642.18        28.60539
642.61        28.42012
643.04        28.23115
643.47        28.06063
643.90        27.94797
644.33        27.90282
644.76        27.90079
645.18        27.92533
645.61        27.97638
646.04        28.03129
646.47        28.02561
646.90        27.99686
647.33        28.06359
647.75        28.23538
648.18        28.49332
648.61        28.80785
649.04        29.06028
649.47        29.21763
649.89        29.68873
650.32        29.74085
650.75        30.20142
651.18        30.78339
651.61        31.21242
652.03          31.479
652.46        31.83041
652.89        32.32378
653.32        32.72495
653.74        33.04022
654.17        33.73368
654.60        34.01456
655.03        34.34563
655.46        34.66615
655.88        35.12805
656.31        37.43662
656.74        38.68612
657.16        38.14051
657.59        38.26279
658.02        37.68993
658.45        38.33192
658.87         37.9744
659.30        38.82475
659.73        38.71309
660.15        39.50405
660.58        39.43465
661.01        39.68703
661.44        39.95161
661.86        40.03675
662.29        40.00676
662.72        40.64402
663.14        41.10381
663.57        41.38995
664.00        41.33298
664.42        41.55309
664.85         42.0801
665.27        42.58058
665.70        42.95143
666.13        43.22169
666.55        43.37614
666.98        43.36471
667.41        43.26235
667.83        43.47812
668.26        43.58926
668.69        43.91729
669.11        44.28986
669.54        44.61567
669.96        44.86031
670.39        45.13342
670.82        45.40891
671.24        45.42157
671.67        45.26766
672.09        45.39961
672.52         45.7947
672.94        46.01173
673.37        46.04217
673.80        46.14059
674.22        46.32796
674.65        46.47687
675.07        46.57958
675.50        46.70296
675.92        46.86185
676.35        46.91654
676.77        46.83842
677.20        47.25506
677.62        47.09018
678.05        47.22415
678.47        47.33335
678.90        47.44633
679.32        47.56193
679.75        47.66178
680.17        47.74271
680.60        47.90644
681.02        48.15139
681.45         48.0648
681.87        48.14584
682.30        48.35664
682.72        48.77083
683.15        49.01208
683.57        49.03233
684.00        48.93846
684.42        48.83853
684.85         48.8697
685.27        49.04324
685.70        49.52183
686.12        49.76412
686.54        50.00504
686.97        50.07528
687.39        50.02682
687.82        49.91557
688.24         49.8579
688.66        49.89258
689.09        49.98195
689.51        50.11227
689.94         50.2369
690.36        50.33976
690.78        50.43404
691.21        50.54857
691.63        50.67477
692.06        50.78687
692.48        51.11316
692.90        51.09671
693.33        51.17326
693.75        51.18212
694.17        51.08923
694.60         50.9863
695.02        51.04657
695.44        51.27943
695.87        51.67159
696.29        52.09765
696.71        52.10886
697.14        51.79999
697.56        51.80448
697.98        52.13559
698.41        52.34709
698.83        52.35334
699.25        52.55241
699.68        52.83501
700.10         52.9398
700.52        52.82404
700.94        52.58381
701.37        52.34658
701.79        52.31854
702.21        52.54069
702.64        52.93192
703.06        53.38267
703.48        53.70169
703.90        53.82825
704.33        53.81701
704.75        53.72887
705.17        53.65703
705.59        53.64538
706.01        53.66853
706.44        53.72352
706.86        53.83562
707.28        53.99458
707.70        54.16332
708.12        54.34654
708.55        54.61927
708.97        54.93315
709.39        55.08155
709.81        55.07021
710.23        55.11226
710.66        55.21847
711.08        55.27251
711.50        55.25933
711.92        55.23326
712.34        55.20494
712.76        55.17652
713.19        55.15201
713.61        55.16602
714.03        55.21516
714.45        55.29821
714.87        55.42868
715.29        55.62723
715.71        55.88444
716.13        56.17648
716.56        56.44053
716.98         56.6473
717.40        56.74635
717.82        56.75548
718.24         56.6816
718.66        56.54035
719.08        56.36283
719.50        56.16833
719.92        56.01626
720.34        55.99156
720.76        56.10842
721.19        56.32539
721.61        56.61984
722.03        56.90559
722.45        57.13808
722.87        57.32219
723.29        57.42836
723.71        57.41689
724.13        57.29592
724.55        57.08911
724.97        56.85635
725.39         56.7072
725.81        56.67752
726.23        56.72135
726.65        56.82635
727.07        57.09192
727.49         57.2928
727.91        57.59787
728.33        57.89045
728.75        58.08309
729.17         58.1494
729.59        58.10065
730.01        58.00718
730.43        57.98878
730.85         58.0727
731.27        58.22307
731.69        58.36938
732.10        58.40084
732.52          58.297
732.94        58.10229
733.36        57.90062
733.78         57.7387
734.20        57.64632
734.62        57.70836
735.04        58.23165
735.46        57.81135
735.88        58.28888
736.30        58.55024
736.72        59.05225
737.13        59.43019
737.55        59.56407
737.97        59.61265
738.39         59.5621
738.81         59.2604
739.23        58.85756
739.65        58.83853
740.06        59.12941
740.48        59.32103
740.90        59.38828
741.32        59.24189
741.74        59.58891
742.16        59.71824
742.57        59.82421
742.99        59.94216
743.41         60.0475
743.83        59.99714
744.25         59.8213
744.67        59.71506
745.08        59.72277
745.50          59.734
745.92        59.75915
746.34        59.87836
746.75        60.02935
747.17        60.04564
747.59        59.91935
748.01        59.71431
748.42        59.49623
748.84        59.41534
749.26        59.51164
749.68        59.59083
750.09        59.65583
750.51        60.04454
750.93        60.57093
751.35         60.5099
751.76        59.94534
752.18        59.65134
752.60        59.67738
753.01        59.60978
753.43         59.4351
753.85        59.35654
754.27        59.39334
754.68        59.51623
755.10        59.69728
755.52        59.88018
755.93        60.01842
756.35        60.10077
756.77        60.21099
757.18         60.2778
757.60         60.3108
758.02        60.72746
758.43        61.30935
758.85        60.33091
759.26        60.25901
759.68        59.16225
760.10         59.9585
760.51        61.03946
760.93        61.32677
761.34        60.29585
761.76        60.88785
762.18        60.77826
762.59        60.97707
763.01        60.93717
763.42        60.76024
763.84        60.87801
764.26        61.19032
764.67        61.09299
765.09        60.70719
765.50        60.55347
765.92        60.67957
766.33        60.82459
766.75        60.86098
767.16        60.76365
767.58        60.54843
768.00        60.38711
768.41        60.41582
768.83        60.80756
769.24        61.35342
769.66        61.58019
770.07        61.43504
770.49        60.90163
770.90        60.30579
771.32        60.72865
771.73        61.94476
772.15        62.39991
772.56        61.99342
772.97        61.57073
773.39        61.33554
773.80         61.3009
774.22        61.46633
774.63         61.6923
775.05        61.84176
775.46        61.94321
775.88        61.93235
776.29        61.76167
776.70        61.52179
777.12        61.44179
777.53         61.5637
777.95        61.78388
778.36        62.03818
778.77        62.13484
779.19        62.04537
779.60         62.0774
780.02        61.84022
780.43        61.74514
780.84        61.74465
781.26        61.44424
781.67        61.03527
782.09        61.72948
782.50        63.17415
782.91        63.06799
783.33         62.1428
783.74         61.7617
784.15        62.16436
784.57         62.4701
784.98        62.63363
785.39        62.12756
785.81        62.16824
786.22        62.34154
786.63        62.87442
787.04        63.10248
787.46        62.99233
787.87        62.86288
788.28        62.81127
788.70        62.80599
789.11        62.83886
789.52         63.0722
789.93        63.38193
790.35        63.23102
790.76        62.74238
791.17        62.69713
791.58        63.08412
792.00        63.17426
792.41         62.9545
792.82        62.97254
793.23         63.1921
793.65        63.04322
794.06        62.66471
794.47        62.81041
794.88        63.36032
795.29         63.6089
795.71        63.25846
796.12        63.14098
796.53        63.22755
796.94        62.88923
797.35        62.36461
797.76        62.83754
798.18        64.05978
798.59        64.62967
799.00        64.39765
799.41        63.89721
799.82        63.72131
800.23        63.52704
800.64         63.5073
801.06        63.61815
801.47        63.81117
801.88        63.91323
802.29        63.86879
802.70        63.72925
803.11        63.54515
803.52        63.40013
803.93        63.34093
804.34        63.34427
804.75        63.39542
805.17        63.54386
805.58        63.82523
805.99         63.9597
806.40        63.97871
806.81        64.53827
807.22        65.34338
807.63        65.00327
808.04        63.75275
808.45        63.19555
808.86        63.47537
809.27        63.75252
809.68        63.86224
810.09        63.91599
810.50        63.85849
810.91        63.66295
811.32        63.47473
811.73        63.51855
812.14        63.83358
812.55        64.36585
812.96        64.92239
813.37        65.10524
813.78        64.83431
814.19        64.32872
814.60        63.76882
815.01        63.32428
815.42        63.05657
815.83        62.93945
816.24        62.93615
816.65        62.95498
817.05        62.97031
817.46        63.00217
817.87        63.05763
818.28        63.08905
818.69        63.09312
819.10         63.0612
819.51        63.05344
819.92        63.19059
820.33        63.48347
820.74        63.87499
821.14        64.26349
821.55        64.48493
821.96        64.50013
822.37        64.36468
822.78        64.13412
823.19        63.90661
823.60        63.73119
824.00        63.60533
824.41        63.52081
824.82        63.55922
825.23         63.7167
825.64        63.97699
826.04        64.26147
826.45        64.39711
826.86        64.35856
827.27        64.19894
827.68         63.9761
828.08        63.82312
828.49        63.73732
828.90        63.68841
829.31        63.71331
829.72        63.87373
830.12        64.18195
830.53        64.57612
830.94        64.90338
831.35        64.85464
831.75        64.39119
832.16        63.59563
832.57        62.74716
832.97        62.27074
833.38        62.27483
833.79        62.61975
834.20        63.13642
834.60        63.54727
835.01        63.76425
835.42        63.90891
835.82        64.00035
836.23        63.99886
836.64        63.94536
837.04        63.79108
837.45        63.69764
837.86        64.00278
838.26        64.76639
838.67        65.85924
839.08        66.89539
839.48         67.1406
839.89        66.42995
840.29        65.04044
840.70        63.58331
841.11        62.76669
841.51        62.76695
841.92        63.35632
842.33         64.2713
842.73        65.02932
843.14        65.34373
843.54        65.40645
843.95        65.32438
844.35        65.32221
844.76        65.44714
845.17        65.59428
845.57        65.70772
845.98        65.69443
846.38        65.55161
846.79        65.32664
847.19         65.0673
847.60        64.81283
848.00         64.5974
848.41        64.38885
848.81        64.22671
849.22        64.09968
849.62        64.04313
850.03        64.05302
850.43        64.10486
850.84        64.09072
851.24        64.02792
851.65         63.8774
852.05        63.79182
852.46        63.93703
852.86        64.32976
853.27        64.88947
853.67         65.3663
854.07        65.52573
854.48        65.30917
854.88        64.81982
855.29        64.18272
855.69        63.75268
856.10        63.58961
856.50        63.67326
856.90        63.87158
857.31         63.9753
857.71        63.96255
858.12        63.83429
858.52        63.68814
858.92        63.57618
859.33         63.5054
859.73        63.49262
860.13        63.45241
860.54        63.27393
860.94        62.98758
861.34        62.63084
861.75        62.32653
862.15        62.30849
862.55        62.59718
862.96        63.07109
863.36        63.62852
863.76        64.01849
864.17        64.13562
864.57        64.07912
864.97        63.81778
865.38        63.31704
865.78        62.64709
866.18        61.82922
866.58        61.08502
866.99        60.80578
867.39        61.10419
867.79        61.85767
868.19        62.81272
868.60        63.55386
869.00        63.98456
869.40        64.17049
869.80        64.18707
870.21        64.19302
870.61        64.29968
871.01          64.397
871.41        64.40234
871.81        64.21175
872.22        63.81606
872.62        63.27287
873.02        62.74408
873.42        62.48046
873.82        62.54937
874.22        62.87893
874.63        63.27693
875.03        63.45461
875.43        63.32338
875.83         62.9671
876.23        62.55767
876.63        62.36418
877.03        62.45905
877.44        62.74063
877.84        63.07688
878.24        63.27089
878.64         63.2156
879.04        62.82466
879.44        62.34909
879.84        62.28426
880.24        62.67446
880.64        63.32549
881.04        63.88128
881.44        63.79038
881.84        62.95742
882.24        61.60835
882.65        60.20129
883.05        59.43388
883.45        59.49103
883.85         60.1731
884.25        61.17777
884.65        61.97401
885.05        62.36677
885.45        62.49943
885.85        62.49496
886.25        62.54982
886.65        62.72224
887.05        62.90854
887.45        63.05809
887.85        63.11987
888.25        63.07145
888.65        62.95556
889.04         62.7824
889.44        62.57475
889.84        62.34043
890.24        62.08783
890.64        61.84446
891.04        61.65902
891.44        61.54852
891.84        61.50663
892.24        61.52308
892.64        61.56996
893.04        61.64546
893.44          61.775
893.83        61.95701
894.23        62.13857
894.63        62.32151
895.03        62.47192
895.43        62.65726
895.83        62.99992
896.23        63.48825
896.63        64.06284
897.02        64.49941
897.42        64.47285
897.82        63.94017
898.22        63.04969
898.62        62.07748
899.01        61.42751
899.41        61.21755
899.81        61.32175
900.21        61.60348
900.61        61.82756
901.00        61.91223
901.40         61.9379
901.80        61.92307
902.20        61.88626
902.59        61.86079
902.99        61.81611
903.39        61.80514
903.79        61.92854
904.18        62.17415
904.58         62.4889
904.98        62.82122
905.38        63.09792
905.77        63.29631
906.17        63.47329
906.57        63.52864
906.96        63.30531
907.36        62.80091
907.76        62.08368
908.15         61.4805
908.55        61.48745
908.95        62.18409
909.34        63.40673
909.74        64.68753
910.14        65.32454
910.53        65.09819
910.93        64.25544
911.33        63.07819
911.72        62.00397
912.12        61.26928
912.52        60.76734
912.91        60.50319
913.31        60.49638
913.70        60.72176
914.10        61.16415
914.49         61.7966
914.89        62.46036
915.29        63.09044
915.68        63.68113
916.08        64.07989
916.47        64.13786
916.87        63.85797
917.26        63.26537
917.66        62.63733
918.05        62.27002
918.45        62.23748
918.84        62.51437
919.24        62.87199
919.64        63.02287
920.03        62.89896
920.42        62.56393
920.82        62.24405
921.21        62.23477
921.61         62.5785
922.00        63.19891
922.40        63.84664
922.79        64.22108
923.19        64.19629
923.58        63.90421
923.98        63.50995
924.37        63.19922
924.77        63.05147
925.16        62.96367
925.55        62.95408
925.95        63.03805
926.34        63.20648
926.74        63.44639
927.13         63.6047
927.52        63.36394
927.92        62.74157
928.31        61.84298
928.70        60.96122
929.10        60.51965
929.49        60.59525
929.89        61.00465
930.28         61.6562
930.67        62.27127
931.07        62.69783
931.46        63.09024
931.85        63.25844
932.24        62.94944
932.64        62.21556
933.03        61.10312
933.42        60.10814
933.82        59.95993
934.21        60.77896
934.60        62.40884
934.99        64.26261
935.39        65.25906
935.78        65.11607
936.17        64.03777
936.56        62.63237
936.96        61.87342
937.35        62.01195
937.74        62.76569
938.13        63.59734
938.53        63.68149
938.92         62.8504
939.31        61.43449
939.70        59.97461
940.09        59.21806
940.49         59.3026
940.88        60.02481
941.27        60.99297
941.66        61.50215
942.05        61.34602
942.44        60.78144
942.84        60.15536
943.23        59.99232
943.62        60.43009
944.01        61.22552
944.40        62.19882
944.79        63.09551
945.18        63.76567
945.57        64.26399
945.97        64.41846
946.36        64.04736
946.75        63.14479
947.14        61.86234
947.53        60.51187
947.92        59.52869
948.31        59.03318
948.70        58.93643
949.09        59.18052
949.48        59.62891
949.87        60.18916
950.26        60.87416
950.65        61.55316
951.04        62.02028
951.43        62.20287
951.82        62.09306
952.21        61.80005
952.60        61.53889
952.99        61.40056
953.38        61.39145
953.77        61.42553
954.16        61.35548
954.55        61.14911
954.94        60.81017
955.33        60.56697
955.72        60.80252
956.11        61.56273
956.50        62.72976
956.89        63.76014
957.28        63.75415
957.66        62.55064
958.05        60.52509
958.44        58.40761
958.83        57.23491
959.22        57.21935
959.61        58.06596
960.00        59.29721
960.39        60.01061
960.78        59.89759
961.16        59.25272
961.55        58.45019
961.94        57.95545
962.33        57.91748
962.72        58.18835
963.11        58.64766
963.49        59.12386
963.88        59.44006
964.27        59.62447
964.66        59.80675
965.04        60.20844
965.43        60.80694
965.82        61.58134
966.21         62.1267
966.60        61.72454
966.98        60.27788
967.37        58.18383
967.76        56.20307
968.15        55.26427
968.53        55.51685
968.92        56.72912
969.31        58.37179
969.69        59.35492
970.08        59.21432
970.47        58.28341
970.86        57.18624
971.24         56.8148
971.63        57.37465
972.02        58.62273
972.40          60.084
972.79        60.61449
973.17        59.95828
973.56        58.53598
973.95        57.07272
974.33        56.49807
974.72        56.98529
975.11          58.207
975.49         59.7204
975.88        60.61116
976.26        60.58554
976.65         59.9079
977.04        58.87024
977.42        57.88687
977.81        57.10418
978.19        56.38188
978.58        55.93628
978.96        56.07811
979.35        56.80198
979.74        58.06889
980.12        59.50741
980.51        60.18316
980.89         59.9817
981.28        59.14901
981.66         58.1729
982.05        57.75278
982.43        58.07545
982.82         58.8828
983.20        60.12309
983.59        61.58881
983.97        63.14166
984.35        64.77409
984.74        65.98965
985.12        66.20415
985.51        65.27917
985.89        63.46976
986.28        61.43367
986.66        60.08701
987.04        59.73318
987.43        60.11145
987.81         61.0043
988.20        61.82887
988.58        62.32207
988.96        62.55939
989.35        62.51056
989.73        62.13564
990.12        61.45466
990.50         60.4894
990.88        59.29543
991.27        58.09235
991.65        57.05102
992.03        56.19812
992.42        55.72501
992.80        55.82692
993.18        56.50747
993.56        57.71355
993.95        59.02933
994.33        59.81802
994.71        59.74649
995.10         59.0546
995.48        58.09547
995.86        57.50801
996.24        57.45718
996.63         57.6467
997.01         58.1063
997.39        58.57153
997.77        58.89861
998.15        59.27652
998.54         59.5013
998.92        59.13557
999.30        58.25273
999.68        56.97365
1000.06         55.9624
1000.45        56.16258
1000.83        57.83239
1001.21        60.81815
1001.59        64.33903
1001.97        66.45218
1002.35        66.37887
1002.73        64.66628
1003.12        62.48373
1003.50         61.2774
1003.88         61.4576
1004.26        62.48705
1004.64        63.91407
1005.02        64.77512
1005.40        64.66444
1005.78        64.13801
1006.16        63.07412
1006.54        61.22591
1006.92        58.80078
1007.30        55.85457
1007.69        53.55434
1008.07        53.42828
1008.45        55.88447
1008.83        60.76928
1009.21        66.49854
1009.59        69.19431
1009.97         67.2738
1010.35         61.8667
1010.73        55.58905
1011.11        52.17997
1011.49        52.30717
1011.86        54.64311
1012.24        57.65611
1012.62        59.36126
1013.00        59.28211
1013.38        58.01745
1013.76        56.12085
1014.14        54.85994
1014.52        54.85827
1014.90        55.61013
1015.28        56.52353
1015.66        56.85273
1016.04        56.41432
1016.41        55.52478
1016.79        54.45562
1017.17         53.6942
1017.55        53.41114
1017.93        53.39001
1018.31        53.47797
1018.69        53.46293
1019.06        53.29008
1019.44        53.13221
1019.82        52.91291
1020.20        52.49815
1020.58        51.92497
1020.95        51.12987
1021.33        50.68973
1021.71        51.26173
1022.09        52.94027
1022.46        55.82539
1022.84        58.97481
1023.22         59.9645
1023.60        57.93631
1023.97        53.57266
1024.35        49.31315
1024.73        47.83213
