SpectraSmart Spectrum 2.9.0.0
--------- Device Information -----------
Spectrum Name :  反射率_0
Saving Time :  2024/04/27 00:24:10
Spectro-Module Model Name : SE2030-DUVN
Spectro-Module Serial Number : OS361AC55029948
Wavelength Start : 200
Wavelength End : 1025
Wavelength Unit : Wavelength(nm)
Spectrum Unit : Reflectance(%)
-----------Spectrum Setting ------------
Integration Time : 20ms
Average : 10
Boxcar : 0
Background removal :  enabled
linearity correction :  enabled
SC :  disabled
Intensity correction :  disabled
DWT denoise :  enabled
savitzky-golay :  disabled
FFT :  disabled
Running average :  disabled
Kalman :  disabled
High pass :  disabled
---------------BEGIN--------------------
Wavelength(nm)             Reflectance(%)
200.29               0
200.75        10.84984
201.21        16.35364
201.67        21.84956
202.13        25.38837
202.58        26.96044
203.04        27.57236
203.50        28.21169
203.96         30.8911
204.42        36.35337
204.88        43.50797
205.34        49.48273
205.80        50.06544
206.26        44.90871
206.72        36.54147
207.18        28.17063
207.64        21.55668
208.10        16.14142
208.55         10.5779
209.01        4.618815
209.47        1.641824
209.93        3.566521
210.39        8.165602
210.85        12.44064
211.31        15.40563
211.77        18.00972
212.23        21.74122
212.69        30.59665
213.14        52.04109
213.60        62.15704
214.06          54.993
214.52        47.07047
214.98        42.49072
215.44        39.40346
215.90        36.10434
216.36        32.57555
216.81         28.7743
217.27        24.85601
217.73        20.87489
218.19        16.18704
218.65        11.49279
219.11        9.325962
219.57        9.579915
220.02        11.98479
220.48        17.20663
220.94        26.20981
221.40        41.14687
221.86        62.29231
222.32        77.67614
222.77        75.58453
223.23        63.26631
223.69        50.36468
224.15        42.89045
224.61        40.02797
225.06         39.0879
225.52        39.32023
225.98        39.93642
226.44        40.69553
226.90        42.06351
227.36         43.4122
227.81        43.51215
228.27        42.38744
228.73        40.31877
229.19        38.59659
229.65        38.80251
230.10        40.89085
230.56        44.28097
231.02        47.46545
231.48        48.03484
231.93        45.70516
232.39         41.8596
232.85        38.01605
233.31        36.11341
233.77        36.34311
234.22         37.9616
234.68         40.1477
235.14        41.74557
235.60        42.35789
236.05        42.45498
236.51        42.00584
236.97        40.97445
237.43        39.50618
237.88        37.48691
238.34        35.69882
238.80        35.69934
239.26        38.06289
239.71        43.40095
240.17        50.60665
240.63        55.83185
241.08        56.48239
241.54        51.80133
242.00        45.07441
242.46        43.76323
242.91        52.26765
243.37        73.13337
243.83        106.3024
244.28        132.4633
244.74        127.4167
245.20        94.63771
245.66        58.45126
246.11        39.36356
246.57         37.3604
247.03        45.27132
247.48        57.36883
247.94        63.26899
248.40        61.25274
248.85        56.59648
249.31        52.37592
249.77        49.78854
250.22        48.41324
250.68        47.05474
251.14        45.43671
251.59        43.87314
252.05        43.19754
252.51        44.19102
252.96         45.1237
253.42        44.36719
253.88        42.18695
254.33        38.96476
254.79        37.40297
255.25         39.7608
255.70        45.56123
256.16        53.77648
256.62        60.55851
257.07        60.28197
257.53        54.69496
257.99        47.57928
258.44        42.12449
258.90        40.93536
259.35        42.80515
259.81        46.37716
260.27        49.79689
260.72        50.78887
261.18        49.48932
261.63        46.86771
262.09        44.33082
262.55        42.89796
263.00         42.5136
263.46        42.77738
263.91        42.98735
264.37        42.51692
264.83        41.31576
265.28        39.70132
265.74         38.2672
266.19        37.48536
266.65        37.44554
267.11        37.84904
267.56        38.33631
268.02        38.34656
268.47        37.74651
268.93        36.76831
269.38        35.62743
269.84        34.69437
270.30        34.06241
270.75        33.59069
271.21        33.26458
271.66        33.02145
272.12        32.82109
272.57        32.67896
273.03        32.48051
273.48        32.02342
273.94        31.33062
274.39        30.43761
274.85        29.57712
275.31        28.96142
275.76        28.60434
276.22        28.45797
276.67        28.35902
277.13        28.14344
277.58        27.73445
278.04        27.21562
278.49        26.63321
278.95         26.1572
279.40        25.77207
279.86        25.47727
280.31        25.15522
280.77        24.72991
281.22        24.17097
281.68        23.58299
282.13         23.0293
282.59        22.65664
283.04        22.45858
283.50        22.39404
283.95        22.40048
284.41        22.38808
284.86        22.32246
285.32        22.24879
285.77         22.1553
286.22        22.07712
286.68        22.02067
287.13        21.93495
287.59        21.85067
288.04        21.78263
288.50        21.74598
288.95        21.71954
289.41         21.6621
289.86         21.4538
290.32        21.12511
290.77        20.72219
291.22        20.36966
291.68        20.23853
292.13        20.35461
292.59        20.67102
293.04        21.10699
293.50        21.55067
293.95        21.94523
294.40        22.31515
294.86        22.66397
295.31        22.99371
295.77        23.31721
296.22        23.62346
296.68        23.92357
297.13        24.23118
297.58        24.55881
298.04        24.90588
298.49        25.29116
298.95        25.75247
299.40        26.27763
299.85         26.8511
300.31         27.4053
300.76        27.83095
301.21        28.11107
301.67        28.29028
302.12        28.42371
302.58        28.64871
303.03        28.97059
303.48        29.36407
303.94         29.7772
304.39        30.10431
304.84        30.33313
305.30        30.50627
305.75        30.64297
306.20         30.8212
306.66        31.05753
307.11        31.30248
307.57        31.52699
308.02        31.65037
308.47        31.66651
308.93        31.61235
309.38        31.50641
309.83        31.41636
310.29        31.36323
310.74        31.32873
311.19        31.29691
311.65        31.23695
312.10        31.13727
312.55        31.00743
313.00        30.87808
313.46        30.79046
313.91        30.73854
314.36         30.7167
314.82        30.67355
315.27        30.53855
315.72        30.29831
316.18        29.98439
316.63        29.65954
317.08        29.43418
317.53        29.32856
317.99        29.30457
318.44        29.29685
318.89         29.1872
319.35        28.94639
319.80        28.61116
320.25        28.24235
320.70         27.9368
321.16         27.7203
321.61        27.57346
322.06        27.44926
322.51        27.27475
322.97        27.02621
323.42        26.72937
323.87        26.43353
324.32        26.22047
324.78        26.09607
325.23        26.04622
325.68        25.98378
326.13        25.77401
326.59        25.39221
327.04        24.89964
327.49        24.39877
327.94        24.04728
328.39        23.88017
328.85        23.84044
329.30        23.87626
329.75        23.84707
330.20        23.70718
330.66        23.49366
331.11        23.25611
331.56        23.05485
332.01        22.90857
332.46        22.78448
332.92        22.65842
333.37         22.5347
333.82         22.3967
334.27        22.26112
334.72         22.1174
335.17        21.94061
335.63        21.73028
336.08        21.50548
336.53        21.30372
336.98        21.19612
337.43        21.19363
337.88         21.2663
338.34        21.36046
338.79        21.40615
339.24        21.36617
339.69        21.26204
340.14        21.09887
340.59        20.89005
341.05        20.66231
341.50        20.41766
341.95        20.19738
342.40        20.06355
342.85        20.02603
343.30         20.0626
343.75        20.13829
344.20        20.19419
344.66        20.20729
345.11        20.18562
345.56        20.12131
346.01        20.00535
346.46        19.85171
346.91        19.67707
347.36        19.51131
347.81        19.40405
348.26        19.36675
348.72         19.3785
349.17        19.44123
349.62        19.56473
350.07        19.73408
350.52        19.94565
350.97        20.11354
351.42        20.10212
351.87        19.89754
352.32        19.54603
352.77        19.18359
353.22        19.01633
353.67        19.08072
354.13        19.31265
354.58        19.58869
355.03        19.70204
355.48         19.5982
355.93        19.35511
356.38        19.05829
356.83          18.834
357.28        18.71915
357.73        18.66245
358.18        18.65323
358.63        18.67957
359.08        18.72145
359.53         18.7853
359.98        18.81906
360.43        18.73711
360.88        18.53091
361.33        18.22689
361.78        17.89791
362.23        17.66826
362.68        17.57144
363.13        17.57251
363.58        17.61831
364.03        17.62139
364.48        17.55463
364.93        17.44472
365.38        17.31461
365.83        17.20131
366.28        17.11755
366.73        17.04631
367.18         16.9772
367.63        16.89921
368.08         16.8069
368.53        16.70492
368.98        16.59826
369.43        16.49084
369.88        16.38543
370.33        16.28496
370.78        16.18087
371.23         16.0609
371.68        15.92604
372.13        15.77946
372.58        15.65135
373.03         15.5876
373.48        15.59308
373.93        15.65342
374.38        15.71673
374.83        15.69988
375.28        15.58729
375.72        15.40174
376.17        15.21163
376.62        15.10193
377.07        15.09048
377.52        15.14616
377.97        15.22326
378.42        15.24915
378.87        15.20203
379.32        15.10554
379.77        14.98778
380.22        14.88661
380.67        14.81369
381.11        14.76327
381.56        14.71294
382.01          14.645
382.46        14.55851
382.91        14.46324
383.36        14.38663
383.81        14.36304
384.26         14.3937
384.71        14.46765
385.15        14.53919
385.60        14.53853
386.05        14.44955
386.50        14.29281
386.95        14.12743
387.40        14.04588
387.85        14.06225
388.29         14.1334
388.74        14.21332
389.19        14.20604
389.64        14.09601
390.09        13.91356
390.54        13.70854
390.98        13.56015
391.43        13.50096
391.88        13.50241
392.33        13.52683
392.78        13.52065
393.23        13.47154
393.67        13.39192
394.12         13.3183
394.57        13.27501
395.02         13.2666
395.47        13.27642
395.91        13.28693
396.36         13.2629
396.81        13.20518
397.26         13.1291
397.71         13.0484
398.15        12.98937
398.60        12.97297
399.05        12.93581
399.50        12.88639
399.95        12.93257
400.39        13.02998
400.84        12.94828
401.29        12.71591
401.74        12.58096
402.18        12.56501
402.63        12.52994
403.08        12.47639
403.53        12.46163
403.97        12.48285
404.42        12.52477
404.87        12.56286
405.32        12.55561
405.76        12.49273
406.21        12.39196
406.66        12.28359
407.11        12.21766
407.55        12.20889
408.00        12.23769
408.45        12.27623
408.90         12.2688
409.34        12.20173
409.79        12.09875
410.24        11.99346
410.68        11.92679
411.13        11.91199
411.58        11.93431
412.03        11.97281
412.47         11.9936
412.92        11.98012
413.37         11.9442
413.81        11.90152
414.26        11.88438
414.71        11.89349
415.15        11.92132
415.60        11.94182
416.05        11.92007
416.49        11.85165
416.94        11.75293
417.39        11.65401
417.83        11.59841
418.28        11.59548
418.73        11.62825
419.17        11.68425
419.62        11.74228
420.07        11.79065
420.51        11.83198
420.96        11.85291
421.41        11.83138
421.85        11.76403
422.30        11.65546
422.74        11.53228
423.19        11.48794
423.64        11.51261
424.08        11.52406
424.53        11.50106
424.98          11.498
425.42        11.51478
425.87        11.48269
426.31        11.41507
426.76        11.41727
427.21        11.45951
427.65        11.37532
428.10        11.20145
428.54        11.11179
428.99        11.12314
429.44         11.1872
429.88        11.25709
430.33         11.2159
430.77        11.09307
431.22        11.10156
431.66        11.24106
432.11        11.31569
432.56        11.32301
433.00        11.41227
433.45        11.52049
433.89        11.45175
434.34         11.2813
434.78        10.96672
435.23        11.14628
435.67        11.12202
436.12        11.05826
436.57        10.98222
437.01        10.90955
437.46        10.87123
437.90        10.86539
438.35         10.8519
438.79        10.83205
439.24        10.84293
439.68        10.88427
440.13        10.94308
440.57        10.99718
441.02        11.02296
441.46        11.01285
441.91        10.94559
442.35         10.8523
442.80        10.88185
443.24        10.99349
443.69        10.99145
444.13        10.87879
444.58         10.8348
445.02         10.8612
445.47        10.85764
445.91        10.82873
446.36        10.83367
446.80        10.87154
447.24        10.92429
447.69        10.97716
448.13        11.00245
448.58          10.996
449.02        10.96452
449.47        10.92291
449.91         10.8897
450.36         10.8734
450.80        10.86714
451.25         10.8654
451.69        10.85346
452.13        10.82965
452.58        10.79858
453.02        10.76739
453.47        10.74828
453.91        10.74373
454.36         10.7504
454.80        10.75737
455.24        10.74601
455.69        10.71638
456.13        10.66738
456.58          10.622
457.02        10.59696
457.46        10.60049
457.91        10.62417
458.35        10.64572
458.79        10.63071
459.24        10.58458
459.68        10.51558
460.13        10.45682
460.57        10.42893
461.01        10.44634
461.46        10.48695
461.90        10.55187
462.34        10.63221
462.79        10.71468
463.23        10.80468
463.68        10.86495
464.12        10.84314
464.56        10.73654
465.01        10.58338
465.45        10.42552
465.89        10.34806
466.34        10.36326
466.78        10.44451
467.22        10.56145
467.67        10.64814
468.11        10.68697
468.55         10.6909
468.99        10.67619
469.44        10.66817
469.88        10.67628
470.32        10.68983
470.77         10.7041
471.21        10.71729
471.65        10.72661
472.10        10.73689
472.54        10.74858
472.98        10.76477
473.42        10.78559
473.87        10.81346
474.31        10.83524
474.75        10.84243
475.20        10.83723
475.64        10.81854
476.08        10.80328
476.52        10.81141
476.97        10.84681
477.41        10.90873
477.85        10.98323
478.29        11.03022
478.74        11.05176
479.18        11.08502
479.62        11.13323
480.06        11.18344
480.50        11.23881
480.95        11.29321
481.39        11.33546
481.83        11.46061
482.27        11.50003
482.72         11.5943
483.16        11.69493
483.60        11.77772
484.04        11.82149
484.48        11.92548
484.93        12.14427
485.37        12.11419
485.81        12.13131
486.25        12.59986
486.69        12.10335
487.14         12.0217
487.58        12.90677
488.02        12.78433
488.46        12.69309
488.90        12.73374
489.34        12.50496
489.79         12.7225
490.23        13.06647
490.67        13.27724
491.11         13.3106
491.55        13.33775
491.99        13.39628
492.43        13.46757
492.88        13.56171
493.32        13.65747
493.76         13.7572
494.20        13.89513
494.64        14.07454
495.08        14.25359
495.52        14.40391
495.96         14.5777
496.41         14.7364
496.85        14.67217
497.29        14.46379
497.73        14.57027
498.17        14.79417
498.61        15.01719
499.05        15.13358
499.49        15.25358
499.93        15.33533
500.37         15.4712
500.82        15.63308
501.26        15.73223
501.70        15.76366
502.14        15.78416
502.58        15.82689
503.02        15.91396
503.46        16.05281
503.90        16.23993
504.34         16.4284
504.78        16.53785
505.22        16.55051
505.66        16.48889
506.10         16.4099
506.54        16.40517
506.98        16.49689
507.42        16.65878
507.86        16.83981
508.30         16.9558
508.74         16.9851
509.18        16.95511
509.62        16.91045
510.06        16.92245
510.50        17.00767
510.94        17.13803
511.38        17.27807
511.82        17.37256
512.26        17.40646
512.70        17.40263
513.14        17.37752
513.58        17.35616
514.02         17.3502
514.46        17.34901
514.90        17.36299
515.34         17.4102
515.78        17.48857
516.22        17.59253
516.66        17.69016
517.10        17.72885
517.54        17.69818
517.98        17.61361
518.42        17.50987
518.86         17.4439
519.30        17.43236
519.74        17.46098
520.18        17.50671
520.62        17.53187
521.06        17.52665
521.50        17.50363
521.93        17.48114
522.37         17.4813
522.81        17.51007
523.25        17.55248
523.69        17.59007
524.13        17.59772
524.57        17.56774
525.01        17.50784
525.45        17.42666
525.89        17.33818
526.32        17.24904
526.76        17.16368
527.20        17.08275
527.64        17.00791
528.08         16.9408
528.52         16.8827
528.96         16.8393
529.40        16.81741
529.83        16.81524
530.27        16.82926
530.71        16.84273
531.15        16.83167
531.59        16.79104
532.03        16.72614
532.46        16.65184
532.90        16.60463
533.34        16.58904
533.78         16.5865
534.22        16.58179
534.66        16.57114
535.09        16.53892
535.53        16.45751
535.97        16.35003
536.41        16.29473
536.85        16.30171
537.28        16.33178
537.72        16.37869
538.16         16.4441
538.60        16.51956
539.04        16.60429
539.47        16.67772
539.91        16.71893
540.35        16.72405
540.79        16.70282
541.22        16.68236
541.66        16.71282
542.10        16.80275
542.54        16.93736
542.97        17.09088
543.41        17.22868
543.85        17.33746
544.29        17.42965
544.72        17.51158
545.16        17.60592
545.60         17.7157
546.04        17.83583
546.47        17.96793
546.91        18.11159
547.35        18.26247
547.79        18.42179
548.22        18.58035
548.66        18.71955
549.10        18.85917
549.53        18.99429
549.97        19.13316
550.41        19.24564
550.84        19.35271
551.28         19.5036
551.72        19.67463
552.15        19.84358
552.59        20.02902
553.03        19.94464
553.46        20.19649
553.90        20.27216
554.34        20.35116
554.77        20.43063
555.21        20.52497
555.65        20.63957
556.08          20.764
556.52        20.88316
556.96        20.97887
557.39         21.0807
557.83         21.1693
558.27        21.13165
558.70        21.00476
559.14        20.97449
559.57        21.04345
560.01        21.10087
560.45        21.14159
560.88        21.22263
561.32        21.35051
561.75        21.48459
562.19        21.61659
562.63        21.73063
563.06        21.81706
563.50        21.87742
563.93        21.90491
564.37        21.95706
564.80        22.04446
565.24        22.08332
565.68        22.03361
566.11        22.33011
566.55        22.17391
566.98        22.22188
567.42        22.28276
567.85        22.40965
568.29        22.60949
568.72        22.87554
569.16        23.18988
569.60         23.3838
570.03        23.52715
570.47         23.6492
570.90        23.79282
571.34        23.73322
571.77        23.89921
572.21        24.06382
572.64        24.11621
573.08        24.32536
573.51        24.41633
573.95        24.54468
574.38        24.65029
574.82        24.77783
575.25        24.54027
575.69        24.55521
576.12         24.6832
576.56        24.80669
576.99        24.96438
577.42        24.87029
577.86        24.84794
578.29         25.3256
578.73         25.0777
579.16        25.02556
579.60        24.77295
580.03        24.77167
580.47        24.71745
580.90         24.7351
581.33        24.75489
581.77        24.72178
582.20        24.55756
582.64        24.34023
583.07        24.23823
583.51        24.05161
583.94        23.92765
584.37        23.96573
584.81        24.10297
585.24        23.98898
585.68        23.72306
586.11        23.40056
586.54         23.6064
586.98        23.49165
587.41        23.39027
587.85        23.47631
588.28        22.98611
588.71        23.08114
589.15        22.96753
589.58        23.05628
590.01        23.03798
590.45        23.11811
590.88        23.22053
591.31        23.16672
591.75        23.04151
592.18        22.93037
592.61         22.8449
593.05         23.2933
593.48        23.61379
593.91         23.2632
594.35        23.28861
594.78        23.18306
595.21         23.3285
595.65        23.58373
596.08        23.93979
596.51        24.10625
596.94        24.00303
597.38        24.08168
597.81        24.33056
598.24        24.66435
598.68        24.60231
599.11        25.01394
599.54        25.56917
599.97        25.48289
600.41        25.89692
600.84        25.95247
601.27        26.38381
601.70        26.72645
602.14        27.04793
602.57        27.36634
603.00        27.72925
603.43        27.72882
603.87        28.42737
604.30        28.70922
604.73        28.97401
605.16        29.04594
605.60        29.59202
606.03        29.84139
606.46        29.98434
606.89         30.2867
607.32        30.95264
607.76        31.24504
608.19        31.60402
608.62        31.86894
609.05        32.24382
609.48        32.51821
609.92        33.07844
610.35        33.46209
610.78        33.36975
611.21        33.43641
611.64        33.71202
612.07        34.04405
612.50        34.27335
612.94        34.56339
613.37        34.85143
613.80        35.03853
614.23        35.17278
614.66        35.33449
615.09        35.95536
615.52        36.16187
615.96        36.03583
616.39        36.52305
616.82        36.75033
617.25        36.62999
617.68        36.97886
618.11        37.22079
618.54        37.62918
618.97        37.84667
619.40        37.88035
619.84         38.1222
620.27        38.21681
620.70        38.29218
621.13        38.48544
621.56        38.26078
621.99        38.06847
622.42        38.07928
622.85        38.38483
623.28        38.44395
623.71        38.46416
624.14        38.60178
624.57        38.85419
625.00        38.76508
625.43         38.8563
625.86        38.74742
626.29        38.64328
626.72        38.49718
627.15        38.51527
627.58         38.5148
628.01        38.48104
628.44        38.36958
628.87        38.17671
629.30        37.82302
629.73        37.34314
630.16        37.35468
630.59        36.98643
631.02        36.91743
631.45        36.83493
631.88        36.68597
632.31         36.4373
632.74        36.12032
633.17        35.75418
633.60        35.34528
634.03        34.91134
634.46        34.45031
634.89        33.98532
635.32        33.56305
635.75        33.19629
636.18        32.84234
636.61        32.50053
637.04        32.18261
637.47        31.87937
637.89        31.58181
638.32        31.26655
638.75         30.9303
639.18         30.5782
639.61        30.21822
640.04         29.8763
640.47        29.58974
640.90        29.36602
641.33        29.19642
641.76        29.06357
642.18        28.94132
642.61        28.81223
643.04        28.68636
643.47        28.57379
643.90        28.49056
644.33        28.44067
644.76         28.4198
645.18        28.41591
645.61        28.40492
646.04        28.38676
646.47        28.37028
646.90        28.38606
647.33        28.47451
647.75        28.63717
648.18        28.89734
648.61        29.22576
649.04         29.4793
649.47        29.62138
649.89        30.08249
650.32        30.11393
650.75        30.51797
651.18        31.02546
651.61        31.42503
652.03        31.71712
652.46        32.07217
652.89        32.47912
653.32        32.76365
653.74        33.05135
654.17        33.15622
654.60        33.95425
655.03         34.3547
655.46        34.21205
655.88        34.68067
656.31        36.34544
656.74         37.4684
657.16        37.05559
657.59        36.87906
658.02        36.67912
658.45        37.48403
658.87        37.50919
659.30        37.72194
659.73        37.90402
660.15        38.76417
660.58        38.29614
661.01        38.63754
661.44         39.1523
661.86        39.33683
662.29        39.18642
662.72         39.5579
663.14        39.71934
663.57        39.91931
664.00        39.98706
664.42        40.22318
664.85        40.64642
665.27        41.14167
665.70        41.59663
666.13        41.89702
666.55        42.01176
666.98        41.93716
667.41        41.75228
667.83         41.8531
668.26         41.8472
668.69        42.05347
669.11        42.30649
669.54        42.54395
669.96        42.74388
670.39        42.93285
670.82        43.12489
671.24        43.30209
671.67        43.46913
672.09         43.6424
672.52        43.82126
672.94        43.95462
673.37        44.04654
673.80        44.12094
674.22        44.19892
674.65        44.27773
675.07        44.37371
675.50        44.48036
675.92        44.59303
676.35        44.68785
676.77        44.75232
677.20        44.82617
677.62        44.93528
678.05        45.00171
678.47        45.00325
678.90        45.40751
679.32        45.37585
679.75         45.5365
680.17        45.63615
680.60        45.70543
681.02        45.75745
681.45        45.82087
681.87         45.9194
682.30        46.04566
682.72        46.19498
683.15        46.29592
683.57        46.36636
684.00          46.479
684.42         46.6419
684.85        46.80886
685.27        46.97102
685.70        47.16359
686.12           47.35
686.54        47.46976
686.97         47.5123
687.39        47.50031
687.82        47.46636
688.24        47.47724
688.66         47.5489
689.09        47.66376
689.51        47.80421
689.94        47.91434
690.36        47.98857
690.78        48.03669
691.21        48.08922
691.63        48.18647
692.06        48.33433
692.48        48.52042
692.90        48.70575
693.33        48.80684
693.75        48.80312
694.17        48.77667
694.60        48.77628
695.02        48.69731
695.44        48.62496
695.87        48.97509
696.29        49.60954
696.71         49.7275
697.14        49.37663
697.56         49.3159
697.98         49.5808
698.41        49.71162
698.83        49.70821
699.25         49.8579
699.68        50.09801
700.10        50.25016
700.52         50.2787
700.94        50.22432
701.37        50.15936
701.79        50.29647
702.21          50.515
702.64        50.86468
703.06        51.21756
703.48        51.42483
703.90        51.44824
704.33        51.34465
704.75        51.18375
705.17        51.06556
705.59        51.03143
706.01         51.0535
706.44        51.13771
706.86         51.2869
707.28        51.47557
707.70        51.75368
708.12        52.07062
708.55        52.20767
708.97        52.20668
709.39         52.3714
709.81        52.66547
710.23        52.77457
710.66        52.67956
711.08        52.57383
711.50        52.49496
711.92        52.43665
712.34         52.4211
712.76        52.46172
713.19        52.53504
713.61         52.6264
714.03        52.71566
714.45        52.81118
714.87        52.92896
715.29        53.09869
715.71        53.31844
716.13        53.55767
716.56        53.77365
716.98         53.9795
717.40         54.1342
717.82        54.22017
718.24        54.21568
718.66        54.14696
719.08        54.00578
719.50        53.69632
719.92        53.33526
720.34        53.21566
720.76        53.37388
721.19        53.66174
721.61        54.02746
722.03        54.37518
722.45        54.64238
722.87        54.84332
723.29         54.9307
723.71        54.83535
724.13        54.57078
724.55        54.17277
724.97        53.76406
725.39        53.55147
725.81        53.58844
726.23        53.80352
726.65        54.11295
727.07        54.49167
727.49         54.6912
727.91        54.90198
728.33        55.06819
728.75        55.20304
729.17          55.308
729.59        55.36109
730.01        55.37974
730.43        55.40174
730.85        55.43521
731.27        55.47596
731.69        55.50208
732.10        55.47397
732.52        55.38623
732.94         55.2672
733.36        55.17006
733.78        55.07177
734.20         54.9836
734.62        55.11489
735.04        55.49576
735.46        55.15743
735.88        55.72351
736.30        55.80806
736.72        55.93947
737.13        56.26049
737.55        56.66644
737.97        56.97808
738.39        57.07346
738.81        56.75265
739.23        56.17164
739.65        56.00782
740.06        56.25352
740.48        56.35347
740.90        56.27445
741.32        56.39207
741.74        56.71669
742.16        56.98777
742.57        57.15857
742.99        57.40986
743.41        57.63557
743.83        57.36681
744.25        56.73703
744.67        56.43858
745.08        56.55576
745.50        56.61998
745.92        56.64408
746.34        56.96091
746.75        57.43517
747.17        57.64503
747.59        57.53517
748.01        57.22924
748.42          56.882
748.84        56.73834
749.26        56.86098
749.68        57.16906
750.09        57.54554
750.51        57.75248
750.93        57.71106
751.35        57.60818
751.76        57.52868
752.18         57.0531
752.60        57.00185
753.01        56.97388
753.43         56.7892
753.85        56.74688
754.27        56.72164
754.68        56.99219
755.10        57.06028
755.52        57.24883
755.93        57.38522
756.35        57.45831
756.77        57.54223
757.18        57.60821
757.60        57.67747
758.02         58.0563
758.43        58.58093
758.85        57.83221
759.26         58.0062
759.68        57.00829
760.10        57.20568
760.51        57.96019
760.93        58.76371
761.34        58.16943
761.76        57.95408
762.18        57.66787
762.59        57.97266
763.01        58.25333
763.42        58.47092
763.84        58.61567
764.26        58.63675
764.67        58.53831
765.09         58.4141
765.50        58.26172
765.92        58.15588
766.33        58.20414
766.75        58.29165
767.16        58.19027
767.58         57.9012
768.00        57.69062
768.41        57.69226
768.83        58.00778
769.24        58.47739
769.66        58.75935
770.07        58.76939
770.49        58.39521
770.90        57.89901
771.32        58.21744
771.73        59.15868
772.15        59.52132
772.56        59.26019
772.97        58.84406
773.39        58.35685
773.80        58.96311
774.22         58.5295
774.63        58.84299
775.05        59.12399
775.46        59.27604
775.88         59.2151
776.29        59.02752
776.70        58.81928
777.12        58.72824
777.53        58.80518
777.95        58.95768
778.36        59.14397
778.77         59.2674
779.19        59.31512
779.60         59.3418
780.02        59.31222
780.43        59.27114
780.84        59.27144
781.26        58.94244
781.67        58.46424
782.09         59.0024
782.50        60.28121
782.91        59.93489
783.33        59.17468
783.74         58.7853
784.15        59.16542
784.57        59.37985
784.98        59.38591
785.39        59.35836
785.81        59.35909
786.22        59.70441
786.63        60.26569
787.04        60.48766
787.46        60.33485
787.87        60.07389
788.28         59.8622
788.70        59.79429
789.11        59.88942
789.52         60.2048
789.93        60.59468
790.35        60.64738
790.76        60.38437
791.17        60.22763
791.58        60.24835
792.00        60.16699
792.41        60.01098
792.82        60.12334
793.23         60.3881
793.65        60.17007
794.06        59.64982
794.47        59.70267
794.88        60.18981
795.29        60.71683
795.71        60.15843
796.12        60.09814
796.53        60.26145
796.94        60.02448
797.35         59.5815
797.76        60.04437
798.18        61.19426
798.59        61.69967
799.00        61.41349
799.41        61.02932
799.82        60.73048
800.23        60.52753
800.64        60.49245
801.06         60.5871
801.47        60.75703
801.88        60.83111
802.29        60.75618
802.70        60.57885
803.11        60.35704
803.52        60.18119
803.93        60.10427
804.34        60.12071
804.75        60.20123
805.17        60.36053
805.58        60.63337
805.99        60.77551
806.40        60.73537
806.81        61.44751
807.22        62.50793
807.63        62.21563
808.04        60.80139
808.45        60.08008
808.86        60.25808
809.27        60.52216
809.68        60.70713
810.09         60.8192
810.50        60.79583
810.91        60.70864
811.32        60.68039
811.73        60.84058
812.14        61.21304
812.55        61.75282
812.96        62.27897
813.37        62.45401
813.78         62.1933
814.19        61.63142
814.60        60.96526
815.01        60.45378
815.42         60.1659
815.83        60.03395
816.24        60.02837
816.65        60.08942
817.05        60.19009
817.46        60.33405
817.87        60.50916
818.28        60.64573
818.69        60.73024
819.10        60.75404
819.51        60.76938
819.92        60.88631
820.33        61.11937
820.74          61.423
821.14        61.71387
821.55        61.85534
821.96        61.81982
822.37        61.65945
822.78         61.4374
823.19        61.26056
823.60        61.17182
824.00         61.1588
824.41        61.18207
824.82        61.26688
825.23        61.39153
825.64        61.55009
826.04        61.68864
826.45        61.68034
826.86        61.51855
827.27         61.2527
827.68        60.94072
828.08        60.70988
828.49         60.5643
828.90        60.48822
829.31        60.52508
829.72        60.74246
830.12        61.14822
830.53        61.66559
830.94        62.14084
831.35        62.26676
831.75        61.98949
832.16        61.38419
832.57        60.67125
832.97        60.19162
833.38        60.04618
833.79        60.12185
834.20        60.34661
834.60        60.59571
835.01         60.8143
835.42        61.08519
835.82        61.33076
836.23        61.34172
836.64        61.11564
837.04        60.66624
837.45        60.24978
837.86        60.34865
838.26        61.06724
838.67        62.23598
839.08        63.43041
839.48         63.8457
839.89         63.2781
840.29        62.01928
840.70        60.67187
841.11        59.93935
841.51        60.00447
841.92        60.64095
842.33        61.58976
842.73         62.3835
843.14        62.74054
843.54        62.83606
843.95        62.79639
844.35        62.87479
844.76        63.11515
845.17        63.40617
845.57        63.61877
845.98        63.54033
846.38        63.15637
846.79        62.56508
847.19        61.93309
847.60        61.48881
848.00        61.31655
848.41        61.33446
848.81        61.49191
849.22        61.62542
849.62        61.70855
850.03         61.7637
850.43        61.80779
850.84        61.80729
851.24          61.799
851.65        61.72383
852.05        61.66961
852.46        61.70782
852.86        61.85287
853.27        62.07644
853.67        62.25586
854.07        62.31494
854.48        62.21659
854.88        62.01809
855.29        61.72176
855.69        61.45147
856.10        61.19909
856.50        61.00194
856.90          60.859
857.31        60.78566
857.71        60.82296
858.12        60.90741
858.52        61.02887
858.92        61.06306
859.33         60.9645
859.73        60.80977
860.13        60.58788
860.54        60.30828
860.94        60.03608
861.34        59.76102
861.75         59.5729
862.15        59.65155
862.55        60.00382
862.96         60.5507
863.36        61.17301
863.76        61.58804
864.17        61.69258
864.57        61.57309
864.97        61.29508
865.38        60.98627
865.78        60.72768
866.18        60.48745
866.58        60.29088
866.99         60.1818
867.39        60.19408
867.79        60.33039
868.19        60.56976
868.60        60.83971
869.00        61.14167
869.40        61.46262
869.80        61.78238
870.21        62.06142
870.61        62.31672
871.01         62.4862
871.41        62.53308
871.81        62.42152
872.22        62.15338
872.62        61.74488
873.02        61.28724
873.42        60.93061
873.82        60.72918
874.22        60.66087
874.63        60.64442
875.03        60.55803
875.43        60.35828
875.83        60.08889
876.23        59.83422
876.63        59.72068
877.03        59.78247
877.44        59.95736
877.84        60.17109
878.24        60.33416
878.64        60.36056
879.04        60.10556
879.44        59.76977
879.84        59.78923
880.24        60.19245
880.64        60.80918
881.04        61.30629
881.44        61.17082
881.84        60.32156
882.24          58.967
882.65        57.57186
883.05        56.84579
883.45        56.97099
883.85        57.75072
884.25        58.84503
884.65        59.65728
885.05         59.9827
885.45        59.98431
885.85        59.84906
886.25        59.87161
886.65        60.13027
887.05        60.49503
887.45        60.84968
887.85        61.03127
888.25        60.98635
888.65        60.78802
889.04        60.51193
889.44        60.28321
889.84        60.13236
890.24         60.0331
890.64        59.94636
891.04        59.81483
891.44        59.63023
891.84        59.42338
892.24        59.25087
892.64        59.18156
893.04        59.23631
893.44        59.41322
893.83         59.6562
894.23        59.82452
894.63        59.89928
895.03        59.87656
895.43        59.88225
895.83        60.13368
896.23        60.63873
896.63        61.29916
897.02        61.83697
897.42        61.84055
897.82        61.24812
898.22        60.25334
898.62        59.15657
899.01        58.39277
899.41        58.10264
899.81        58.15414
900.21         58.4505
900.61        58.82636
901.00        59.19019
901.40        59.57039
901.80        59.90799
902.20        60.10059
902.59        60.13872
902.99        60.03065
903.39        59.82132
903.79        59.60539
904.18        59.42173
904.58        59.26077
904.98        59.19547
905.38        59.33646
905.77        59.68375
906.17        60.21548
906.57        60.74141
906.96        60.94094
907.36        60.72932
907.76        60.21071
908.15        59.64187
908.55        59.41533
908.95        59.63409
909.34        60.18814
909.74        60.81929
910.14        61.18382
910.53        61.15276
910.93         60.8561
911.33        60.41367
911.72        59.99393
912.12        59.72076
912.52        59.54762
912.91        59.44787
913.31         59.3994
913.70        59.39981
914.10        59.44115
914.49        59.62197
914.89        60.02014
915.29        60.63848
915.68        61.42121
916.08        62.11606
916.47        62.37832
916.87         62.1409
917.26        61.48666
917.66        60.72298
918.05        60.18813
918.45        59.98217
918.84        60.07005
919.24        60.24633
919.64        60.27731
920.03        60.10965
920.42        59.78799
920.82        59.54701
921.21        59.68583
921.61        60.23651
922.00        61.12925
922.40        62.00884
922.79        62.39074
923.19        62.11931
923.58        61.37601
923.98        60.53436
924.37        60.08822
924.77        60.17105
925.16        60.61181
925.55         61.1915
925.95        61.50926
926.34        61.45382
926.74        61.13681
927.13        60.70372
927.52        60.31196
927.92        60.07036
928.31        59.91359
928.70         59.8334
929.10         59.8008
929.49        59.78715
929.89         59.7566
930.28        59.83657
930.67        60.12994
931.07        60.60999
931.46        61.30025
931.85        61.87307
932.24        61.85131
932.64         61.2075
933.03        60.07394
933.42        58.97696
933.82        58.68042
934.21        59.32571
934.60         60.7232
934.99         62.3364
935.39        63.19024
935.78        63.03067
936.17        62.06021
936.56        60.78513
936.96        60.00489
937.35        59.93203
937.74        60.31937
938.13        60.77932
938.53        60.73039
938.92        60.04853
939.31        58.98776
939.70        57.88266
940.09         57.1712
940.49        56.94144
940.88        57.08712
941.27        57.44529
941.66        57.72483
942.05        57.82793
942.44        57.85658
942.84        57.92997
943.23        58.21539
943.62        58.74252
944.01         59.3877
944.40        60.04063
944.79         60.5612
945.18        60.86872
945.57        60.97748
945.97        60.82163
946.36        60.40399
946.75        59.74488
947.14        58.94913
947.53         58.1417
947.92        57.47045
948.31        56.99909
948.70        56.71041
949.09        56.68678
949.48        57.04793
949.87        57.76804
950.26        58.76336
950.65        59.79017
951.04        60.45452
951.43        60.63024
951.82        60.39959
952.21        59.90247
952.60         59.3987
952.99        59.01743
953.38        58.73294
953.77        58.56991
954.16        58.56182
954.55         58.6899
954.94        58.92038
955.33        59.24963
955.72        59.63953
956.11        60.03959
956.50        60.46443
956.89        60.67276
957.28        60.29109
957.66        59.30495
958.05        57.90304
958.44        56.59388
958.83        56.11018
959.22        56.56258
959.61        57.73754
960.00        59.15419
960.39        59.88894
960.78         59.6526
961.16        58.75064
961.55        57.61225
961.94        56.79386
962.33        56.46617
962.72         56.4521
963.11        56.69862
963.49        57.14265
963.88        57.61998
964.27        58.13982
964.66        58.61628
965.04        58.93973
965.43        59.03641
965.82        58.95988
966.21        58.59871
966.60        57.84052
966.98        56.75243
967.37        55.47851
967.76        54.42594
968.15        54.08157
968.53        54.50561
968.92        55.61984
969.31        56.95921
969.69        57.56493
970.08        57.09537
970.47        55.86687
970.86        54.61177
971.24        54.38979
971.63        55.41571
972.02        57.39729
972.40        59.73988
972.79        60.98877
973.17        60.70463
973.56        59.36745
973.95        57.69298
974.33        56.60329
974.72        56.32847
975.11        56.56843
975.49        57.10212
975.88        57.47682
976.26        57.56049
976.65        57.49571
977.04        57.37829
977.42        57.29064
977.81         57.2298
978.19         57.1007
978.58         57.0333
978.96        57.22277
979.35        57.66209
979.74        58.32936
980.12        59.01055
980.51        59.10043
980.89        58.61299
981.28        57.73601
981.66        56.88015
982.05        56.59831
982.43        57.01667
982.82        57.92002
983.20        59.21209
983.59        60.59671
983.97        61.92762
984.35        63.22781
984.74        64.08379
985.12        64.07053
985.51        63.10926
985.89        61.41097
986.28        59.64286
986.66        58.73274
987.04        58.96484
987.43        60.08648
987.81        61.72593
988.20        62.98695
988.58        63.50311
988.96        63.40889
989.35        62.90798
989.73        62.32499
990.12        61.75495
990.50        61.11948
990.88        60.28929
991.27         59.1434
991.65        57.77392
992.03        56.36633
992.42        55.28548
992.80        54.94036
993.18        55.39072
993.56        56.51222
993.95         57.8761
994.33         58.8168
994.71        58.96082
995.10        58.54422
995.48        57.84766
995.86        57.40992
996.24        57.37114
996.63        57.42509
997.01        57.62654
997.39         57.8149
997.77        57.88068
998.15        57.97398
998.54        57.88455
998.92        57.13906
999.30        55.83442
999.68          54.204
1000.06        52.84297
1000.45        52.56667
1000.83        53.61524
1001.21        55.78091
1001.59        58.66702
1001.97        61.12347
1002.35        62.53103
1002.73        63.15349
1003.12         63.2311
1003.50        63.00432
1003.88        62.71252
1004.26        62.05192
1004.64        61.43283
1005.02         61.7244
1005.40        63.06783
1005.78        65.34425
1006.16         67.2864
1006.54        66.85088
1006.92        63.87044
1007.30        59.17915
1007.69        54.54167
1008.07        52.26273
1008.45        53.02687
1008.83        56.30313
1009.21         61.0336
1009.59        64.48642
1009.97        65.23151
1010.35         63.9868
1010.73        61.67292
1011.11        59.68439
1011.49         58.5136
1011.86        57.70039
1012.24        57.21444
1012.62        57.06592
1013.00        57.18618
1013.38        57.66954
1013.76        58.37851
1014.14        58.82109
1014.52        58.76394
1014.90        58.29649
1015.28        57.55175
1015.66         56.7459
1016.04        55.97794
1016.41        55.21988
1016.79        54.60213
1017.17        54.43019
1017.55        54.72264
1017.93        55.30573
1018.31        56.00535
1018.69        56.56705
1019.06        56.93418
1019.44        57.26103
1019.82        57.25599
1020.20        56.42429
1020.58        54.76871
1020.95        52.42971
1021.33        50.50605
1021.71        50.14752
1022.09        51.48991
1022.46        54.62833
1022.84        58.30296
1023.22         59.2853
1023.60        56.54259
1023.97         51.1002
1024.35        46.15537
1024.73         45.4422
