SpectraSmart Spectrum 2.9.0.0
--------- Device Information -----------
Spectrum Name :  反射率_0
Saving Time :  2024/04/27 00:29:00
Spectro-Module Model Name : SE2030-DUVN
Spectro-Module Serial Number : OS361AC55029948
Wavelength Start : 200
Wavelength End : 1025
Wavelength Unit : Wavelength(nm)
Spectrum Unit : Reflectance(%)
-----------Spectrum Setting ------------
Integration Time : 20ms
Average : 10
Boxcar : 0
Background removal :  enabled
linearity correction :  enabled
SC :  disabled
Intensity correction :  disabled
DWT denoise :  enabled
savitzky-golay :  disabled
FFT :  disabled
Running average :  disabled
Kalman :  disabled
High pass :  disabled
---------------BEGIN--------------------
Wavelength(nm)             Reflectance(%)
200.29               0
200.75        52.33874
201.21        52.44737
201.67        52.48115
202.13        51.90704
202.58        50.62619
203.04        49.15413
203.50        48.26888
203.96        49.77057
204.42        54.68279
204.88        62.43477
205.34        70.86411
205.80        76.25777
206.26           77.23
206.72        74.56601
207.18        70.57044
207.64        67.13425
208.10        64.35396
208.55        62.17269
209.01        59.19162
209.47         54.9906
209.93        51.60662
210.39        50.10629
210.85        51.04027
211.31        55.39714
211.77        65.06336
212.23        86.92576
212.69        140.6929
213.14        227.9702
213.60        219.6094
214.06        154.3611
214.52        111.9732
214.98        94.65547
215.44        89.33669
215.90        88.09956
216.36          89.867
216.81        94.15921
217.27        101.2404
217.73        115.1205
218.19        133.0593
218.65        136.6775
219.11        121.9919
219.57        101.7526
220.02        89.42868
220.48        92.55092
220.94        110.4103
221.40        145.3775
221.86        196.8891
222.32        232.4015
222.77        222.5144
223.23        188.4562
223.69        153.8873
224.15        132.3765
224.61        122.1652
225.06        116.9308
225.52        115.7923
225.98        117.6243
226.44        121.6157
226.90        128.1395
227.36        135.2567
227.81          139.03
228.27        138.9505
228.73        136.0332
229.19        132.9868
229.65        133.2341
230.10        136.8719
230.56        142.7374
231.02         148.515
231.48        150.5636
231.93        148.2731
232.39        143.9858
232.85        139.4693
233.31        137.0339
233.77         137.004
234.22        138.3313
234.68        140.6582
235.14        143.5911
235.60        146.7433
236.05        150.5419
236.51        153.4763
236.97        152.9024
237.43        148.0786
237.88         139.724
238.34        130.1993
238.80        123.8924
239.26        122.2935
239.71        125.7472
240.17        132.9678
240.63        140.2684
241.08        145.1467
241.54        147.0244
242.00        148.0681
242.46        153.4067
242.91        167.0759
243.37        189.5429
243.83        220.3243
244.28        243.0899
244.74        234.6279
245.20        198.4955
245.66        156.9461
246.11        126.1287
246.57        106.0388
247.03        91.61044
247.48        81.80022
247.94        77.08122
248.40        76.66486
248.85        78.74155
249.31        81.14101
249.77        81.56844
250.22        79.71941
250.68        75.47588
251.14        69.67467
251.59        66.32004
252.05        68.39521
252.51        74.91017
252.96        81.81357
253.42        85.94796
253.88         87.4091
254.33        86.77864
254.79        87.99616
255.25         94.4317
255.70          105.49
256.16        119.8297
256.62        131.4263
257.07        131.3321
257.53        122.5918
257.99        111.2866
258.44        102.4147
258.90        100.2925
259.35         102.937
259.81        108.4763
260.27        114.0735
260.72         116.252
261.18        115.2862
261.63        112.3281
262.09        109.6193
262.55        108.5741
263.00        108.9896
263.46        110.3845
263.91        111.4561
264.37        111.2654
264.83        109.6757
265.28        107.2074
265.74        104.9534
266.19        103.6517
266.65         103.534
267.11        104.0718
267.56        104.7421
268.02         104.776
268.47        103.9372
268.93        102.5945
269.38        100.9164
269.84        99.27407
270.30        97.77873
270.75        96.28001
271.21        94.97713
271.66        94.05513
272.12        93.52045
272.57        93.26496
273.03        92.95178
273.48        91.97225
273.94        90.33573
274.39        88.17995
274.85        86.02419
275.31        84.30586
275.76        83.07153
276.22        82.27031
276.67        81.58565
277.13        80.81193
277.58        79.76265
278.04        78.57862
278.49        77.31342
278.95        76.28061
279.40        75.40948
279.86        74.74313
280.31         73.9356
280.77        72.75721
281.22        71.12153
281.68        69.31588
282.13        67.59821
282.59        66.52741
283.04        66.07281
283.50        66.09368
283.95        66.22955
284.41        65.97737
284.86        65.19587
285.32        64.11314
285.77        62.93357
286.22        62.07145
286.68        61.59261
287.13        61.27734
287.59        60.98756
288.04        60.42789
288.50        59.59787
288.95        58.58056
289.41        57.51731
289.86        56.46016
290.32        55.52561
290.77        54.65477
291.22        53.93756
291.68        53.47973
292.13        53.25098
292.59        53.23471
293.04        53.31809
293.50        53.35984
293.95        53.29609
294.40        53.16402
294.86        53.00267
295.31        52.86286
295.77        52.78411
296.22        52.73547
296.68        52.73474
297.13        52.77824
297.58        52.87309
298.04        53.02179
298.49        53.21074
298.95        53.44318
299.40        53.69244
299.85        53.95284
300.31        54.19732
300.76        54.35892
301.21        54.43828
301.67        54.47523
302.12        54.47558
302.58        54.53764
303.03          54.643
303.48        54.79405
303.94        54.98637
304.39        55.15351
304.84        55.29239
305.30        55.41341
305.75        55.48568
306.20        55.54144
306.66        55.59697
307.11        55.62811
307.57        55.61068
308.02        55.43223
308.47        55.11311
308.93        54.70409
309.38        54.31263
309.83        54.16903
310.29        54.30491
310.74        54.64017
311.19        54.99644
311.65        55.07449
312.10        54.79868
312.55        54.26334
313.00        53.65722
313.46        53.26322
313.91        53.12822
314.36        53.17741
314.82        53.26264
315.27         53.1629
315.72        52.81898
316.18        52.32691
316.63        51.80357
317.08        51.44514
317.53        51.29534
317.99        51.27793
318.44        51.30162
318.89        51.20765
319.35        50.95127
319.80        50.58691
320.25        50.18188
320.70        49.84109
321.16        49.59377
321.61        49.42145
322.06        49.27879
322.51        49.10123
322.97        48.86222
323.42        48.58571
323.87        48.31857
324.32        48.14168
324.78        48.05048
325.23        48.04753
325.68        48.01581
326.13        47.77875
326.59        47.30777
327.04        46.68028
327.49        46.05167
327.94         45.6699
328.39        45.58688
328.85        45.71363
329.30        45.95119
329.75        46.02004
330.20        45.83647
330.66          45.473
331.11        45.06487
331.56         44.7952
332.01        44.71817
332.46        44.75921
332.92        44.83134
333.37        44.86258
333.82        44.79309
334.27        44.67413
334.72        44.51428
335.17        44.31762
335.63        44.09806
336.08        43.87283
336.53        43.69919
336.98        43.69323
337.43        43.86943
337.88        44.18354
338.34        44.53083
338.79        44.77527
339.24        44.84556
339.69        44.78363
340.14        44.61449
340.59        44.39083
341.05         44.1621
341.50        43.91571
341.95        43.71535
342.40        43.65664
342.85        43.75305
343.30        43.97866
343.75        44.25595
344.20        44.45031
344.66        44.52187
345.11        44.49781
345.56        44.41497
346.01         44.3408
346.46        44.30344
346.91        44.28737
347.36        44.28278
347.81        44.27975
348.26        44.27194
348.72         44.2608
349.17        44.25734
349.62        44.29348
350.07        44.36487
350.52         44.4605
350.97        44.50764
351.42        44.39397
351.87        44.11127
352.32        43.70829
352.77        43.30203
353.22        43.05918
353.67        43.01534
354.13        43.12516
354.58        43.29618
355.03        43.36735
355.48        43.28761
355.93        43.09374
356.38        42.87072
356.83        42.74825
357.28         42.7458
357.73         42.8128
358.18        42.84232
358.63        42.66985
359.08        42.27019
359.53         41.7146
359.98        41.13152
360.43        40.70293
360.88        40.46947
361.33        40.37628
361.78        40.33551
362.23        40.20655
362.68        39.95327
363.13        39.62441
363.58        39.27766
364.03        38.99844
364.48        38.80478
364.93        38.65668
365.38        38.51868
365.83        38.34166
366.28        38.11125
366.73        37.85115
367.18        37.57012
367.63        37.27701
368.08        36.98029
368.53         36.6767
368.98        36.38571
369.43         36.1386
369.88         35.9393
370.33         35.7811
370.78        35.63434
371.23        35.44866
371.68        35.21355
372.13         34.9444
372.58        34.67326
373.03        34.45178
373.48         34.2896
373.93        34.16462
374.38        34.05138
374.83        33.91124
375.28        33.73266
375.72        33.52443
376.17        33.31224
376.62        33.09127
377.07        32.87347
377.52        32.66731
377.97        32.49237
378.42        32.38557
378.87         32.3475
379.32         32.3467
379.77        32.37478
380.22        32.42089
380.67        32.46557
381.11        32.51767
381.56        32.48434
382.01        32.25294
382.46        31.82961
382.91        31.28244
383.36        30.75295
383.81        30.43056
384.26         30.3432
384.71        30.42949
385.15        30.60005
385.60        30.69794
386.05        30.66908
386.50         30.5589
386.95        30.39084
387.40        30.20548
387.85        30.02623
388.29         29.8198
388.74        29.64556
389.19        29.51769
389.64        29.43433
390.09        29.38714
390.54        29.34941
390.98        29.26596
391.43        29.14499
391.88        29.00358
392.33        28.86045
392.78        28.74234
393.23        28.65521
393.67        28.57163
394.12        28.52205
394.57        28.49695
395.02        28.48875
395.47        28.48915
395.91          28.479
396.36        28.41163
396.81        28.29888
397.26        28.16529
397.71         28.0309
398.15        27.94205
398.60        27.94013
399.05        27.89112
399.50        27.82617
399.95        27.99827
400.39        28.31331
400.84         28.2641
401.29        27.87857
401.74        27.64856
402.18        27.60943
402.63        27.46608
403.08        27.25436
403.53        27.15346
403.97        27.17179
404.42        27.26865
404.87        27.36581
405.32        27.33205
405.76         27.1416
406.21        26.85241
406.66        26.56186
407.11        26.42377
407.55        26.47885
408.00        26.66748
408.45        26.90527
408.90        27.02635
409.34        26.97682
409.79        26.81545
410.24        26.61658
410.68        26.47745
411.13        26.43204
411.58         26.4463
412.03        26.48603
412.47        26.49929
412.92        26.46012
413.37        26.39709
413.81        26.33398
414.26        26.32608
414.71        26.37144
415.15         26.4593
415.60        26.54218
416.05        26.56783
416.49        26.52364
416.94        26.42491
417.39        26.31092
417.83        26.23786
418.28        26.22033
418.73        26.23877
419.17         26.2753
419.62        26.30153
420.07        26.30662
420.51        26.29345
420.96        26.26801
421.41        26.23194
421.85        26.17914
422.30        26.09948
422.74        25.99031
423.19        25.96503
423.64        25.98656
424.08        25.89356
424.53        25.70612
424.98        25.65576
425.42        25.77414
425.87        25.87792
426.31        25.93844
426.76        26.09844
427.21        26.26911
427.65        26.09763
428.10         25.7079
428.54        25.56674
428.99        25.71713
429.44        26.00211
429.88        26.28987
430.33         26.2732
430.77        26.01445
431.22        26.04551
431.66        26.32918
432.11         26.3858
432.56        26.22239
433.00         26.0975
433.45        25.98496
433.89        25.94107
434.34        26.04747
434.78        25.54586
435.23        25.90727
435.67        25.94961
436.12        26.03948
436.57        25.95612
437.01        25.73776
437.46        25.60988
437.90        25.58492
438.35        25.52839
438.79        25.45349
439.24         25.4709
439.68        25.57663
440.13        25.73804
440.57        25.89997
441.02        25.97592
441.46        25.94043
441.91        25.80514
442.35        25.60956
442.80         25.5702
443.24         25.6367
443.69        25.56317
444.13        25.38592
444.58        25.38046
445.02        25.54844
445.47        25.74439
445.91        25.90544
446.36        26.00435
446.80        26.01549
447.24        25.94907
447.69        25.84257
448.13        25.74887
448.58        25.69408
449.02        25.66065
449.47        25.64866
449.91         25.6427
450.36        25.64512
450.80         25.6576
451.25        25.68246
451.69        25.70147
452.13         25.7142
452.58        25.71524
453.02        25.70842
453.47        25.70745
453.91        25.71282
454.36        25.72408
454.80         25.7192
455.24        25.66275
455.69        25.56124
456.13        25.41571
456.58        25.28589
457.02        25.22039
457.46        25.23895
457.91        25.32172
458.35        25.41031
458.79        25.42086
459.24        25.35658
459.68        25.23251
460.13        25.11971
460.57        25.06444
461.01        25.09867
461.46        25.18111
461.90        25.30492
462.34        25.44067
462.79        25.56216
463.23         25.6844
463.68        25.76192
464.12        25.73642
464.56        25.60253
465.01        25.41689
465.45        25.21072
465.89        25.09564
466.34         25.0874
466.78        25.14972
467.22        25.25713
467.67        25.33762
468.11        25.38033
468.55        25.39498
468.99        25.38776
469.44        25.36569
469.88        25.33716
470.32        25.29349
470.77        25.25068
471.21        25.24155
471.65        25.26893
472.10        25.32955
472.54        25.39341
472.98        25.41901
473.42        25.39841
473.87        25.35347
474.31        25.29558
474.75        25.26692
475.20         25.2822
475.64        25.31687
476.08        25.36449
476.52        25.40236
476.97        25.42284
477.41        25.44551
477.85        25.47521
478.29        25.48145
478.74        25.48604
479.18        25.55409
479.62        25.66376
480.06         25.7373
480.50        25.77314
480.95        25.78302
481.39        25.75937
481.83        25.93438
482.27          25.932
482.72        26.06414
483.16        26.21428
483.60        26.32021
484.04        26.36858
484.48        26.46928
484.93        26.67348
485.37        26.47162
485.81        26.79309
486.25        26.67331
486.69        27.08928
487.14        26.91847
487.58        27.00932
488.02        27.08957
488.46        26.73815
488.90        26.92945
489.34        27.09295
489.79        27.32622
490.23         27.4421
490.67        27.61942
491.11        27.81715
491.55        27.78279
491.99        27.58561
492.43        27.53472
492.88        27.66915
493.32        27.83726
493.76        28.00144
494.20        28.17303
494.64        28.34248
495.08        28.47038
495.52         28.5552
495.96        28.73302
496.41        28.95869
496.85        28.90478
497.29        28.64403
497.73        28.82541
498.17        29.05749
498.61        29.33498
499.05        29.47227
499.49        29.56272
499.93        29.53854
500.37        29.65447
500.82        29.87221
501.26        30.01095
501.70        30.05919
502.14        30.12691
502.58        30.24158
503.02        30.38655
503.46        30.56053
503.90        30.76748
504.34        30.94872
504.78        31.00697
505.22        30.92882
505.66         30.7485
506.10         30.5517
506.54        30.47524
506.98        30.55262
507.42        30.74331
507.86        30.98444
508.30        31.17002
508.74        31.26434
509.18        31.29714
509.62        31.29494
510.06        31.30123
510.50        31.33141
510.94        31.36766
511.38        31.40355
511.82        31.43273
512.26        31.45472
512.70        31.48033
513.14        31.51348
513.58        31.55536
514.02        31.60675
514.46        31.66328
514.90        31.72709
515.34        31.80367
515.78        31.88819
516.22        31.97262
516.66         32.0402
517.10        32.06578
517.54        32.04494
517.98        31.98834
518.42        31.90849
518.86        31.82634
519.30        31.75235
519.74        31.68346
520.18         31.6297
520.62        31.60319
521.06        31.60575
521.50        31.63961
521.93        31.68524
522.37         31.6979
522.81        31.67273
523.25        31.61543
523.69        31.55935
524.13        31.55963
524.57        31.62072
525.01        31.71806
525.45        31.80304
525.89        31.79834
526.32        31.68565
526.76        31.50532
527.20        31.29669
527.64        31.12263
528.08        31.00647
528.52        30.93124
528.96        30.89652
529.40        30.90071
529.83        30.93302
530.27        30.99338
530.71        31.05277
531.15        31.06612
531.59         31.0237
532.03        30.93627
532.46         30.8199
532.90        30.72579
533.34        30.66339
533.78        30.60355
534.22        30.54769
534.66        30.53441
535.09        30.53863
535.53        30.49139
535.97        30.39487
536.41        30.33012
536.85        30.30407
537.28        30.26984
537.72        30.24576
538.16        30.28473
538.60        30.38843
539.04        30.53664
539.47         30.6913
539.91        30.81476
540.35        30.88878
540.79        30.92652
541.22        30.94343
541.66        30.97595
542.10        31.03107
542.54        31.09954
542.97        31.17209
543.41        31.24797
543.85        31.32329
544.29         31.4089
544.72        31.50046
545.16        31.60932
545.60        31.73242
546.04        31.86969
546.47        32.03287
546.91        32.23567
547.35        32.46997
547.79        32.72483
548.22        32.96893
548.66        33.14944
549.10         33.2959
549.53         33.4085
549.97        33.50661
550.41        33.54757
550.84        33.57915
551.28        33.68956
551.72         33.8521
552.15        34.04981
552.59        34.31688
553.03        34.15463
553.46         34.5847
553.90        34.70326
554.34        34.80747
554.77        34.89744
555.21        34.99779
555.65        35.11996
556.08        35.25282
556.52        35.37481
556.96        35.46532
557.39        35.58894
557.83        35.71624
558.27        35.65132
558.70        35.45666
559.14        35.44493
559.57        35.61311
560.01         35.7677
560.45        35.87902
560.88        36.01454
561.32        36.17975
561.75        36.31483
562.19        36.42704
562.63          36.521
563.06        36.59257
563.50        36.64853
563.93        36.66656
564.37        36.70781
564.80        36.79341
565.24        36.82436
565.68        36.73837
566.11        37.23515
566.55        36.97768
566.98        37.07275
567.42        37.17747
567.85         37.3364
568.29        37.55847
568.72        37.85219
569.16        38.21799
569.60         38.4151
570.03        38.56609
570.47         38.7186
570.90        38.93253
571.34        38.76165
571.77        39.09015
572.21        39.35526
572.64        39.20214
573.08        39.78498
573.51        39.55321
573.95         39.7243
574.38        39.93404
574.82        40.11307
575.25        39.93893
575.69        39.94044
576.12        40.04851
576.56        39.89727
576.99        40.19608
577.42        39.98242
577.86        40.07828
578.29        40.58261
578.73        40.56559
579.16        40.47444
579.60        39.98999
580.03        39.97815
580.47        39.94832
580.90        40.27438
581.33        39.99716
581.77        40.37946
582.20         39.9937
582.64         39.8026
583.07        39.55563
583.51         39.2281
583.94        39.14822
584.37         39.0936
584.81        39.10713
585.24        39.07224
585.68        39.00177
586.11        38.66186
586.54        38.79513
586.98        38.38137
587.41        38.24606
587.85         38.6098
588.28        37.96092
588.71        38.32196
589.15        37.87384
589.58         38.2622
590.01        38.01934
590.45        38.15585
590.88        38.32803
591.31        38.19869
591.75        37.90195
592.18         37.8873
592.61        38.17992
593.05        38.49195
593.48         39.1164
593.91        38.56636
594.35         38.7196
594.78        38.36666
595.21         38.4136
595.65        38.67807
596.08        39.29397
596.51        39.39112
596.94        39.33037
597.38        39.41365
597.81        39.75587
598.24        40.04118
598.68        40.27983
599.11        40.16975
599.54        41.39862
599.97        40.93928
600.41        41.34433
600.84        41.27664
601.27        41.99174
601.70        42.03269
602.14        42.60752
602.57        42.99046
603.00        43.55495
603.43        43.40757
603.87        44.25781
604.30        44.63299
604.73        45.09115
605.16        45.11221
605.60        45.52827
606.03        45.69797
606.46        45.88551
606.89        46.15227
607.32        46.93214
607.76        47.28439
608.19        47.73468
608.62        48.05898
609.05        48.46115
609.48        48.90381
609.92        49.78046
610.35        49.78384
610.78        49.61062
611.21         49.4774
611.64        50.08999
612.07        50.60394
612.50        50.84456
612.94        51.13255
613.37        51.33869
613.80        51.59053
614.23        51.24005
614.66          51.496
615.09        52.11567
615.52        52.49162
615.96        52.55933
616.39        52.87666
616.82        53.41536
617.25        53.27381
617.68        53.63147
618.11        53.86359
618.54        54.27638
618.97        54.43556
619.40        54.35359
619.84        54.56545
620.27         54.5656
620.70        54.73663
621.13        54.87545
621.56        54.68326
621.99        54.25918
622.42        54.35096
622.85        54.71947
623.28        54.75631
623.71        54.92012
624.14        54.82269
624.57        55.33073
625.00         55.1725
625.43        55.24879
625.86        55.15237
626.29        55.15172
626.72        54.69559
627.15        54.76001
627.58        54.64818
628.01        54.56936
628.44        54.38322
628.87        54.12193
629.30        53.65675
629.73        53.41678
630.16        53.33537
630.59        53.04326
631.02        52.95866
631.45        52.89015
631.88        52.73732
632.31        52.46228
632.74        52.12876
633.17        51.70487
633.60        51.25598
634.03         50.7868
634.46        50.29202
634.89        49.78624
635.32        49.30553
635.75        48.86562
636.18        48.41742
636.61        47.98088
637.04        47.60914
637.47        47.30033
637.89        47.02803
638.32        46.75782
638.75        46.48313
639.18        46.19888
639.61        45.91122
640.04        45.62428
640.47        45.34279
640.90        45.07136
641.33        44.81208
641.76        44.57999
642.18        44.40696
642.61        44.28705
643.04        44.21766
643.47        44.18679
643.90        44.17228
644.33        44.16464
644.76        44.17172
645.18        44.18714
645.61        44.18928
646.04        44.18583
646.47         44.1875
646.90        44.22928
647.33        44.35627
647.75        44.56093
648.18        44.87935
648.61        45.29695
649.04        45.60399
649.47        45.74387
649.89        46.48201
650.32        46.59263
650.75        46.95461
651.18        47.25398
651.61        47.74591
652.03        48.39312
652.46        48.93502
652.89        49.34706
653.32        49.66756
653.74        50.01891
654.17        50.35002
654.60         50.8052
655.03        51.32396
655.46         51.1588
655.88        51.61753
656.31        54.66322
656.74        56.71346
657.16        55.92887
657.59        54.98262
658.02        54.26495
658.45        55.49991
658.87        55.29519
659.30        55.43917
659.73        55.84429
660.15        56.56831
660.58        56.04509
661.01        56.26931
661.44        56.73587
661.86        56.75283
662.29        56.37329
662.72        57.05437
663.14        57.60193
663.57        57.80377
664.00        57.45575
664.42        57.59138
664.85         58.2548
665.27        58.90827
665.70        59.38547
666.13        59.70291
666.55        59.82292
666.98        59.69402
667.41        59.40059
667.83         59.4651
668.26        59.32229
668.69        59.43864
669.11        59.63181
669.54          59.895
669.96        60.21034
670.39        60.58603
670.82        60.96553
671.24        61.20452
671.67         61.2829
672.09        61.25757
672.52        61.20974
672.94        61.20306
673.37        61.27533
673.80        61.41362
674.22        61.60632
674.65        61.78562
675.07        61.94746
675.50        62.10163
675.92        62.24439
676.35        62.35409
676.77        62.43283
677.20        62.47864
677.62        62.51833
678.05        62.59973
678.47        62.72569
678.90        62.88599
679.32        63.04935
679.75        63.15735
680.17         63.1955
680.60        63.24623
681.02        63.32365
681.45        63.32291
681.87        63.33023
682.30        63.58768
682.72        64.05318
683.15        64.42799
683.57        64.64552
684.00        64.69962
684.42        64.66055
684.85        64.73647
685.27        64.94625
685.70         65.1689
686.12        65.34102
686.54         65.4852
686.97        65.59125
687.39        65.57959
687.82        65.44254
688.24         65.6601
688.66         65.4952
689.09        65.54807
689.51          65.606
689.94        65.68502
690.36        65.78662
690.78        65.87146
691.21        65.97666
691.63        66.19762
692.06        66.50515
692.48        66.74802
692.90        66.86501
693.33        66.90495
693.75        66.85641
694.17        66.62393
694.60        66.37551
695.02        66.41025
695.44         66.7413
695.87        67.37076
696.29        68.05904
696.71        68.00443
697.14        67.34947
697.56        67.17471
697.98        67.54186
698.41        67.70594
698.83        67.66839
699.25        67.94786
699.68        68.42197
700.10        68.67878
700.52        68.64174
700.94        68.44926
701.37        68.23598
701.79        68.22302
702.21        68.45647
702.64        68.83691
703.06         69.2619
703.48        69.55407
703.90        69.65623
704.33        69.62686
704.75        69.51472
705.17        69.38623
705.59        69.28198
706.01        69.19086
706.44        69.15457
706.86        69.21023
707.28        69.34306
707.70        69.62979
708.12        70.05581
708.55        70.07994
708.97        70.50513
709.39        70.60876
709.81        70.64445
710.23        70.67479
710.66        70.71336
711.08        70.72517
711.50        70.71101
711.92         70.6673
712.34        70.59124
712.76        70.63198
713.19        70.82397
713.61        70.51261
714.03        70.86162
714.45        70.92992
714.87         71.0722
715.29        71.26863
715.71        71.51661
716.13        71.77928
716.56        72.00143
716.98         72.2251
717.40        72.39796
717.82        72.51973
718.24        72.55345
718.66         72.4422
719.08        72.20435
719.50        71.88844
719.92        71.59463
720.34        71.47067
720.76        71.54922
721.19        71.76353
721.61         72.0905
722.03        72.42986
722.45        72.72601
722.87        72.99062
723.29        73.16472
723.71        73.15866
724.13        72.97431
724.55        72.64745
724.97        72.28996
725.39        72.09896
725.81        72.12996
726.23         72.3081
726.65        72.56532
727.07        72.94599
727.49        73.14294
727.91        73.39126
728.33        73.60752
728.75        73.78973
729.17         73.9323
729.59        74.02214
730.01        74.06618
730.43         74.0847
730.85        74.08402
731.27        74.05719
731.69        74.01413
732.10        73.97219
732.52        73.94221
732.94         73.9154
733.36        73.87144
733.78        73.77711
734.20        73.65304
734.62        73.37015
735.04          73.553
735.46        73.27385
735.88        73.75587
736.30        74.03555
736.72        74.40448
737.13        74.87718
737.55        75.28922
737.97        75.59744
738.39        75.70677
738.81        75.29839
739.23         74.6013
739.65        74.57179
740.06         75.1351
740.48        75.41032
740.90         75.3401
741.32         75.4888
741.74        75.85717
742.16         76.1099
742.57        76.21221
742.99        76.28306
743.41        76.30902
743.83        76.14545
744.25        75.85824
744.67        75.68329
745.08         75.6883
745.50        75.74493
745.92        75.86537
746.34        76.14891
746.75        76.49081
747.17        76.63656
747.59        76.55141
748.01        76.31499
748.42        76.02685
748.84        75.86776
749.26         75.8976
749.68        75.99137
750.09        76.10023
750.51        76.33837
750.93        76.56634
751.35          76.378
751.76        75.87794
752.18         75.6032
752.60        75.59026
753.01        75.70006
753.43        75.62343
753.85        75.60897
754.27        75.57767
754.68        75.56541
755.10        75.60173
755.52        75.67928
755.93         75.8177
756.35        76.08504
756.77        76.46284
757.18        76.75285
757.60        76.95597
758.02        77.22964
758.43        77.44341
758.85        77.10581
759.26        77.41145
759.68        76.10886
760.10        76.21114
760.51        76.65462
760.93        77.06264
761.34        77.04377
761.76        77.56845
762.18        77.61884
762.59        77.64423
763.01        77.56116
763.42        77.54159
763.84        77.74031
764.26        78.06337
764.67        78.13039
765.09        77.97156
765.50         77.6347
765.92        77.28411
766.33        77.29411
766.75        77.52966
767.16        77.38705
767.58        76.87663
768.00        76.73092
768.41        77.03665
768.83        77.39362
769.24        77.66922
769.66        77.92945
770.07        78.09072
770.49        77.81859
770.90        77.35155
771.32        77.69579
771.73        78.68819
772.15        79.03275
772.56        78.66379
772.97        78.27911
773.39        78.05597
773.80        77.97746
774.22        78.07256
774.63        78.40244
775.05        78.77239
775.46        78.94772
775.88        78.83483
776.29        78.53093
776.70         78.1965
777.12        78.12387
777.53        78.38338
777.95        78.82015
778.36        79.29746
778.77        79.54088
779.19        79.50506
779.60         79.3245
780.02        79.03256
780.43        78.79353
780.84        78.71981
781.26        78.32188
781.67        77.82276
782.09        78.66776
782.50        80.43011
782.91        80.20333
783.33         79.0872
783.74        78.54455
784.15        78.96186
784.57        79.06437
784.98        78.87518
785.39        78.78696
785.81        78.89851
786.22        79.62602
786.63        80.69556
787.04        81.02355
787.46        80.61553
787.87         80.3074
788.28        80.25458
788.70        80.11712
789.11         79.9156
789.52        80.03144
789.93        80.34651
790.35        80.22019
790.76        79.75266
791.17        79.75942
791.58        80.23313
792.00        80.35374
792.41        80.07511
792.82        80.36408
793.23        80.46449
793.65        80.25878
794.06        79.73242
794.47        79.92211
794.88        80.65059
795.29        80.85748
795.71        80.45951
796.12        80.12057
796.53        79.96663
796.94         79.8047
797.35        79.76862
797.76        80.21517
798.18        80.93223
798.59        81.39015
799.00        81.49408
799.41        81.05074
799.82        81.03812
800.23          80.925
800.64        81.01651
801.06        81.19683
801.47        81.42569
801.88        81.52088
802.29        81.41673
802.70        81.17828
803.11        80.87389
803.52        80.56574
803.93        80.32254
804.34        80.23877
804.75         80.3284
805.17        80.28457
805.58        80.91531
805.99        81.06991
806.40          81.062
806.81        82.22439
807.22        83.97922
807.63         83.5396
808.04        81.29696
808.45        80.34296
808.86        80.93094
809.27        81.40086
809.68        81.49192
810.09         81.5495
810.50        81.49667
810.91        81.25032
811.32        81.00222
811.73        81.04956
812.14        81.44402
812.55        82.10249
812.96        82.77946
813.37        83.01068
813.78        82.67463
814.19        81.95486
814.60        81.11206
815.01        80.48663
815.42        80.16739
815.83          80.064
816.24        80.11615
816.65        80.20686
817.05        80.29487
817.46        80.39998
817.87        80.54787
818.28        80.71189
818.69        80.88515
819.10        81.02978
819.51        81.18284
819.92        81.42933
820.33        81.76263
820.74        82.14427
821.14        82.45353
821.55         82.4911
821.96        82.23061
822.37        81.74438
822.78        81.18737
823.19        80.82193
823.60        80.73566
824.00        80.89552
824.41        81.15426
824.82        81.37541
825.23        81.48913
825.64        81.54087
826.04        81.56394
826.45        81.56311
826.86         81.5704
827.27        81.57973
827.68        81.58508
828.08        81.61929
828.49        81.62858
828.90        81.61851
829.31        81.64848
829.72        81.81381
830.12        82.14371
830.53        82.54327
830.94        82.85018
831.35        82.73633
831.75        82.16929
832.16        81.24988
832.57        80.28259
832.97        79.71886
833.38        79.67841
833.79        80.00781
834.20        80.55237
834.60        81.05578
835.01        81.42461
835.42        81.78044
835.82        82.08139
836.23        82.16165
836.64        82.04149
837.04        81.69452
837.45        81.38822
837.86        81.65093
838.26        82.58866
838.67        84.00928
839.08        85.38902
839.48        85.73471
839.89        84.81641
840.29        83.01443
840.70        81.12239
841.11        80.06097
841.51        80.06441
841.92        80.83754
842.33        82.04301
842.73        83.06924
843.14        83.53967
843.54        83.67309
843.95        83.61301
844.35        83.65848
844.76          83.867
845.17        84.11927
845.57        84.26312
845.98        84.04832
846.38        83.47487
846.79        82.65788
847.19        81.85942
847.60         81.4479
848.00        81.52254
848.41        81.93475
848.81        82.50765
849.22        82.83822
849.62        82.85719
850.03        82.67735
850.43        82.40501
850.84        82.13541
851.24        81.97943
851.65        81.79926
852.05        81.80407
852.46        82.22144
852.86        83.03288
853.27        84.12702
853.67         85.0518
854.07        85.32431
854.48        84.84814
854.88        83.80518
855.29        82.48087
855.69        81.58367
856.10        81.27773
856.50        81.47923
856.90        81.93095
857.31        82.20288
857.71        82.21296
858.12        82.02616
858.52        81.80389
858.92        81.66662
859.33          81.648
859.73         81.7363
860.13         81.8306
860.54        81.81664
860.94        81.71965
861.34        81.56225
861.75        81.45074
862.15        81.60437
862.55        82.02428
862.96         82.5788
863.36        83.14684
863.76        83.42149
864.17        83.30453
864.57        82.93604
864.97        82.35368
865.38        81.62348
865.78         80.8496
866.18         80.0295
866.58        79.36468
866.99        79.20309
867.39        79.63123
867.79        80.51303
868.19        81.55978
868.60        82.29694
869.00        82.62207
869.40        82.61247
869.80        82.36182
870.21        82.08889
870.61        81.96622
871.01         81.8729
871.41        81.75629
871.81        81.54053
872.22        81.20392
872.62        80.79861
873.02        80.43039
873.42        80.24409
873.82        80.27522
874.22        80.47395
874.63          80.702
875.03        80.76395
875.43        80.59626
875.83        80.25613
876.23        79.88197
876.63         79.6853
877.03        79.72498
877.44        79.92999
877.84        80.19794
878.24        80.33514
878.64        80.25306
879.04        79.90372
879.44        79.51546
879.84         79.4957
880.24        79.88203
880.64        80.54204
881.04        81.09716
881.44        80.94235
881.84         79.9876
882.24         78.4673
882.65        76.93987
883.05        76.26088
883.45        76.63218
883.85        77.80003
884.25        79.28904
884.65        80.27721
885.05        80.50072
885.45        80.19701
885.85         79.6712
886.25        79.39732
886.65        79.50991
887.05        79.83396
887.45        80.21248
887.85        80.41257
888.25         80.3569
888.65         80.1471
889.04        79.87405
889.44        79.68758
889.84         79.6122
890.24        79.59309
890.64        79.57252
891.04        79.46737
891.44        79.27179
891.84        79.05341
892.24        78.85829
892.64        78.73695
893.04        78.72074
893.44        78.80083
893.83        79.03262
894.23        79.44521
894.63        80.03448
895.03        80.73428
895.43        81.43796
895.83        81.98804
896.23         82.3018
896.63        82.37697
897.02        82.19938
897.42        81.79005
897.82        81.21044
898.22        80.55256
898.62        79.87938
899.01        79.25656
899.41         78.7564
899.81         78.3474
900.21        78.19176
900.61        78.53499
901.00        79.35777
901.40        80.53584
901.80        81.66455
902.20        82.09822
902.59        81.71592
902.99        80.70846
903.39        79.47469
903.79        78.68816
904.18        78.53997
904.58        78.82706
904.98        79.37951
905.38        79.94021
905.77        80.40176
906.17        80.88032
906.57         81.2427
906.96        81.25339
907.36        80.87946
907.76        80.18451
908.15        79.51112
908.55        79.40366
908.95        79.97703
909.34        81.07796
909.74        82.28339
910.14        82.98005
910.53        82.95594
910.93        82.41801
911.33         81.5833
911.72        80.77825
912.12        80.20728
912.52        79.78509
912.91        79.49583
913.31        79.34846
913.70        79.33052
914.10        79.43158
914.49        79.71992
914.89        80.17854
915.29        80.78941
915.68        81.51687
916.08         82.1088
916.47        82.25711
916.87        81.91892
917.26        81.16788
917.66        80.35052
918.05         79.8286
918.45        79.71053
918.84        79.95902
919.24        80.33826
919.64        80.57696
920.03        80.60609
920.42        80.46989
920.82        80.39848
921.21        80.69246
921.61        81.37123
922.00        82.35242
922.40        83.29301
922.79        83.77602
923.19        83.64249
923.58        83.06776
923.98        82.32559
924.37        81.73425
924.77        81.41708
925.16        81.23422
925.55        81.17057
925.95        81.17354
926.34        81.22244
926.74        81.33382
927.13        81.36102
927.52        80.98097
927.92        80.23116
928.31        79.22337
928.70        78.27938
929.10        77.86393
929.49        78.05834
929.89         78.6394
930.28        79.52554
930.67        80.42836
931.07        81.15865
931.46        81.87121
931.85        82.26256
932.24        81.91277
932.64        80.87498
933.03        79.27171
933.42        77.77634
933.82        77.37631
934.21        78.25404
934.60        80.18032
934.99        82.47765
935.39        83.88361
935.78        84.04126
936.17        83.17501
936.56        81.86326
936.96        81.04163
937.35        80.97213
937.74        81.37736
938.13        81.80559
938.53        81.58609
938.92        80.60536
939.31        79.19107
939.70        77.82742
940.09         77.1632
940.49        77.29877
940.88        78.04111
941.27        79.07737
941.66        79.83346
942.05        80.10876
942.44        80.11083
942.84        79.97144
943.23         79.8923
943.62        79.96335
944.01        80.03755
944.40        80.24754
944.79        80.85243
945.18        81.82999
945.57         83.0983
945.97        84.15329
946.36        84.24702
946.75        83.20019
947.14        81.35049
947.53        79.30834
947.92        77.94122
948.31         77.4762
948.70        77.69036
949.09        78.33708
949.48        78.97157
949.87        79.40255
950.26        79.73634
950.65        80.02094
951.04        80.32993
951.43        80.67043
951.82         80.9631
952.21        81.10655
952.60        80.98518
952.99        80.62781
953.38        80.14413
953.77        79.72626
954.16        79.66353
954.55        80.00282
954.94         80.5995
955.33         81.3571
955.72        82.08819
956.11        82.66764
956.50        83.15801
956.89        83.28699
957.28         82.6321
957.66        81.20433
958.05        79.24429
958.44        77.39681
958.83        76.57769
959.22        76.94129
959.61        78.25277
960.00        79.94793
960.39        80.93286
960.78        80.84487
961.16        79.99409
961.55        78.92068
961.94          78.326
962.33        78.41832
962.72        79.00452
963.11        79.84508
963.49         80.5372
963.88        80.79448
964.27        80.72751
964.66        80.62836
965.04        80.95894
965.43        81.74075
965.82        82.89866
966.21          83.849
966.60        83.53243
966.98        81.76069
967.37        79.08134
967.76        76.51735
968.15        75.32607
968.53        75.71673
968.92        77.36617
969.31        79.56406
969.69        80.85573
970.08        80.62819
970.47        79.34754
970.86        77.85379
971.24        77.34193
971.63        78.08463
972.02        79.73283
972.40        81.67899
972.79        82.43219
973.17        81.63507
973.56        79.83934
973.95        77.89711
974.33        76.88821
974.72         77.0295
975.11        77.94076
975.49        79.19455
975.88        79.86745
976.26        79.70202
976.65        78.97715
977.04        77.96458
977.42        77.02422
977.81        76.27325
978.19        75.55095
978.58         75.0909
978.96        75.26163
979.35        76.04337
979.74        77.39315
980.12        78.84626
980.51         79.2763
980.89        78.58594
981.28        77.12913
981.66         75.5927
982.05        74.96667
982.43        75.48946
982.82        76.81378
983.20        78.79419
983.59        80.95541
983.97         83.0731
984.35          85.187
984.74        86.75447
985.12        87.16309
985.51         86.2692
985.89        84.27489
986.28        82.03223
986.66        80.77601
987.04        80.86967
987.43        81.99056
987.81        83.59252
988.20         84.3713
988.58        83.93063
988.96        82.57729
989.35        80.88885
989.73        79.63641
990.12        79.01009
990.50        78.83393
990.88        78.69642
991.27        77.95773
991.65        76.55921
992.03        74.80457
992.42        73.39352
992.80        73.20178
993.18        74.39091
993.56        76.69754
993.95        79.30384
994.33        80.84798
994.71        80.71388
995.10        79.42975
995.48        77.74069
995.86         76.8703
996.24        77.13616
996.63        77.99474
997.01        79.38113
997.39            80.7
997.77        81.58084
998.15        82.32539
998.54        82.55293
998.92        81.53157
999.30        79.40824
999.68        76.42371
1000.06        73.74232
1000.45        73.02097
1000.83        74.66277
1001.21        78.39134
1001.59        83.00042
1001.97        85.54499
1002.35        84.91913
1002.73        82.05608
1003.12        78.69958
1003.50        77.04078
1003.88        77.67298
1004.26        79.78707
1004.64        82.75504
1005.02        85.20242
1005.40        86.37519
1005.78        86.87662
1006.16        86.36352
1006.54        84.25591
1006.92         80.8681
1007.30         76.5071
1007.69        72.73054
1008.07        71.64328
1008.45        73.79421
1008.83        78.77361
1009.21        85.21329
1009.59        89.49442
1009.97        89.80029
1010.35        87.10236
1010.73        82.67799
1011.11        78.48725
1011.49        75.35442
1011.86        72.80855
1012.24        71.18195
1012.62        70.87518
1013.00        71.84078
1013.38        74.14462
1013.76        77.25219
1014.14        79.51549
1014.52        80.04662
1014.90        79.05547
1015.28        77.18195
1015.66         75.4964
1016.04        74.31913
1016.41        73.40004
1016.79        72.62081
1017.17        71.91756
1017.55        71.29253
1017.93        70.86929
1018.31        70.75365
1018.69        71.00004
1019.06        71.63589
1019.44        72.67113
1019.82        73.76823
1020.20        74.17667
1020.58        73.59856
1020.95        72.10168
1021.33        70.65488
1021.71        70.26427
1022.09        71.12386
1022.46        73.36974
1022.84        75.91812
1023.22          76.296
1023.60        73.73836
1023.97        68.92301
1024.35        64.77732
1024.73        64.67444
