SpectraSmart Spectrum 2.9.0.0
--------- Device Information -----------
Spectrum Name :  反射率_0
Saving Time :  2024/04/27 00:28:20
Spectro-Module Model Name : SE2030-DUVN
Spectro-Module Serial Number : OS361AC55029948
Wavelength Start : 200
Wavelength End : 1025
Wavelength Unit : Wavelength(nm)
Spectrum Unit : Reflectance(%)
-----------Spectrum Setting ------------
Integration Time : 20ms
Average : 10
Boxcar : 0
Background removal :  enabled
linearity correction :  enabled
SC :  disabled
Intensity correction :  disabled
DWT denoise :  enabled
savitzky-golay :  disabled
FFT :  disabled
Running average :  disabled
Kalman :  disabled
High pass :  disabled
---------------BEGIN--------------------
Wavelength(nm)             Reflectance(%)
200.29               0
200.75        40.96033
201.21        41.92988
201.67         42.7267
202.13        42.98956
202.58        42.70284
203.04        42.48546
203.50        42.56517
203.96        43.22221
204.42        44.68593
204.88        46.57181
205.34        49.11269
205.80         52.7843
206.26         56.7856
206.72         60.0178
207.18        61.63422
207.64              61
208.10         58.1728
208.55        53.46996
209.01        46.01355
209.47        39.25474
209.93        37.41081
210.39        39.04506
210.85          42.353
211.31        47.22448
211.77        55.35317
212.23         72.3507
212.69        113.2339
213.14        179.5594
213.60        172.7565
214.06        122.8794
214.52        89.74709
214.98         74.4088
215.44        67.22822
215.90        62.70006
216.36        60.96904
216.81         63.4044
217.27        71.01841
217.73        86.68792
218.19        109.0758
218.65        120.7157
219.11         113.533
219.57        98.29575
220.02        87.36517
220.48        88.01063
220.94        99.62016
221.40        123.0066
221.86        158.4452
222.32        185.4918
222.77        183.1666
223.23        164.1582
223.69         142.538
224.15         126.575
224.61        116.2736
225.06        108.5448
225.52        104.1213
225.98        103.2841
226.44        105.4859
226.90         110.444
227.36        116.5936
227.81        120.8046
228.27        122.4166
228.73        122.0523
229.19        121.4386
229.65        122.8505
230.10        126.3807
230.56        131.2731
231.02        135.7798
231.48        137.2309
231.93        135.1814
232.39        131.4152
232.85        127.4689
233.31        125.3729
233.77         125.352
234.22        126.5827
234.68        128.3672
235.14        129.6936
235.60        130.1322
236.05        130.1678
236.51        129.2629
236.97        126.8388
237.43        122.9116
237.88        117.7122
238.34        112.3124
238.80        108.7888
239.26        107.7592
239.71        109.7606
240.17        113.5451
240.63         116.271
241.08         116.292
241.54        113.0407
242.00        109.1377
242.46        109.9887
242.91         119.226
243.37        138.1269
243.83        166.9384
244.28        190.7773
244.74        188.0731
245.20        160.1984
245.66        125.9398
246.11        100.5765
246.57        84.66716
247.03        73.53695
247.48        65.82618
247.94        61.19579
248.40        59.53759
248.85        60.17459
249.31        61.84607
249.77        63.18971
250.22        64.04292
250.68        64.43589
251.14        64.85224
251.59        66.45448
252.05        69.58301
252.51         73.7958
252.96        76.68863
253.42        76.78275
253.88        74.82024
254.33        71.59521
254.79        70.49788
255.25        74.31791
255.70        82.45468
256.16        93.50274
256.62        103.2774
257.07         105.166
257.53        100.8802
257.99        94.68157
258.44        89.43449
258.90        87.96835
259.35         89.1065
259.81        91.84225
260.27        95.07083
260.72        97.50878
261.18        99.06638
261.63        99.64674
262.09        99.82755
262.55        99.42463
263.00        98.43605
263.46        97.29161
263.91        95.76349
264.37        94.19428
264.83        92.61711
265.28        90.96912
265.74        89.77202
266.19        89.15723
266.65        89.20489
267.11        89.66411
267.56        90.13519
268.02        90.00093
268.47        89.10114
268.93         87.6953
269.38        86.01933
269.84        84.56222
270.30        83.43664
270.75        82.47515
271.21        81.70068
271.66        81.03467
272.12        80.43724
272.57         79.8872
273.03        79.24935
273.48        78.24865
273.94        76.94947
274.39        75.38734
274.85        73.85649
275.31        72.52532
275.76        71.39738
276.22        70.49155
276.67        69.67698
277.13         68.9713
277.58        68.23812
278.04        67.52955
278.49        66.72041
278.95        65.83506
279.40        64.79594
279.86        63.75581
280.31         62.6177
280.77         61.4654
281.22        60.24883
281.68        59.07228
282.13        58.00035
282.59        57.30141
283.04        56.90186
283.50        56.76255
283.95        56.60844
284.41        56.06193
284.86        55.05614
285.32        53.78648
285.77        52.50522
286.22        51.67213
286.68        51.34994
287.13        51.32148
287.59        51.37624
288.04        51.11162
288.50         50.4842
288.95         49.5948
289.41        48.62542
289.86         47.7191
290.32        46.99076
290.77        46.35181
291.22        45.81939
291.68        45.39901
292.13        45.05631
292.59        44.81964
293.04        44.65765
293.50        44.54808
293.95        44.46294
294.40        44.40239
294.86        44.36153
295.31        44.32318
295.77        44.30033
296.22        44.28945
296.68        44.31314
297.13        44.37669
297.58        44.49867
298.04        44.68538
298.49         44.9389
298.95         45.2864
299.40        45.70609
299.85        46.17296
300.31        46.66088
300.76        47.11143
301.21        47.50541
301.67        47.86487
302.12        48.13795
302.58        48.32945
303.03        48.41935
303.48        48.44973
303.94        48.49194
304.39        48.59971
304.84        48.80156
305.30        49.08022
305.75        49.37203
306.20         49.6475
306.66        49.89701
307.11         50.1079
307.57        50.26695
308.02        50.28608
308.47        50.18091
308.93        49.98516
309.38        49.76759
309.83        49.70099
310.29        49.81305
310.74        50.04709
311.19        50.28736
311.65        50.33493
312.10        50.13753
312.55        49.75954
313.00         49.3271
313.46        49.02699
313.91         48.8854
314.36        48.85608
314.82         48.8372
315.27        48.68277
315.72        48.35325
316.18        47.91494
316.63        47.44917
317.08        47.09746
317.53        46.88993
317.99         46.7732
318.44        46.67859
318.89        46.48235
319.35        46.15536
319.80        45.74451
320.25        45.31301
320.70        44.95876
321.16         44.7076
321.61        44.54174
322.06        44.41822
322.51        44.27399
322.97        44.07917
323.42        43.85096
323.87         43.6209
324.32         43.4477
324.78        43.32342
325.23         43.2527
325.68        43.13985
326.13        42.84428
326.59        42.35167
327.04        41.73547
327.49        41.13172
327.94        40.75454
328.39        40.64592
328.85        40.72129
329.30        40.90634
329.75        40.97684
330.20        40.85773
330.66        40.60548
331.11        40.28793
331.56        39.98495
332.01        39.73139
332.46        39.48479
332.92        39.24848
333.37        39.10084
333.82         39.0295
334.27        39.04082
334.72        39.06446
335.17         38.9695
335.63        38.72756
336.08        38.39493
336.53        38.06651
336.98        37.91949
337.43        37.99281
337.88        38.21732
338.34        38.49313
338.79        38.69149
339.24        38.73996
339.69        38.68347
340.14        38.52309
340.59        38.26495
341.05        37.95193
341.50        37.59192
341.95        37.27287
342.40         37.1297
342.85        37.18663
343.30        37.40066
343.75        37.69883
344.20        37.95313
344.66        38.11509
345.11        38.20915
345.56        38.22892
346.01         38.1731
346.46        38.06182
346.91        37.90158
347.36        37.74271
347.81        37.67227
348.26        37.70292
348.72        37.80147
349.17        37.93076
349.62        38.04197
350.07         38.1084
350.52        38.14961
350.97        38.10978
351.42        37.90428
351.87        37.54112
352.32        37.05768
352.77        36.59248
353.22        36.34718
353.67        36.35654
354.13        36.56614
354.58        36.83754
355.03        36.93158
355.48        36.78245
355.93        36.45695
356.38        36.08558
356.83        35.86705
357.28        35.84031
357.73        35.93246
358.18        36.02372
358.63        35.92823
359.08        35.60315
359.53        35.11858
359.98        34.58632
360.43        34.16346
360.88         33.8871
361.33         33.7107
361.78        33.55648
362.23        33.30363
362.68        32.93091
363.13        32.49067
363.58        32.05965
364.03        31.74862
364.48        31.57922
364.93        31.50604
365.38        31.47161
365.83         31.3866
366.28        31.22363
366.73         31.0141
367.18         30.7758
367.63        30.53696
368.08        30.30821
368.53        30.07047
368.98        29.84206
369.43         29.6552
369.88        29.51101
370.33        29.40857
370.78        29.29551
371.23        29.08174
371.68        28.75677
372.13        28.35319
372.58        27.95765
373.03        27.70834
373.48        27.63088
373.93        27.67288
374.38        27.75261
374.83          27.739
375.28        27.59257
375.72        27.35086
376.17        27.06341
376.62        26.76961
377.07        26.49695
377.52        26.23875
377.97        26.01811
378.42        25.88044
378.87         25.8265
379.32        25.82884
379.77        25.86544
380.22        25.89853
380.67        25.90752
381.11        25.91183
381.56        25.84044
382.01        25.61257
382.46        25.23957
382.91        24.76637
383.36        24.32981
383.81        24.11682
384.26        24.14823
384.71        24.36584
385.15        24.63783
385.60        24.73858
386.05        24.60794
386.50        24.31827
386.95        23.97269
387.40        23.73504
387.85        23.64613
388.29        23.62779
388.74        23.65779
389.19          23.652
389.64        23.59019
390.09        23.50511
390.54        23.39928
390.98        23.26741
391.43        23.13368
391.88        22.99184
392.33        22.87583
392.78        22.83666
393.23        22.87402
393.67        22.95794
394.12        23.05803
394.57        23.08373
395.02        23.01663
395.47        22.87048
395.91        22.69967
396.36        22.58744
396.81        22.56993
397.26        22.62538
397.71        22.68837
398.15        22.67631
398.60        22.60456
399.05        22.41317
399.50        22.19474
399.95        22.24258
400.39        22.50326
400.84        22.54558
401.29        22.35313
401.74        22.25538
402.18        22.26151
402.63        22.15671
403.08        21.99137
403.53        21.94346
403.97        22.02766
404.42        22.19097
404.87        22.35817
405.32        22.40826
405.76         22.3116
406.21         22.1204
406.66        21.90755
407.11        21.78729
407.55        21.79422
408.00        21.88368
408.45        22.00366
408.90        22.05089
409.34         21.9928
409.79        21.87018
410.24        21.73052
410.68        21.63169
411.13        21.59442
411.58        21.59589
412.03         21.6113
412.47        21.60377
412.92         21.5566
413.37        21.49436
413.81         21.4351
414.26        21.42124
414.71        21.45338
415.15        21.52465
415.60        21.60965
416.05        21.68593
416.49        21.74204
416.94        21.77663
417.39        21.79768
417.83        21.81686
418.28        21.83652
418.73        21.85072
419.17        21.85295
419.62        21.83447
420.07        21.79807
420.51        21.74779
420.96        21.70089
421.41        21.67729
421.85        21.67129
422.30        21.66352
422.74        21.63983
423.19        21.67797
423.64        21.73932
424.08        21.69288
424.53        21.53965
424.98        21.45048
425.42        21.45234
425.87        21.40259
426.31        21.31527
426.76          21.365
427.21        21.49291
427.65        21.39895
428.10        21.15534
428.54        21.09398
428.99        21.23847
429.44        21.47776
429.88        21.71486
430.33        21.71488
430.77        21.52944
431.22        21.58262
431.66        21.85097
432.11        21.92826
432.56        21.81322
433.00         21.7895
433.45        21.79845
433.89        21.64639
434.34        21.47642
434.78         21.0489
435.23        21.53961
435.67        21.63091
436.12        21.61343
436.57        21.49764
437.01        21.32553
437.46        21.20741
437.90         21.1536
438.35        21.07793
438.79        20.98071
439.24        20.93436
439.68        20.94081
440.13          20.981
440.57        21.04149
441.02        21.11815
441.46        21.19627
441.91        21.21591
442.35        21.17777
442.80        21.29843
443.24        21.48783
443.69        21.38097
444.13        21.04209
444.58        20.90758
445.02        21.00045
445.47        21.09634
445.91        21.14815
446.36        21.18334
446.80        21.18303
447.24        21.14878
447.69        21.09844
448.13        21.05084
448.58        21.01836
449.02         20.9871
449.47        20.96914
449.91        20.97257
450.36        21.00115
450.80        21.05019
451.25         21.0947
451.69        21.08014
452.13        21.00207
452.58        20.87095
453.02        20.73345
453.47        20.66861
453.91        20.69291
454.36        20.78829
454.80        20.88966
455.24        20.89162
455.69        20.78081
456.13        20.57906
456.58        20.38338
457.02        20.30493
457.46        20.37328
457.91        20.54936
458.35        20.73353
458.79        20.77587
459.24        20.66606
459.68        20.44628
460.13        20.23555
460.57         20.1586
461.01        20.25577
461.46        20.46196
461.90        20.71428
462.34        20.89233
462.79        20.94702
463.23        20.92208
463.68        20.82679
464.12        20.69208
464.56        20.54023
465.01        20.39282
465.45        20.25183
465.89        20.17648
466.34        20.17018
466.78        20.21458
467.22        20.29465
467.67        20.35929
468.11        20.40064
468.55         20.4197
468.99        20.41593
469.44        20.38853
469.88        20.34463
470.32         20.2849
470.77        20.22642
471.21        20.20182
471.65          20.216
472.10        20.26146
472.54        20.32358
472.98        20.38396
473.42        20.43318
473.87        20.48183
474.31        20.50652
474.75        20.49285
475.20        20.44602
475.64         20.3614
476.08        20.27558
476.52        20.23476
476.97        20.24837
477.41        20.31667
477.85        20.40542
478.29         20.4262
478.74        20.38215
479.18        20.34604
479.62        20.34156
480.06        20.37146
480.50         20.4445
480.95        20.54213
481.39        20.61546
481.83        20.78701
482.27        20.74295
482.72        20.76159
483.16        20.77621
483.60        20.77444
484.04        20.76014
484.48        20.82338
484.93        21.01545
485.37        20.91178
485.81        21.22149
486.25        21.33594
486.69        21.77621
487.14        21.66244
487.58        21.68984
488.02        21.77634
488.46         21.4973
488.90        21.56528
489.34        21.50693
489.79        21.72395
490.23        22.02043
490.67        22.11502
491.11         22.0249
491.55        21.96856
491.99        21.99169
492.43        22.01533
492.88        22.05895
493.32        22.18341
493.76        22.35204
494.20        22.49116
494.64        22.58987
495.08        22.61898
495.52        22.61941
495.96        22.78727
496.41        23.08134
496.85        23.18437
497.29         23.0843
497.73        23.19915
498.17        23.23041
498.61         23.3034
499.05        23.32874
499.49        23.38703
499.93         23.4282
500.37        23.63501
500.82        23.93459
501.26        24.12934
501.70         24.1881
502.14        24.19932
502.58        24.21121
503.02        24.26841
503.46        24.38649
503.90        24.54828
504.34        24.70389
504.78        24.77409
505.22        24.74298
505.66        24.63972
506.10        24.52362
506.54        24.48666
506.98        24.55133
507.42        24.68858
507.86        24.85287
508.30        24.96936
508.74          25.015
509.18        25.01306
509.62        24.98954
510.06        24.98591
510.50        25.01574
510.94        25.06396
511.38        25.11981
511.82        25.16801
512.26        25.20398
512.70        25.23644
513.14        25.27015
513.58        25.31003
514.02        25.35733
514.46        25.40683
514.90        25.45669
515.34        25.50624
515.78        25.55207
516.22        25.59163
516.66        25.61946
517.10        25.62685
517.54        25.61386
517.98        25.58709
518.42        25.55034
518.86        25.50993
519.30        25.47038
519.74        25.42969
520.18        25.40052
520.62          25.401
521.06        25.43216
521.50         25.4904
521.93        25.54917
522.37        25.55535
522.81        25.50292
523.25        25.40514
523.69        25.30061
524.13        25.25091
524.57        25.26584
525.01        25.32169
525.45        25.37993
525.89        25.37804
526.32        25.29907
526.76        25.17546
527.20        25.02948
527.64        24.89725
528.08        24.79379
528.52        24.70649
528.96        24.64581
529.40        24.62858
529.83        24.65011
530.27        24.70662
530.71        24.76041
531.15        24.75163
531.59        24.66969
532.03        24.53254
532.46        24.37614
532.90        24.27682
533.34        24.24813
533.78        24.25371
534.22        24.26996
534.66        24.28984
535.09        24.28434
535.53        24.21059
535.97        24.08718
536.41        24.00463
536.85        23.97595
537.28        23.95518
537.72        23.94868
538.16        23.98588
538.60        24.06382
539.04        24.17135
539.47        24.28228
539.91        24.37126
540.35        24.42583
540.79         24.4557
541.22        24.46982
541.66        24.49273
542.10        24.52954
542.54        24.57387
542.97        24.62613
543.41        24.69758
543.85        24.78532
544.29        24.89205
544.72        25.00033
545.16        25.09882
545.60        25.18079
546.04        25.25301
546.47        25.33814
546.91         25.4682
547.35        25.64577
547.79        25.86093
548.22        26.08041
548.66        26.24869
549.10        26.38618
549.53        26.49438
549.97        26.60338
550.41        26.70239
550.84         26.8271
551.28        27.03441
551.72        27.27008
552.15        27.46842
552.59         27.6455
553.03        27.42943
553.46        27.67775
553.90        27.69082
554.34         27.7175
554.77        27.86271
555.21        27.93074
555.65        28.07382
556.08        28.21275
556.52        28.34011
556.96        28.43671
557.39        28.55215
557.83         28.6654
558.27        28.61911
558.70        28.45929
559.14        28.43261
559.57        28.53596
560.01        28.61399
560.45        28.66611
560.88        28.76739
561.32        28.92355
561.75        29.11901
562.19        29.31465
562.63        29.35682
563.06        29.27509
563.50        29.28852
563.93        29.38847
564.37        29.47191
564.80        29.55484
565.24        29.65153
565.68         29.6855
566.11        30.13466
566.55        29.90926
566.98        29.93386
567.42        29.95598
567.85        30.04929
568.29        30.23494
568.72        30.50553
569.16        30.84242
569.60        31.06025
570.03        31.25941
570.47        31.39739
570.90        31.51446
571.34        31.57731
571.77        31.84754
572.21        32.01786
572.64         32.0638
573.08        32.50185
573.51        32.28005
573.95        32.36163
574.38        32.51076
574.82        32.72965
575.25         32.7216
575.69        32.75179
576.12        32.75311
576.56        32.71893
576.99        32.79354
577.42        32.85708
577.86        32.85683
578.29        33.36573
578.73         33.2407
579.16        33.14026
579.60        32.73079
580.03        32.69278
580.47        32.64294
580.90        32.70822
581.33        32.59832
581.77        32.75089
582.20        32.75607
582.64        32.63488
583.07        32.58478
583.51         32.2737
583.94        31.93587
584.37        31.82974
584.81        31.97235
585.24        31.95894
585.68        31.80113
586.11        31.51331
586.54        31.51715
586.98        31.36538
587.41        31.19468
587.85        31.38978
588.28          31.042
588.71        31.00202
589.15        30.90006
589.58        30.80132
590.01        30.63797
590.45         30.7029
590.88        30.96156
591.31         30.9597
591.75        30.80674
592.18        30.60927
592.61        30.38801
593.05        31.45691
593.48        31.50235
593.91        31.53486
594.35           31.24
594.78        31.02428
595.21        31.07333
595.65        31.45537
596.08        32.10795
596.51        32.28178
596.94         31.9164
597.38        31.91626
597.81        32.26804
598.24        32.73765
598.68        32.80355
599.11        32.96397
599.54        33.48578
599.97        33.52958
600.41        33.81411
600.84        33.83956
601.27        34.28234
601.70        34.67369
602.14        35.06535
602.57        35.34603
603.00        35.61486
603.43        35.51768
603.87        36.42813
604.30        36.80458
604.73        37.12364
605.16        37.21682
605.60        37.82837
606.03        38.02627
606.46        38.06625
606.89        38.38587
607.32        39.11322
607.76        39.53736
608.19        39.76007
608.62        40.01336
609.05        40.33314
609.48        40.65854
609.92        41.43683
610.35        41.66066
610.78         41.4101
611.21        41.53047
611.64        42.00699
612.07        42.47447
612.50        42.64932
612.94         42.9311
613.37        43.24046
613.80        43.29758
614.23        43.20821
614.66        43.44028
615.09        43.97216
615.52        44.35944
615.96        44.54409
616.39        44.77782
616.82        45.06219
617.25        45.16969
617.68        45.16306
618.11        45.40848
618.54        45.84407
618.97        46.01989
619.40        45.96549
619.84        46.01525
620.27        46.22059
620.70        46.45561
621.13         46.6472
621.56        46.46754
621.99        46.04329
622.42        46.04945
622.85         46.4552
623.28        46.57288
623.71        46.58758
624.14        46.44407
624.57        46.80072
625.00        46.73179
625.43        46.65725
625.86        46.53064
626.29        46.49123
626.72        46.06335
627.15        46.15414
627.58        46.02835
628.01         45.9143
628.44        45.73846
628.87         45.4965
629.30        45.20086
629.73        44.88392
630.16        44.61845
630.59        44.41425
631.02        44.24266
631.45        44.07034
631.88        43.84581
632.31           43.55
632.74        43.19873
633.17        42.80218
633.60        42.36513
634.03        41.89971
634.46        41.43132
634.89        40.98553
635.32        40.48677
635.75        40.14638
636.18        39.75551
636.61        39.38474
637.04        39.06599
637.47        38.79396
637.89        38.54771
638.32        38.28342
638.75        37.97671
639.18        37.62502
639.61        37.24362
640.04        36.87011
640.47        36.56042
640.90        36.32879
641.33        36.16249
641.76        36.04174
642.18        35.93656
642.61         35.8262
643.04        35.72517
643.47        35.64439
643.90        35.60033
644.33        35.59567
644.76        35.62288
645.18        35.67008
645.61        35.71079
646.04        35.74639
646.47        35.79108
646.90        35.86618
647.33        35.99599
647.75          36.173
648.18        36.42683
648.61        36.76341
649.04        37.04503
649.47        37.23468
649.89        37.94164
650.32         38.1379
650.75        38.53128
651.18        38.84686
651.61        39.20512
652.03         39.6347
652.46        40.18215
652.89        40.80932
653.32        41.21743
653.74        41.52442
654.17        41.91177
654.60        42.55478
655.03        42.99321
655.46        42.92214
655.88        43.44307
656.31        46.54605
656.74        49.45406
657.16        49.21077
657.59        48.54102
658.02        47.00904
658.45        47.05144
658.87        47.02213
659.30        47.29507
659.73        47.62252
660.15        48.55541
660.58        48.17492
661.01        48.38217
661.44        48.65018
661.86        48.69347
662.29         48.5355
662.72        49.08556
663.14        49.36946
663.57        49.61083
664.00          49.591
664.42        49.82504
664.85        50.33092
665.27        50.82777
665.70        51.21124
666.13        51.48988
666.55        51.64446
666.98        51.61951
667.41        51.46935
667.83        51.62263
668.26        51.57566
668.69        51.73932
669.11        51.94672
669.54        52.16781
669.96        52.38742
670.39        52.65584
670.82        52.94778
671.24        53.09266
671.67        53.12258
672.09        53.26114
672.52        53.50745
672.94         53.6413
673.37        53.66576
673.80        53.70527
674.22        53.77962
674.65        53.82791
675.07         53.8703
675.50        53.92124
675.92        53.98564
676.35        54.06183
676.77        54.14987
677.20        54.23203
677.62        54.34389
678.05        54.50394
678.47        54.67835
678.90        54.93269
679.32         55.2544
679.75        55.01377
680.17        55.20119
680.60        55.17217
681.02        55.03695
681.45         55.0527
681.87        55.28607
682.30         55.6298
682.72        56.01977
683.15        56.32369
683.57        56.47732
684.00        56.38535
684.42        56.17183
684.85        56.15098
685.27        56.35859
685.70        56.68392
686.12        57.02767
686.54        57.15297
686.97        57.24593
687.39        57.17207
687.82        57.06368
688.24        57.03515
688.66        57.11778
689.09        57.26722
689.51        57.44894
689.94         57.5879
690.36        57.66727
690.78        57.70117
691.21         57.7192
691.63        57.75695
692.06        57.83031
692.48        57.93806
692.90        58.04319
693.33        58.09238
693.75        58.07533
694.17        57.98415
694.60        57.90622
695.02        57.98326
695.44        58.21061
695.87        58.56852
696.29        58.93617
696.71        58.89823
697.14        58.55628
697.56        58.50455
697.98        58.75119
698.41        58.95979
698.83        58.87435
699.25        59.02702
699.68        59.27507
700.10        59.40026
700.52        59.35789
700.94        59.22633
701.37        59.09929
701.79        59.12693
702.21        59.33329
702.64        59.65118
703.06         59.9887
703.48        60.18108
703.90        60.18739
704.33        60.06904
704.75        59.89274
705.17         59.7568
705.59        59.70259
706.01        59.69734
706.44        59.75853
706.86        59.91558
707.28        60.14211
707.70         60.4687
708.12        60.81787
708.55        60.94975
708.97        60.88933
709.39         60.9044
709.81        61.00212
710.23        60.99516
710.66        60.88934
711.08        60.82404
711.50        60.80947
711.92        60.81221
712.34        60.83785
712.76        60.91033
713.19        60.99076
713.61        61.04338
714.03        61.04921
714.45        61.02475
714.87        61.02659
715.29        61.14903
715.71        61.39989
716.13        61.72847
716.56        62.05124
716.98        62.31029
717.40        62.43628
717.82        62.46003
718.24        62.37429
718.66        62.16985
719.08        61.88304
719.50        61.54546
719.92        61.25749
720.34        61.16946
720.76        61.30787
721.19        61.60787
721.61        62.01811
722.03        62.39651
722.45        62.67617
722.87        62.87693
723.29        62.96546
723.71        62.89535
724.13        62.67355
724.55        62.34472
724.97        62.01113
725.39        61.77467
725.81         61.6676
726.23        61.94293
726.65        62.00683
727.07        62.31375
727.49        62.44427
727.91        62.61697
728.33        62.77042
728.75        62.93237
729.17        63.10431
729.59         63.2518
730.01        63.36714
730.43        63.44483
730.85        63.48157
731.27        63.48496
731.69        63.44996
732.10        63.36556
732.52         63.2399
732.94        63.09781
733.36        62.99982
733.78        62.92197
734.20        62.86705
734.62        63.05907
735.04        63.52852
735.46        63.16106
735.88        63.81288
736.30        63.90273
736.72        63.99396
737.13        64.20799
737.55        64.42486
737.97        64.40233
738.39        64.13862
738.81        63.71443
739.23        63.31408
739.65        63.46983
740.06        64.03908
740.48        64.33833
740.90         64.2943
741.32        64.31237
741.74        64.43669
742.16        64.53002
742.57        64.59983
742.99        64.66662
743.41        64.69601
743.83        64.61893
744.25        64.43552
744.67        64.16594
745.08         63.9179
745.50        63.84107
745.92        63.97215
746.34        64.25649
746.75        64.57765
747.17        64.72503
747.59        64.65904
748.01        64.47315
748.42        64.25353
748.84        64.11372
749.26        64.13379
749.68        64.28141
750.09        64.50026
750.51        64.84592
750.93        65.14762
751.35        64.93385
751.76        64.32542
752.18        63.99331
752.60        63.99598
753.01        63.98669
753.43        63.91618
753.85        63.89475
754.27        63.92167
754.68        63.98877
755.10        64.09907
755.52        64.25196
755.93        64.42288
756.35        64.57219
756.77          64.736
757.18        64.90196
757.60        65.06462
758.02         65.4153
758.43        65.78308
758.85        65.40917
759.26         64.9329
759.68        64.44018
760.10        64.23402
760.51        64.65175
760.93        65.52681
761.34        65.26191
761.76        65.19164
762.18         65.1056
762.59        65.46044
763.01        65.41515
763.42        65.11339
763.84         65.4054
764.26         66.1243
764.67        66.15762
765.09        65.58843
765.50        65.22911
765.92        65.18594
766.33        64.92454
766.75        64.76289
767.16        64.61018
767.58        64.58186
768.00        64.70713
768.41        64.96458
768.83        65.31904
769.24        65.61398
769.66        65.51149
770.07        65.12122
770.49        64.88868
770.90        64.94904
771.32        65.38438
771.73        66.02144
772.15        66.31419
772.56        66.20965
772.97        65.89341
773.39        65.52236
773.80        65.45649
774.22        65.64907
774.63        65.66114
775.05        65.44135
775.46        65.38794
775.88        65.48093
776.29        65.51044
776.70        65.48691
777.12        65.56959
777.53        65.76608
777.95        65.96727
778.36        66.15429
778.77        66.25763
779.19        66.28079
779.60        66.30018
780.02        66.24921
780.43        66.09796
780.84        65.93041
781.26        65.42575
781.67        64.83669
782.09        65.51222
782.50        67.12794
782.91        66.91673
783.33        66.23722
783.74         65.8738
784.15        66.27299
784.57        66.34747
784.98        66.12222
785.39        66.01037
785.81        66.08401
786.22        66.49372
786.63        67.10255
787.04        67.43768
787.46        67.44666
787.87        67.33395
788.28        67.21123
788.70        67.14741
789.11        67.15991
789.52         67.2616
789.93         67.3611
790.35        67.30754
790.76        67.08218
791.17        66.70216
791.58        66.32662
792.00        66.16616
792.41          66.241
792.82        66.60158
793.23        67.06274
793.65        66.84427
794.06        66.17731
794.47        66.40228
794.88         67.3427
795.29        67.65917
795.71        67.27049
796.12        66.99068
796.53        66.93911
796.94        66.87167
797.35        66.86826
797.76        67.18181
798.18        67.65189
798.59        67.90211
799.00        67.85619
799.41        67.51025
799.82        67.30883
800.23        67.17709
800.64         67.2578
801.06        67.44699
801.47        67.67924
801.88         67.7566
802.29        67.61581
802.70         67.3186
803.11        66.94585
803.52        66.62788
803.93        66.45314
804.34        66.41534
804.75        66.48412
805.17         66.7578
805.58        67.28114
805.99        67.49271
806.40        67.49692
806.81        68.69439
807.22        70.49487
807.63        70.05825
808.04        67.76433
808.45        66.71835
808.86        67.17845
809.27        67.46547
809.68         67.3812
810.09        67.39414
810.50        67.45207
810.91        67.43788
811.32        67.45576
811.73          67.651
812.14        68.03038
812.55        68.57825
812.96        69.11752
813.37        69.21137
813.78        68.82893
814.19        68.34467
814.60         67.8716
815.01        67.35229
815.42        66.83669
815.83        66.40574
816.24        66.13423
816.65        66.09348
817.05        66.30979
817.46        66.74673
817.87        67.25282
818.28        67.54069
818.69        67.54267
819.10        67.29716
819.51        66.98296
819.92        66.94179
820.33        67.25646
820.74        67.81505
821.14        68.39211
821.55        68.62453
821.96         68.4358
822.37        67.95499
822.78        67.39257
823.19        67.09839
823.60        67.18365
824.00        67.56243
824.41        68.05814
824.82        68.47141
825.23         68.7024
825.64        68.80757
826.04        68.81654
826.45        68.73769
826.86        68.60789
827.27        68.42272
827.68        68.19895
828.08        68.00554
828.49        67.81915
828.90        67.65518
829.31        67.56844
829.72        67.63342
830.12        67.87402
830.53        68.21515
830.94        68.52171
831.35        68.51732
831.75        68.16306
832.16        67.52521
832.57        66.83858
832.97        66.45762
833.38        66.47353
833.79        66.76292
834.20        67.19371
834.60        67.55097
835.01        67.76317
835.42        67.93485
835.82         68.0651
836.23        68.07162
836.64        67.98979
837.04        67.79711
837.45        67.66745
837.86        67.95853
838.26        68.73696
838.67        69.84906
839.08        70.92992
839.48        71.27986
839.89        70.72065
840.29        69.51149
840.70        68.18402
841.11        67.32485
841.51        67.10163
841.92        67.32256
842.33         67.8359
842.73        68.37335
843.14        68.71173
843.54        68.98146
843.95        69.18549
844.35        69.37811
844.76        69.55058
845.17        69.65298
845.57        69.65492
845.98        69.50481
846.38         69.2289
846.79        68.85528
847.19        68.47604
847.60        68.20574
848.00        68.09178
848.41         68.0914
848.81        68.17619
849.22        68.20755
849.62        68.18854
850.03         68.1404
850.43        68.11382
850.84        68.12563
851.24        68.22695
851.65        68.33669
852.05        68.52904
852.46        68.82158
852.86        69.19129
853.27        69.61193
853.67         69.9147
854.07        69.98405
854.48        69.78547
854.88          69.389
855.29        68.86589
855.69        68.48755
856.10        68.27773
856.50        68.24403
856.90        68.29629
857.31        68.29488
857.71        68.24159
858.12        68.11665
858.52        67.97425
858.92        67.78747
859.33        67.55133
859.73        67.32131
860.13        67.07962
860.54        66.82489
860.94        66.61666
861.34        66.45118
861.75        66.39729
862.15        66.60252
862.55          67.053
862.96        67.64906
863.36        68.28338
863.76        68.69543
864.17         68.7809
864.57        68.62326
864.97        68.24625
865.38        67.70566
865.78        67.09142
866.18        66.42379
866.58        65.82145
866.99        65.49052
867.39        65.51663
867.79        65.83436
868.19        66.37465
868.60        66.99624
869.00        67.65293
869.40        68.33467
869.80        68.90974
870.21        69.13848
870.61        69.02097
871.01        68.58624
871.41        67.97191
871.81        67.38161
872.22        66.87206
872.62        66.39209
873.02        66.02269
873.42        65.87611
873.82         65.9651
874.22        66.28831
874.63        66.63326
875.03        66.66535
875.43         66.3149
875.83        65.67566
876.23        65.04312
876.63        64.88783
877.03        65.30816
877.44        66.13351
877.84        67.07343
878.24        67.63932
878.64        67.63326
879.04        67.06285
879.44        66.28571
879.84        65.94705
880.24         66.1513
880.64        66.67963
881.04        67.14854
881.44         66.9621
881.84        66.01911
882.24        64.56964
882.65        63.12857
883.05         62.4678
883.45        62.77382
883.85        63.81217
884.25        65.15694
884.65        66.08083
885.05        66.33952
885.45        66.12422
885.85         65.7057
886.25        65.50924
886.65        65.64527
887.05        65.95721
887.45         66.2598
887.85        66.26985
888.25        65.92834
888.65        65.38098
889.04        64.80202
889.44        64.46385
889.84        64.41923
890.24        64.56017
890.64        64.80173
891.04        65.00951
891.44        65.12148
891.84        65.19622
892.24        65.18399
892.64        64.99429
893.04        64.65972
893.44        64.23887
893.83        63.92096
894.23        63.97275
894.63        64.46653
895.03        65.27431
895.43        66.25584
895.83        67.18054
896.23        67.90834
896.63        68.44493
897.02        68.66338
897.42        68.41068
897.82        67.71542
898.22        66.70093
898.62        65.58449
899.01        64.68295
899.41        64.11992
899.81        63.81422
900.21        63.78893
900.61        64.05394
901.00        64.54571
901.40        65.23215
901.80        65.87754
902.20        66.09727
902.59        65.83023
902.99        65.18214
903.39        64.39348
903.79        63.88522
904.18        63.77199
904.58        63.91582
904.98        64.25616
905.38        64.70113
905.77        65.18642
906.17        65.77644
906.57        66.25807
906.96        66.26875
907.36        65.75185
907.76        64.81773
908.15        63.90295
908.55        63.69649
908.95        64.34628
909.34        65.65434
909.74        67.10705
910.14        67.91971
910.53        67.83731
910.93        67.12087
911.33        66.08934
911.72        65.23101
912.12        64.77662
912.52        64.58492
912.91        64.55867
913.31        64.57682
913.70        64.59483
914.10        64.63979
914.49         64.8258
914.89        65.23262
915.29        65.86472
915.68        66.65855
916.08        67.31906
916.47        67.45151
916.87        67.00013
917.26        66.08307
917.66        65.10624
918.05        64.53676
918.45         64.4929
918.84          64.895
919.24        65.45068
919.64        65.76998
920.03         65.7412
920.42        65.44749
920.82        65.15938
921.21        65.23958
921.61        65.74241
922.00         66.5711
922.40        67.39037
922.79        67.76713
923.19         67.5499
923.58        66.91739
923.98         66.1739
924.37        65.69855
924.77        65.60449
925.16        65.73652
925.55         65.9736
925.95        66.08611
926.34        66.01321
926.74        65.83405
927.13        65.55132
927.52        65.09122
927.92        64.52993
928.31        63.87912
928.70        63.33304
929.10        63.16933
929.49        63.41183
929.89        63.91885
930.28         64.5996
930.67        65.17094
931.07        65.49294
931.46        65.71886
931.85         65.7058
932.24        65.28757
932.64        64.54478
933.03        63.51236
933.42        62.65019
933.82         62.6276
934.21        63.53889
934.60        65.22517
934.99        67.12059
935.39        68.17592
935.78        68.12163
936.17        67.17017
936.56        65.84386
936.96         64.9884
937.35         64.8437
937.74         65.1489
938.13         65.5873
938.53        65.68398
938.92        65.31375
939.31        64.69537
939.70        64.01405
940.09        63.48615
940.49        63.15454
940.88        62.96174
941.27        62.90468
941.66        62.98804
942.05        63.19926
942.44        63.56366
942.84        64.00881
943.23        64.39236
943.62        64.68042
944.01        64.85789
944.40         65.0153
944.79        65.33389
945.18         65.8188
945.57        66.37863
945.97        66.77528
946.36         66.7232
946.75        66.13351
947.14        65.18841
947.53        64.11878
947.92         63.2284
948.31         62.6227
948.70        62.23512
949.09        62.08955
949.48        62.21443
949.87        62.58234
950.26        63.18325
950.65        63.86635
951.04        64.37148
951.43        64.61173
951.82        64.61313
952.21        64.47755
952.60        64.40398
952.99        64.46118
953.38        64.60712
953.77        64.77614
954.16        64.87206
954.55        64.85531
954.94        64.72287
955.33        64.57133
955.72        64.55435
956.11        64.70048
956.50        64.99895
956.89        65.17764
957.28        64.78842
957.66         63.7843
958.05         62.3821
958.44        61.08556
958.83          60.613
959.22        61.06916
959.61        62.22887
960.00        63.59834
960.39        64.25191
960.78        63.90097
961.16        62.84672
961.55        61.55572
961.94        60.62148
962.33        60.22665
962.72        60.21462
963.11        60.47838
963.49        60.85222
963.88        61.16065
964.27        61.44655
964.66        61.78312
965.04         62.3042
965.43        62.96749
965.82        63.75507
966.21        64.31588
966.60        64.04406
966.98        62.84368
967.37        61.03931
967.76        59.30767
968.15        58.47989
968.53         58.6998
968.92        59.78833
969.31        61.23424
969.69        61.99456
970.08        61.65194
970.47        60.53161
970.86        59.34457
971.24        59.10467
971.63        60.02307
972.02        61.83699
972.40        63.89603
972.79        64.66946
973.17        63.79002
973.56        61.81221
973.95        59.71172
974.33        58.75232
974.72        59.18113
975.11        60.58735
975.49        62.42903
975.88        63.58217
976.26        63.67109
976.65        63.02019
977.04        61.98581
977.42        61.08396
977.81        60.47108
978.19         59.9301
978.58        59.61852
978.96        59.76973
979.35        60.35997
979.74        61.41748
980.12        62.55934
980.51        62.83269
980.89        62.17142
981.28        60.83289
981.66        59.49217
982.05        59.11492
982.43        59.90464
982.82        61.54198
983.20        63.66906
983.59        65.47392
983.97        66.65826
984.35        67.39639
984.74        67.57536
985.12        67.29543
985.51        66.61474
985.89        65.53336
986.28        64.49252
986.66        64.10448
987.04        64.53794
987.43        65.62604
987.81        66.98346
988.20         67.6754
988.58        67.42453
988.96        66.45468
989.35        65.13969
989.73        64.00938
990.12         63.2232
990.50        62.67678
990.88        62.28032
991.27        61.92968
991.65        61.60118
992.03        61.34192
992.42        61.31182
992.80        61.67865
993.18        62.47074
993.56        63.64007
993.95        64.74017
994.33        65.15105
994.71        64.60954
995.10        63.41572
995.48        62.13249
995.86        61.69146
996.24        62.27958
996.63        63.48695
997.01        65.08254
997.39        66.19214
997.77        66.41745
998.15        66.16602
998.54        65.35966
998.92        63.74344
999.30        61.58123
999.68        59.01609
1000.06        57.03795
1000.45        57.07711
1000.83        59.43864
1001.21        63.83292
1001.59        69.13576
1001.97        72.49772
1002.35        72.71129
1002.73        70.61432
1003.12        67.54115
1003.50        65.15898
1003.88        64.04292
1004.26        63.55559
1004.64        63.82469
1005.02        65.07431
1005.40        67.12301
1005.78        70.05289
1006.16        72.65984
1006.54        72.98736
1006.92        70.83752
1007.30        66.82283
1007.69        62.64831
1008.07         60.6294
1008.45        61.44849
1008.83        64.62413
1009.21        68.94644
1009.59        71.42358
1009.97        70.68624
1010.35        67.65316
1010.73        63.81655
1011.11        61.26586
1011.49        60.49706
1011.86        60.77951
1012.24        61.47582
1012.62        61.75399
1013.00        61.39898
1013.38        60.70563
1013.76        59.95692
1014.14        59.73305
1014.52        60.25497
1014.90        61.18077
1015.28        62.14771
1015.66        62.75645
1016.04        62.89507
1016.41        62.72308
1016.79        62.19118
1017.17        61.29298
1017.55        60.14611
1017.93        58.81509
1018.31        57.61821
1018.69         56.9505
1019.06        56.90031
1019.44        57.49157
1019.82        58.43992
1020.20        59.02488
1020.58        58.89783
1020.95        58.06945
1021.33        57.27089
1021.71        57.31741
1022.09        58.37232
1022.46        60.54527
1022.84        62.80554
1023.22        62.77288
1023.60        59.80732
1023.97         54.6777
1024.35        50.24381
1024.73        49.73594
