SpectraSmart Spectrum 2.9.0.0
--------- Device Information -----------
Spectrum Name :  反射率_0
Saving Time :  2024/04/27 00:26:37
Spectro-Module Model Name : SE2030-DUVN
Spectro-Module Serial Number : OS361AC55029948
Wavelength Start : 200
Wavelength End : 1025
Wavelength Unit : Wavelength(nm)
Spectrum Unit : Reflectance(%)
-----------Spectrum Setting ------------
Integration Time : 20ms
Average : 10
Boxcar : 0
Background removal :  enabled
linearity correction :  enabled
SC :  disabled
Intensity correction :  disabled
DWT denoise :  enabled
savitzky-golay :  disabled
FFT :  disabled
Running average :  disabled
Kalman :  disabled
High pass :  disabled
---------------BEGIN--------------------
Wavelength(nm)             Reflectance(%)
200.29               0
200.75        36.73328
201.21        31.77052
201.67        26.82302
202.13        23.94446
202.58        23.16766
203.04        24.06981
203.50        26.43118
203.96        29.21355
204.42        31.52627
204.88        33.49556
205.34        35.36989
205.80         37.7608
206.26        40.29099
206.72        41.82225
207.18        42.13027
207.64        41.19033
208.10        38.94338
208.55        35.56397
209.01        29.86906
209.47        23.06241
209.93        18.88838
210.39        17.92482
210.85        19.01525
211.31        21.54329
211.77         26.3968
212.23        37.17867
212.69        65.56727
213.14        122.0782
213.60        135.2241
214.06        106.2323
214.52        81.87639
214.98        68.56385
215.44         60.2782
215.90        52.88211
216.36        46.24757
216.81        40.92198
217.27        37.39651
217.73        36.07118
218.19        38.06126
218.65        43.69804
219.11        50.27822
219.57        55.26813
220.02        59.34177
220.48        65.65427
220.94        75.71142
221.40        91.37147
221.86        112.7719
222.32        127.5599
222.77        123.9692
223.23        110.4445
223.69        96.44704
224.15        87.41036
224.61        82.76939
225.06        80.08048
225.52        79.36624
225.98        80.31667
226.44        82.56438
226.90        86.16937
227.36         89.9591
227.81        91.66437
228.27        91.06039
228.73        88.78107
229.19        86.49043
229.65        86.20523
230.10        87.97967
230.56        91.17471
231.02        94.31572
231.48        95.10706
231.93        93.20034
232.39        90.05339
232.85        86.96463
233.31        85.65616
233.77        86.28745
234.22        88.11649
234.68        90.48187
235.14        92.47884
235.60        93.71039
236.05        94.57442
236.51        94.61486
236.97        93.19212
237.43        90.28495
237.88          86.142
238.34        81.77724
238.80        79.16093
239.26        78.93716
239.71        81.47042
240.17         86.0479
240.63        90.66518
241.08        93.94383
241.54        95.41123
242.00        96.11896
242.46        98.74573
242.91        105.4981
243.37        116.2546
243.83        131.4627
244.28        145.0173
244.74        146.0598
245.20        134.5896
245.66        118.4177
246.11        103.7365
246.57        91.40145
247.03        79.38841
247.48        68.34796
247.94        61.41165
248.40        59.30681
248.85        59.96392
249.31        61.08796
249.77        60.18261
250.22        56.76709
250.68        50.97071
251.14        43.70187
251.59        39.54955
252.05        41.75851
252.51        48.36459
252.96        55.70577
253.42        60.84785
253.88        63.61055
254.33         64.6212
254.79        66.03574
255.25        69.47958
255.70         74.8241
256.16        81.55148
256.62        86.93563
257.07        86.91344
257.53        83.00689
257.99        77.85858
258.44        73.71641
258.90        72.86232
259.35        74.17188
259.81        76.91117
260.27        79.52194
260.72        80.14175
261.18        79.04858
261.63        76.78983
262.09        74.81623
262.55         74.0148
263.00        74.20734
263.46        75.10172
263.91        75.72697
264.37        75.30157
264.83        73.76987
265.28        71.55861
265.74        69.56387
266.19         68.4802
266.65        68.47517
267.11        69.11042
267.56        69.91422
268.02        70.16384
268.47        69.64265
268.93        68.65211
269.38        67.37238
269.84        66.15718
270.30         65.1122
270.75        64.10162
271.21        63.22052
271.66        62.54471
272.12        62.06126
272.57        61.70819
273.03        61.31155
273.48        60.54243
273.94        59.42424
274.39        58.04023
274.85        56.63777
275.31        55.36072
275.76        54.24088
276.22        53.29743
276.67        52.49601
277.13        51.94194
277.58        51.52974
278.04        51.24661
278.49        50.90904
278.95         50.4131
279.40        49.65993
279.86        48.80206
280.31        47.79641
280.77        46.75316
281.22        45.66636
281.68        44.62442
282.13        43.68573
282.59        43.06177
283.04        42.70502
283.50        42.58117
283.95        42.51934
284.41        42.28054
284.86         41.7994
285.32        41.18455
285.77        40.53205
286.22        40.06541
286.68        39.81822
287.13        39.66898
287.59        39.54086
288.04        39.25595
288.50        38.81791
288.95        38.26565
289.41        37.69267
289.86        37.13941
290.32        36.67305
290.77         36.2438
291.22        35.89168
291.68        35.65741
292.13         35.5225
292.59        35.50257
293.04        35.53477
293.50        35.54258
293.95        35.50594
294.40        35.46003
294.86        35.47676
295.31        35.65773
295.77        36.03053
296.22        36.54016
296.68         37.1328
297.13        37.70491
297.58        38.22759
298.04        38.72337
298.49        39.19467
298.95         39.6714
299.40        40.14691
299.85        40.60294
300.31        41.03779
300.76        41.43843
301.21        41.80556
301.67         42.1601
302.12         42.4698
302.58        42.75286
303.03        42.98387
303.48        43.18901
303.94        43.39666
304.39        43.60201
304.84        43.82308
305.30        44.06819
305.75        44.30246
306.20        44.53714
306.66        44.77842
307.11        45.00229
307.57        45.21165
308.02        45.34984
308.47        45.42438
308.93        45.45539
309.38        45.45701
309.83        45.51308
310.29        45.63537
310.74        45.79136
311.19        45.92406
311.65        45.93402
312.10        45.79427
312.55        45.53896
313.00        45.24292
313.46        45.01484
313.91        44.86613
314.36        44.77949
314.82        44.69415
315.27        44.52644
315.72        44.25493
316.18        43.92253
316.63        43.58203
317.08        43.33207
317.53        43.18936
317.99        43.11212
318.44        43.04653
318.89        42.89281
319.35        42.62693
319.80        42.28525
320.25        41.91256
320.70        41.58054
321.16        41.30991
321.61        41.09072
322.06        40.90427
322.51        40.72503
322.97        40.53506
323.42        40.34555
323.87        40.16082
324.32        39.99396
324.78        39.82779
325.23        39.67443
325.68        39.48094
326.13        39.17908
326.59        38.76868
327.04        38.29852
327.49        37.84027
327.94        37.50852
328.39        37.32318
328.85        37.22723
329.30        37.20919
329.75         37.1685
330.20        37.06936
330.66        36.93528
331.11        36.76609
331.56        36.53303
332.01        36.24099
332.46         35.8819
332.92        35.51115
333.37        35.29157
333.82        35.23833
334.27        35.32352
334.72        35.44209
335.17          35.408
335.63        35.17576
336.08        34.82596
336.53        34.45711
336.98        34.24867
337.43        34.24798
337.88        34.37879
338.34        34.58242
338.79        34.79714
339.24        34.96159
339.69        35.10195
340.14        35.14012
340.59        34.95284
341.05        34.55265
341.50        33.98208
341.95         33.4162
342.40        33.12584
342.85        33.16705
343.30        33.46189
343.75         33.8587
344.20        34.09853
344.66         34.1073
345.11        33.95971
345.56        33.74011
346.01        33.58759
346.46        33.54688
346.91        33.56293
347.36        33.60777
347.81        33.64974
348.26        33.66951
348.72        33.68301
349.17        33.67697
349.62        33.63586
350.07        33.56224
350.52        33.47027
350.97        33.35688
351.42        33.22375
351.87        33.08049
352.32        32.92313
352.77        32.80729
353.22        32.81194
353.67        32.93832
354.13        33.16333
354.58        33.37292
355.03        33.37642
355.48        33.13799
355.93        32.71984
356.38        32.27386
356.83        32.03103
357.28        32.03466
357.73        32.20583
358.18        32.41349
358.63        32.44234
359.08        32.23507
359.53        31.86958
359.98        31.43282
360.43         31.0498
360.88        30.75708
361.33        30.50961
361.78        30.28834
362.23        30.06942
362.68        29.84486
363.13        29.63855
363.58        29.43724
364.03        29.20873
364.48        28.95107
364.93        28.66914
365.38        28.40409
365.83        28.22939
366.28        28.15619
366.73        28.15512
367.18        28.17123
367.63        28.11815
368.08        27.97241
368.53        27.76106
368.98        27.51353
369.43        27.27701
369.88         27.0711
370.33        26.88354
370.78        26.71659
371.23        26.57624
371.68        26.46098
372.13        26.37016
372.58        26.29369
373.03        26.21119
373.48        26.11142
373.93        25.99215
374.38        25.84583
374.83        25.66626
375.28        25.45641
375.72        25.21658
376.17         24.9773
376.62        24.75082
377.07        24.54822
377.52        24.37609
377.97        24.23498
378.42        24.12651
378.87         24.0476
379.32        23.98459
379.77        23.94824
380.22        23.95519
380.67        23.99613
381.11        24.06945
381.56         24.0948
382.01        23.96707
382.46        23.68207
382.91        23.29498
383.36        22.91742
383.81        22.70065
384.26        22.66829
384.71        22.76999
385.15        22.93206
385.60           23.03
386.05        23.01791
386.50        22.92877
386.95        22.78697
387.40        22.63313
387.85        22.48757
388.29        22.32737
388.74        22.18299
389.19         22.0439
389.64          21.911
390.09        21.78959
390.54        21.69119
390.98        21.62541
391.43        21.60497
391.88        21.61752
392.33        21.64196
392.78        21.64992
393.23        21.63258
393.67        21.58298
394.12        21.53324
394.57        21.48967
395.02         21.4535
395.47        21.41447
395.91        21.36543
396.36        21.28456
396.81        21.18498
397.26        21.08347
397.71        20.98876
398.15        20.92322
398.60        20.91473
399.05        20.86683
399.50         20.8026
399.95        20.91042
400.39        21.12044
400.84        21.05321
401.29        20.73753
401.74        20.55203
402.18        20.52641
402.63        20.44141
403.08        20.31353
403.53        20.25956
403.97        20.28221
404.42        20.35291
404.87        20.42597
405.32        20.42466
405.76        20.32952
406.21        20.17175
406.66        20.00323
407.11        19.90824
407.55        19.91045
408.00        19.97618
408.45        20.05528
408.90        20.04941
409.34        19.93483
409.79        19.75439
410.24        19.56775
410.68        19.45006
411.13        19.42293
411.58        19.45729
412.03        19.51961
412.47        19.55504
412.92        19.53588
413.37        19.48573
413.81        19.41745
414.26        19.36485
414.71        19.33004
415.15        19.30946
415.60        19.28862
416.05         19.2653
416.49        19.24033
416.94        19.21267
417.39        19.19599
417.83        19.20644
418.28        19.24383
418.73        19.30129
419.17        19.35468
419.62        19.36611
420.07        19.33034
420.51        19.25628
420.96        19.17845
421.41         19.1463
421.85        19.16106
422.30        19.19565
422.74        19.21711
423.19        19.26589
423.64        19.30143
424.08        19.21469
424.53        19.02748
424.98        18.92636
425.42        18.94393
425.87        18.94481
426.31        18.91178
426.76        18.95392
427.21        19.00887
427.65        18.82503
428.10        18.50648
428.54        18.40489
428.99        18.55205
429.44        18.82801
429.88        19.10776
430.33        19.13257
430.77        18.93177
431.22         18.8798
431.66          18.995
432.11        18.99844
432.56        18.90421
433.00        18.94262
433.45        19.02925
433.89        18.89144
434.34        18.65945
434.78         18.2512
435.23        18.68081
435.67        18.71587
436.12         18.6135
436.57        18.43197
437.01        18.24094
437.46        18.16824
437.90        18.22627
438.35        18.32316
438.79        18.40264
439.24        18.44411
439.68        18.43364
440.13        18.38101
440.57        18.31211
441.02        18.29056
441.46        18.32778
441.91        18.35354
442.35        18.35989
442.80        18.51262
443.24        18.73207
443.69        18.73152
444.13        18.53516
444.58        18.45253
445.02        18.49681
445.47         18.4994
445.91        18.45853
446.36        18.45651
446.80        18.48998
447.24        18.53835
447.69        18.59018
448.13        18.61771
448.58         18.6179
449.02        18.59587
449.47        18.56179
449.91        18.52245
450.36        18.48724
450.80        18.44968
451.25        18.41721
451.69        18.38868
452.13          18.367
452.58        18.35244
453.02        18.33949
453.47        18.32072
453.91        18.29514
454.36        18.26774
454.80        18.23988
455.24        18.21322
455.69        18.19325
456.13        18.16437
456.58        18.14589
457.02        18.13891
457.46        18.14981
457.91        18.17602
458.35         18.1839
458.79        18.12662
459.24        18.01614
459.68        17.86068
460.13        17.72421
460.57        17.65604
461.01        17.68146
461.46        17.77011
461.90        17.89717
462.34        18.00489
462.79        18.06573
463.23        18.09735
463.68        18.09789
464.12        18.07753
464.56        18.03885
465.01        18.00021
465.45        17.94162
465.89        17.88772
466.34        17.84246
466.78        17.79777
467.22        17.77034
467.67        17.77044
468.11        17.80832
468.55        17.87231
468.99        17.93483
469.44        17.94884
469.88        17.90675
470.32        17.82215
470.77        17.72939
471.21        17.68784
471.65        17.71009
472.10        17.77976
472.54        17.86573
472.98        17.92521
473.42        17.94568
473.87        17.94746
474.31        17.93357
474.75        17.92537
475.20          17.934
475.64        17.94447
476.08        17.96318
476.52        17.99212
476.97        18.02979
477.41        18.08453
477.85        18.15121
478.29        18.19299
478.74        18.21963
479.18        18.28099
479.62        18.36296
480.06          18.414
480.50        18.43321
480.95        18.42505
481.39         18.3887
481.83        18.49517
482.27        18.48207
482.72        18.58334
483.16        18.70498
483.60        18.78334
484.04        18.79912
484.48        18.84208
484.93        19.00191
485.37        18.94123
485.81        19.28105
486.25        19.58571
486.69        19.70152
487.14        19.61189
487.58        19.82682
488.02        19.74547
488.46        19.53424
488.90         19.8978
489.34        19.65874
489.79         19.7821
490.23        19.87623
490.67        19.99453
491.11        20.09944
491.55        20.08462
491.99        19.99962
492.43        20.00966
492.88        20.13792
493.32        20.28753
493.76        20.43842
494.20        20.61593
494.64        20.81609
495.08        20.98715
495.52        21.11823
495.96        21.33058
496.41        21.57495
496.85        21.53266
497.29        21.27508
497.73        21.40529
498.17        21.62173
498.61        21.78551
499.05        21.78152
499.49        21.82216
499.93        21.86686
500.37         22.0338
500.82        22.27094
501.26        22.42927
501.70        22.49008
502.14        22.54256
502.58        22.61798
503.02        22.72165
503.46        22.85967
503.90        23.02788
504.34        23.18888
504.78        23.28055
505.22        23.29032
505.66        23.23968
506.10        23.16943
506.54        23.14479
506.98        23.18362
507.42         23.2659
507.86         23.3701
508.30        23.45955
508.74         23.5214
509.18        23.56974
509.62        23.60579
510.06        23.63103
510.50        23.64857
510.94          23.653
511.38        23.65997
511.82        23.69649
512.26        23.76655
512.70        23.86578
513.14        23.96505
513.58        24.01543
514.02          24.008
514.46        23.95682
514.90        23.90103
515.34        23.90467
515.78        23.97988
516.22        24.10316
516.66        24.23269
517.10        24.30181
517.54        24.29361
517.98        24.23166
518.42         24.1438
518.86        24.07409
519.30        24.03846
519.74        24.02327
520.18        24.02386
520.62        24.03304
521.06        24.04598
521.50        24.06725
521.93        24.08951
522.37        24.09039
522.81        24.06777
523.25        24.02166
523.69        23.96458
524.13        23.91814
524.57         23.8863
525.01        23.86408
525.45        23.83503
525.89        23.77235
526.32        23.67154
526.76          23.551
527.20        23.43456
527.64        23.35997
528.08          23.335
528.52        23.34614
528.96        23.37413
529.40        23.38861
529.83        23.37949
530.27        23.35735
530.71        23.32484
531.15        23.29014
531.59        23.25628
532.03         23.2154
532.46        23.17004
532.90        23.14189
533.34        23.12899
533.78        23.11736
534.22        23.08961
534.66        23.04601
535.09        22.96847
535.53        22.81428
535.97        22.62818
536.41        22.53873
536.85        22.56267
537.28         22.6441
537.72         22.7498
538.16        22.84077
538.60        22.89984
539.04        22.93994
539.47         22.9692
539.91        23.01573
540.35        23.08251
540.79        23.15951
541.22        23.24559
541.66        23.34984
542.10        23.46605
542.54        23.59084
542.97        23.70981
543.41        23.80891
543.85        23.88396
544.29        23.94734
544.72        24.00161
545.16        24.06756
545.60        24.14821
546.04        24.24066
546.47        24.36376
546.91        24.54203
547.35        24.76919
547.79        25.03335
548.22        25.28774
548.66        25.45619
549.10        25.55674
549.53        25.60076
549.97        25.63061
550.41        25.65925
550.84        25.73243
551.28        25.90032
551.72        26.11872
552.15        26.33674
552.59        26.56953
553.03        26.44455
553.46        26.76079
553.90        26.83051
554.34        26.89077
554.77        26.93748
555.21        26.99939
555.65        27.10154
556.08        27.23654
556.52        27.38383
556.96        27.50997
557.39          27.637
557.83        27.73638
558.27         27.6636
558.70        27.48246
559.14        27.45979
559.57        27.59848
560.01        27.74099
560.45        27.85351
560.88        27.96581
561.32        28.07757
561.75        28.16938
562.19        28.25363
562.63        28.29772
563.06        28.32366
563.50        28.43488
563.93        28.58138
564.37        28.66855
564.80        28.70185
565.24           28.68
565.68        28.57366
566.11        28.92862
566.55        28.71704
566.98        28.79702
567.42        28.90576
567.85        29.08834
568.29        29.34045
568.72         29.6585
569.16        30.04681
569.60        30.27193
570.03        30.41614
570.47        30.68651
570.90         30.9307
571.34        30.67331
571.77        31.04817
572.21        31.13068
572.64        31.24589
573.08        31.31799
573.51        31.39967
573.95        31.56668
574.38        31.81829
574.82        32.04286
575.25        31.71009
575.69        31.83813
576.12        31.89765
576.56        31.89978
576.99        31.87868
577.42        32.12292
577.86          32.089
578.29        32.43647
578.73        32.35569
579.16        32.22152
579.60        31.83538
580.03        31.82221
580.47        31.80346
580.90        31.92366
581.33        31.94337
581.77        32.10742
582.20        31.85218
582.64        31.94133
583.07         31.5802
583.51        31.26413
583.94        30.93394
584.37        30.98989
584.81        31.09105
585.24         31.0583
585.68        30.86951
586.11        30.52062
586.54        30.67038
586.98        30.53027
587.41        30.29268
587.85        30.26188
588.28        30.48273
588.71        30.05871
589.15        30.11087
589.58        30.21476
590.01        29.93293
590.45        29.98223
590.88        30.09286
591.31        30.04855
591.75        29.89894
592.18        29.80296
592.61          29.781
593.05         30.2658
593.48        30.62017
593.91        30.35406
594.35        30.33255
594.78        30.20192
595.21        30.30235
595.65        30.56421
596.08        30.99071
596.51        31.13692
596.94        30.91055
597.38        30.96964
597.81        31.31911
598.24         31.5826
598.68        31.73264
599.11        31.95168
599.54        32.77438
599.97        32.45694
600.41        33.09294
600.84        33.07312
601.27        33.45429
601.70          33.678
602.14        33.93272
602.57        34.21237
603.00        34.57549
603.43        34.72099
603.87        35.47344
604.30        35.80961
604.73        36.04893
605.16        36.10847
605.60        36.56704
606.03        36.75397
606.46        36.80488
606.89        37.35179
607.32        38.06858
607.76        38.11357
608.19        38.58797
608.62        38.70841
609.05        38.94559
609.48        39.12749
609.92        39.77365
610.35        40.21425
610.78        39.90474
611.21        40.47162
611.64        40.60374
612.07         40.9907
612.50        41.07291
612.94        41.27594
613.37        41.53804
613.80        41.66832
614.23        41.60608
614.66        41.86672
615.09        42.37358
615.52        42.67286
615.96        42.73716
616.39        42.92269
616.82        43.24971
617.25        43.27131
617.68        43.45692
618.11        43.58546
618.54         43.8028
618.97        44.08178
619.40        44.35229
619.84        44.55495
620.27        44.32291
620.70        44.44191
621.13        44.75048
621.56        44.74021
621.99        44.40354
622.42        44.30276
622.85        44.53348
623.28        44.32434
623.71        44.28563
624.14        44.97743
624.57        44.89559
625.00        45.08988
625.43        45.03773
625.86        44.88377
626.29        44.69832
626.72        44.38949
627.15        44.41747
627.58        44.43213
628.01        44.47304
628.44        44.29703
628.87        43.92359
629.30        43.61538
629.73        43.41368
630.16        43.19806
630.59        42.97809
631.02        42.84057
631.45        42.75153
631.88        42.59976
632.31         42.3613
632.74        42.06742
633.17        41.72432
633.60        41.34286
634.03        40.93668
634.46        40.50163
634.89        40.05885
635.32        39.65411
635.75        39.30085
636.18        38.95007
636.61        38.60788
637.04        38.30167
637.47         38.0255
637.89        37.76585
638.32         37.4922
638.75        37.19553
639.18        36.87613
639.61        36.54015
640.04        36.21644
640.47        35.94735
640.90        35.74204
641.33        35.59397
641.76        35.47511
642.18        35.34267
642.61         35.1776
643.04        34.99743
643.47        34.84165
643.90        34.77309
644.33         34.8014
644.76        34.90467
645.18        35.03188
645.61        35.09136
646.04        35.06933
646.47        35.00198
646.90         34.9449
647.33        34.97817
647.75         35.1133
648.18        35.36313
648.61        35.71637
649.04        36.01099
649.47        36.19627
649.89        36.87224
650.32         37.0445
650.75        37.38489
651.18        37.62712
651.61        37.95185
652.03        38.36744
652.46        38.75246
652.89        39.12569
653.32        39.49829
653.74        39.96862
654.17         40.3484
654.60        40.85166
655.03        41.17703
655.46        41.25285
655.88        41.41923
656.31        44.30413
656.74        47.58733
657.16        47.01875
657.59        46.31058
658.02        44.22283
658.45        44.84913
658.87        44.33533
659.30        44.85117
659.73        44.64137
660.15        45.46556
660.58        45.05421
661.01        45.31299
661.44        45.64261
661.86        45.65458
662.29        45.40057
662.72        45.94717
663.14        46.36629
663.57        46.61995
664.00        46.51471
664.42        46.72538
664.85        47.27417
665.27        47.80563
665.70        48.18631
666.13        48.40617
666.55        48.44397
666.98        48.26152
667.41        47.96843
667.83        48.05404
668.26        48.06697
668.69        48.36129
669.11        48.72635
669.54         49.0429
669.96        49.26889
670.39        49.47449
670.82        49.66563
671.24        49.74026
671.67        49.74395
672.09        49.85402
672.52        50.06721
672.94        50.18998
673.37        50.22274
673.80        50.27648
674.22        50.36786
674.65        50.43714
675.07         50.4986
675.50         50.5627
675.92         50.6288
676.35        50.68612
676.77        50.73726
677.20        50.77832
677.62        50.83655
678.05        50.95581
678.47        51.13702
678.90        51.36832
679.32        51.59442
679.75        51.73849
680.17        51.78381
680.60        51.75766
681.02        51.72025
681.45         51.7752
681.87        51.95878
682.30        52.19729
682.72         52.4372
683.15        52.69448
683.57        52.93404
684.00        52.88385
684.42        52.58789
684.85        52.93523
685.27        52.87249
685.70        53.13734
686.12        53.34311
686.54        53.47006
686.97        53.48808
687.39         53.4346
687.82        53.35292
688.24        53.30298
688.66        53.31053
689.09         53.3398
689.51        53.39373
689.94        53.50784
690.36        53.65756
690.78        53.70164
691.21        53.69267
691.63        53.82182
692.06         54.0645
692.48        54.29407
692.90         54.4812
693.33        54.33032
693.75        54.46262
694.17        54.31078
694.60        54.15331
695.02        54.15451
695.44        54.33951
695.87         54.6684
696.29        55.03722
696.71        55.14649
697.14        55.02203
697.56        54.99965
697.98         55.1229
698.41        55.20369
698.83        55.24264
699.25        55.40019
699.68        55.59747
700.10        55.67714
700.52        55.60149
700.94        55.43522
701.37        55.27166
701.79        55.26521
702.21        55.44194
702.64        55.73534
703.06        56.06811
703.48        56.29861
703.90         56.3834
704.33         56.3702
704.75        56.29016
705.17        56.18731
705.59        56.09507
706.01        56.00055
706.44        55.95007
706.86        56.04256
707.28        56.27754
707.70         56.6055
708.12        56.95259
708.55        57.24204
708.97        57.41884
709.39        57.38731
709.81        57.21874
710.23        57.16727
710.66        57.27232
711.08        57.42803
711.50        57.55573
711.92        57.58768
712.34        57.50904
712.76         57.3638
713.19        57.19867
713.61        57.11918
714.03        57.14571
714.45        57.25021
714.87        57.42809
715.29        57.67673
715.71        57.97304
716.13        58.29741
716.56        58.57964
716.98        58.77811
717.40        58.83963
717.82        58.78775
718.24         58.6314
718.66         58.3925
719.08         58.1116
719.50        57.81104
719.92        57.57656
720.34        57.53144
720.76         57.6919
721.19        58.00201
721.61        58.39881
722.03        58.72526
722.45         58.9181
722.87        59.00391
723.29        58.98505
723.71        58.87797
724.13         58.7114
724.55        58.49207
724.97        58.27732
725.39        58.17197
725.81        58.20478
726.23        58.33341
726.65        58.52268
727.07        58.83686
727.49        59.03671
727.91        59.30197
728.33        59.54563
728.75        59.73754
729.17        59.86652
729.59        59.92334
730.01        59.92878
730.43        59.97726
730.85        60.08917
731.27        60.14078
731.69        60.07668
732.10         60.3226
732.52         60.0475
732.94        59.95177
733.36        59.83385
733.78        59.66656
734.20         59.4533
734.62        59.42981
735.04        59.68974
735.46        59.24415
735.88        59.85217
736.30        60.07809
736.72        60.39331
737.13        60.65976
737.55        60.80051
737.97        60.93207
738.39        61.00945
738.81        60.78972
739.23        60.39336
739.65        60.38777
740.06        60.69994
740.48        60.80824
740.90        60.66967
741.32        60.59887
741.74        60.65477
742.16        60.77166
742.57        60.95601
742.99        61.20177
743.41        61.42661
743.83        61.48882
744.25        61.36733
744.67        61.09907
745.08        60.80743
745.50        60.67381
745.92        60.74907
746.34        60.97308
746.75        61.24371
747.17        61.35392
747.59        61.25798
748.01        61.10531
748.42        60.96086
748.84        60.73566
749.26        60.56062
749.68        60.80944
750.09        61.35179
750.51        61.65598
750.93        61.62646
751.35        61.43933
751.76        61.18907
752.18        61.02105
752.60        60.95041
753.01        60.97663
753.43        61.07361
753.85        61.02032
754.27        60.76164
754.68        61.30677
755.10        60.98196
755.52        61.17557
755.93        61.37177
756.35        61.56146
756.77         61.7557
757.18        61.95955
757.60        62.18829
758.02        62.54472
758.43           62.86
758.85        62.59637
759.26        62.26615
759.68        61.55759
760.10        61.60822
760.51        61.93105
760.93        62.59776
761.34        62.58251
761.76        62.21982
762.18        62.28739
762.59         62.8444
763.01        62.95263
763.42        62.64824
763.84        62.49696
764.26        62.53279
764.67        62.48402
765.09         62.3717
765.50        62.08284
765.92         61.7599
766.33        61.79428
766.75        62.06434
767.16        62.15905
767.58        61.98589
768.00        61.68578
768.41        61.44092
768.83        61.72248
769.24        62.37575
769.66        62.63544
770.07        62.47036
770.49         62.2643
770.90        62.18714
771.32        62.59184
771.73        63.31428
772.15        63.54288
772.56        63.22963
772.97         62.8095
773.39        62.47429
773.80        62.37551
774.22        62.53688
774.63        62.88819
775.05        63.23744
775.46        63.41017
775.88        63.31385
776.29         63.0038
776.70        62.62507
777.12        62.45864
777.53        62.57782
777.95        62.85339
778.36        63.18673
778.77        63.36776
779.19        63.35027
779.60        63.26435
780.02        63.12891
780.43         62.9464
780.84        62.82848
781.26        62.68768
781.67        62.60415
782.09        63.15947
782.50        64.08055
782.91        63.79496
783.33        62.99987
783.74        62.69502
784.15        63.12434
784.57        63.45737
784.98        63.61117
785.39        63.76831
785.81         63.9091
786.22        64.06855
786.63         64.2294
787.04        64.29755
787.46        64.28144
787.87         64.2065
788.28        64.13528
788.70        64.10152
789.11        64.09307
789.52        64.20544
789.93        64.35205
790.35        64.20284
790.76        63.82612
791.17        63.65334
791.58        63.73266
792.00        63.72921
792.41        63.65923
792.82        63.85332
793.23         64.2111
793.65        64.16698
794.06        63.81002
794.47        63.84525
794.88        64.25373
795.29        64.38761
795.71        64.18568
796.12        64.30829
796.53         64.6883
796.94        64.32417
797.35        63.48047
797.76        63.85142
798.18        65.21867
798.59         65.7632
799.00        65.32213
799.41        64.90294
799.82        64.68612
800.23        64.51335
800.64        64.44368
801.06        64.48589
801.47        64.59913
801.88        64.62556
802.29        64.52352
802.70        64.33695
803.11        64.11162
803.52        63.92543
803.93        63.82262
804.34        63.78305
804.75        63.81657
805.17        63.98543
805.58        64.32256
805.99        64.61647
806.40        64.85121
806.81        65.40662
807.22        66.05767
807.63        65.87596
808.04        65.02901
808.45        64.61739
808.86        64.75407
809.27         64.8774
809.68        64.88933
810.09        64.88851
810.50        64.84724
810.91        64.73943
811.32        64.67212
811.73        64.81277
812.14        65.17696
812.55        65.70511
812.96        66.20456
813.37        66.31945
813.78        65.97108
814.19        65.31535
814.60        64.56577
815.01        64.00405
815.42        63.70269
815.83        63.57417
816.24        63.61931
816.65        63.82721
817.05        64.16412
817.46        64.61468
817.87         65.0499
818.28        65.22488
818.69        65.09898
819.10        64.69973
819.51        64.24717
819.92        64.16764
820.33        64.56083
820.74        65.26775
821.14        66.00572
821.55        66.37536
821.96        66.24065
822.37        65.61435
822.78        64.75735
823.19        64.24329
823.60        64.22629
824.00        64.51376
824.41        64.92816
824.82         65.3058
825.23        65.54441
825.64        65.70013
826.04        65.78424
826.45        65.76933
826.86        65.68093
827.27        65.51801
827.68        65.31084
828.08        65.15632
828.49         65.0361
828.90        64.94847
829.31        64.93289
829.72        65.04021
830.12        65.28765
830.53        65.61736
830.94        65.89101
831.35        65.82788
831.75        65.39646
832.16        64.66486
832.57          63.908
832.97         63.5452
833.38        63.66935
833.79        64.12968
834.20        64.72572
834.60        65.13287
835.01        65.25797
835.42        65.24548
835.82         65.1437
836.23        64.96428
836.64         64.7795
837.04        64.53819
837.45        64.42239
837.86        64.79697
838.26          65.717
838.67         67.0372
839.08        68.32221
839.48        68.74337
839.89        68.09769
840.29        66.68321
840.70        65.13542
841.11        64.19733
841.51        64.06775
841.92        64.51756
842.33        65.31396
842.73        66.03376
843.14        66.40154
843.54        66.58569
843.95        66.66797
844.35        66.82714
844.76         67.0874
845.17        67.35961
845.57        67.53616
845.98        67.44506
846.38        67.08418
846.79        66.52248
847.19        65.93883
847.60        65.58524
848.00        65.53694
848.41        65.70349
848.81        65.96725
849.22        66.04373
849.62        65.89876
850.03        65.61199
850.43        65.30205
850.84        65.09412
851.24        65.07818
851.65        65.14384
852.05        65.36563
852.46        65.76398
852.86        66.29278
853.27        66.91445
853.67        67.40527
854.07        67.57056
854.48        67.36451
854.88        66.86919
855.29        66.20203
855.69         65.7191
856.10        65.48119
856.50        65.48373
856.90        65.60231
857.31        65.63103
857.71        65.55737
858.12        65.38792
858.52        65.22824
858.92        65.14083
859.33        65.12614
859.73         65.1803
860.13        65.21152
860.54        65.10155
860.94         64.8699
861.34         64.5589
861.75        64.24232
862.15        64.07563
862.55        64.08279
862.96        64.18195
863.36        64.39219
863.76        64.66247
864.17          64.938
864.57        65.25272
864.97        65.46281
865.38        65.35828
865.78        64.94376
866.18        64.26938
866.58        63.56941
866.99        63.26577
867.39        63.49084
867.79        64.11217
868.19        64.88097
868.60        65.39044
869.00        65.55231
869.40         65.4407
869.80        65.18818
870.21        65.05011
870.61        65.17068
871.01        65.42274
871.41        65.62112
871.81        65.51276
872.22        65.05722
872.62        64.33489
873.02        63.61414
873.42        63.33813
873.82         63.6085
874.22        64.28299
874.63        65.00938
875.03        65.24402
875.43        64.85939
875.83        64.05338
876.23        63.15791
876.63        62.68359
877.03        62.76804
877.44         63.2176
877.84        63.85839
878.24        64.41269
878.64        64.70243
879.04        64.65858
879.44        64.42418
879.84        64.32464
880.24        64.40009
880.64        64.51338
881.04        64.47851
881.44        64.04627
881.84        63.20433
882.24         62.0906
882.65        61.03575
883.05        60.52238
883.45        60.66694
883.85        61.34217
884.25         62.2631
884.65        62.92997
885.05         63.1756
885.45        63.11831
885.85        62.95333
886.25        62.99551
886.65        63.31962
887.05        63.80662
887.45        64.28439
887.85        64.48768
888.25        64.34513
888.65          63.952
889.04        63.47681
889.44        63.19792
889.84        63.16601
890.24        63.29636
890.64        63.43859
891.04        63.35015
891.44        62.98777
891.84        62.47041
892.24        61.93912
892.64        61.58301
893.04         61.4687
893.44        61.55407
893.83         61.8153
894.23        62.16291
894.63        62.56409
895.03        62.99369
895.43        63.45121
895.83        63.94501
896.23        64.42905
896.63        64.84957
897.02        65.05331
897.42        64.84399
897.82        64.22459
898.22        63.33693
898.62         62.3905
899.01        61.67885
899.41        61.31028
899.81        61.19554
900.21        61.32582
900.61        61.66938
901.00         62.1619
901.40         62.7886
901.80        63.36821
902.20        63.60837
902.59        63.46315
902.99        62.99847
903.39        62.41518
903.79        62.06334
904.18         62.0332
904.58        62.22369
904.98        62.54581
905.38        62.86296
905.77        63.12246
906.17        63.39617
906.57        63.59835
906.96        63.58282
907.36        63.32677
907.76        62.86952
908.15        62.45141
908.55        62.44469
908.95        62.91944
909.34        63.76743
909.74        64.64736
910.14        65.07268
910.53        64.89072
910.93        64.28342
911.33        63.46349
911.72         62.7528
912.12         62.3264
912.52        62.09157
912.91        62.01464
913.31        62.06065
913.70        62.20166
914.10        62.43313
914.49        62.77766
914.89        63.17356
915.29        63.59849
915.68        64.03643
916.08        64.33783
916.47        64.34766
916.87          64.055
917.26         63.4836
917.66        62.88391
918.05        62.50362
918.45        62.41309
918.84        62.61612
919.24        62.88817
919.64        62.95424
920.03        62.77124
920.42         62.4006
920.82        62.14391
921.21        62.42069
921.61        63.27267
922.00        64.56042
922.40        65.88029
922.79        66.65237
923.19        66.65951
923.58        66.12657
923.98         65.3135
924.37        64.54549
924.77        63.96672
925.16        63.44059
925.55        63.07526
925.95        63.03765
926.34        63.34324
926.74        63.95193
927.13        64.54016
927.52        64.50271
927.92        63.79192
928.31         62.5864
928.70         61.3405
929.10        60.73634
929.49        60.91343
929.89        61.61128
930.28        62.60973
930.67        63.40805
931.07        63.78518
931.46        63.96615
931.85        63.87816
932.24        63.45646
932.64        62.80118
933.03        61.88995
933.42        61.11745
933.82        61.06554
934.21        61.82171
934.60        63.28376
934.99        64.93571
935.39        65.82061
935.78        65.69729
936.17          64.719
936.56        63.45066
936.96        62.80156
937.35        62.99293
937.74        63.76569
938.13        64.56764
938.53        64.54343
938.92        63.54398
939.31        61.93125
939.70        60.29525
940.09        59.46024
940.49        59.57492
940.88        60.39024
941.27        61.52054
941.66        62.26408
942.05        62.37764
942.44        62.10851
942.84        61.66075
943.23        61.33667
943.62        61.26248
944.01        61.28904
944.40        61.47432
944.79        61.95133
945.18        62.68589
945.57          63.636
945.97        64.47585
946.36        64.73274
946.75        64.25934
947.14          63.244
947.53        62.03203
947.92        61.12307
948.31        60.66593
948.70        60.55694
949.09        60.69164
949.48        60.87372
949.87        61.03149
950.26        61.22952
950.65        61.51867
951.04        61.97124
951.43        62.56337
951.82        63.19124
952.21        63.72123
952.60        63.97397
952.99        63.92254
953.38        63.66634
953.77        63.27706
954.16        62.86892
954.55         62.4901
954.94        62.07408
955.33        61.76498
955.72        61.80352
956.11        62.20969
956.50        62.94878
956.89        63.59522
957.28        63.42274
957.66        62.31084
958.05        60.55866
958.44        58.79144
958.83        57.90483
959.22        58.07143
959.61        59.03691
960.00        60.32735
960.39        61.05338
960.78        60.91168
961.16        60.16419
961.55        59.24352
961.94        58.70609
962.33        58.71112
962.72        59.11345
963.11        59.67502
963.49        59.99428
963.88        59.87086
964.27        59.44681
964.66         59.0812
965.04        59.32057
965.43        60.20707
965.82        61.61707
966.21        62.99891
966.60        63.30048
966.98        62.24582
967.37        60.30893
967.76        58.27748
968.15        57.12852
968.53        57.05568
968.92        57.79816
969.31        58.94803
969.69        59.68579
970.08        59.63568
970.47        59.07091
970.86        58.43184
971.24         58.3392
971.63        58.92643
972.02        59.99206
972.40        61.15205
972.79        61.46069
973.17        60.74062
973.56        59.36342
973.95        57.92475
974.33        57.16623
974.72         57.2422
975.11        57.89901
975.49        58.88535
975.88        59.64815
976.26        59.99355
976.65        60.04536
977.04        59.86983
977.42        59.53773
977.81         59.0901
978.19        58.48412
978.58        57.98845
978.96        58.01243
979.35        58.60698
979.74        59.69016
980.12        60.97951
980.51        61.70982
980.89        61.77677
981.28        61.36013
981.66        60.78653
982.05        60.51192
982.43        60.67273
982.82        61.09146
983.20         61.7855
983.59        62.68707
983.97         63.7636
984.35        64.99496
984.74        65.97804
985.12        66.27645
985.51        65.73436
985.89        64.50803
986.28        63.09445
986.66        62.17056
987.04        61.96108
987.43        62.26924
987.81        62.80654
988.20        62.90215
988.58        62.38706
988.96        61.44645
989.35        60.39947
989.73        59.67349
990.12        59.35506
990.50        59.34285
990.88        59.39899
991.27        59.15343
991.65        58.54055
992.03        57.71743
992.42         57.0403
992.80         56.9671
993.18        57.59021
993.56        58.76895
993.95        60.06374
994.33         60.8195
994.71        60.70256
995.10        60.00495
995.48        59.09951
995.86        58.63084
996.24          58.756
996.63         59.1439
997.01        59.79116
997.39        60.36499
997.77         60.6762
998.15        60.93091
998.54        60.88241
998.92        60.03892
999.30        58.49846
999.68         56.4195
1000.06        54.62347
1000.45          54.258
1000.83        55.62237
1001.21          58.559
1001.59        62.15179
1001.97        64.15705
1002.35        63.76023
1002.73         61.6659
1003.12        59.34492
1003.50        58.67308
1003.88        60.16452
1004.26        63.17245
1004.64        66.98975
1005.02        70.03349
1005.40         71.4385
1005.78        71.70781
1006.16        70.80491
1006.54        68.69492
1006.92        65.75595
1007.30        62.17208
1007.69        58.95108
1008.07        57.32291
1008.45        57.65954
1008.83        59.74726
1009.21          62.961
1009.59        65.51299
1009.97        66.38844
1010.35        65.94276
1010.73        64.49588
1011.11        62.64723
1011.49        60.77166
1011.86        58.76528
1012.24        56.99854
1012.62        55.92981
1013.00        55.59901
1013.38         55.9947
1013.76        56.85103
1014.14        57.40989
1014.52        57.35421
1014.90        56.86866
1015.28        56.35323
1015.66        56.42526
1016.04        57.19009
1016.41         58.3937
1016.79        59.68358
1017.17        60.49538
1017.55         60.5856
1017.93        60.11913
1018.31        59.33518
1018.69        58.50705
1019.06        57.75639
1019.44        57.10424
1019.82        56.42646
1020.20        55.59328
1020.58        54.65955
1020.95        53.58875
1021.33        53.05445
1021.71        53.75668
1022.09        55.77675
1022.46        59.30121
1022.84        62.99775
1023.22        63.60579
1023.60        60.12489
1023.97        53.60054
1024.35        47.50587
1024.73        45.77394
