SpectraSmart Spectrum 2.9.0.0
--------- Device Information -----------
Spectrum Name :  反射率_0
Saving Time :  2024/04/27 00:26:02
Spectro-Module Model Name : SE2030-DUVN
Spectro-Module Serial Number : OS361AC55029948
Wavelength Start : 200
Wavelength End : 1025
Wavelength Unit : Wavelength(nm)
Spectrum Unit : Reflectance(%)
-----------Spectrum Setting ------------
Integration Time : 20ms
Average : 10
Boxcar : 0
Background removal :  enabled
linearity correction :  enabled
SC :  disabled
Intensity correction :  disabled
DWT denoise :  enabled
savitzky-golay :  disabled
FFT :  disabled
Running average :  disabled
Kalman :  disabled
High pass :  disabled
---------------BEGIN--------------------
Wavelength(nm)             Reflectance(%)
200.29               0
200.75        31.61329
201.21        31.19062
201.67        30.81978
202.13        30.73817
202.58        30.88246
203.04        31.67848
203.50         32.6419
203.96        32.18067
204.42         29.5914
204.88        25.02543
205.34        21.05819
205.80        22.20457
206.26        28.38389
206.72         36.6189
207.18        43.53925
207.64        46.72706
208.10        46.32593
208.55        43.41424
209.01        36.91735
209.47          29.072
209.93         24.5242
210.39        23.24355
210.85        24.25632
211.31        27.17545
211.77        33.04885
212.23        46.62124
212.69        81.50415
213.14        144.2518
213.60        149.2117
214.06         110.011
214.52        81.70545
214.98        69.21748
215.44        64.35612
215.90        61.65368
216.36        60.22517
216.81        59.41376
217.27        59.17209
217.73        61.08163
218.19        63.94567
218.65        62.21083
219.11        56.11691
219.57        49.65375
220.02        46.78546
220.48        50.21092
220.94        60.03522
221.40        77.93019
221.86        103.8249
222.32        121.9565
222.77        117.6729
223.23        101.1796
223.69        84.12841
224.15        73.36126
224.61        68.04724
225.06        65.03998
225.52        64.10461
225.98        64.85491
226.44        66.86852
226.90        70.35447
227.36        73.95522
227.81        75.09495
228.27        73.65013
228.73        70.48823
229.19        67.71099
229.65        67.86282
230.10         70.9645
230.56         76.0426
231.02        81.20216
231.48        83.40569
231.93        82.05276
232.39        78.82617
232.85        75.20683
233.31        73.11098
233.77        72.82627
234.22        73.62015
234.68        74.97128
235.14        76.22256
235.60        77.08193
236.05        77.93858
236.51        78.40646
236.97        77.81164
237.43        76.03119
237.88        73.19411
238.34        70.16799
238.80        68.74209
239.26         69.5325
239.71        72.95252
240.17         78.0845
240.63        82.32648
241.08        83.97528
241.54        82.52963
242.00        80.07465
242.46        81.27226
242.91        89.33073
243.37        105.4108
243.83        130.1154
244.28        151.9766
244.74        153.3168
245.20         134.071
245.66         108.725
246.11        89.90859
246.57         78.4912
247.03        70.70209
247.48        64.54114
247.94        58.54361
248.40        53.59085
248.85        50.37986
249.31        48.82695
249.77        48.12493
250.22        47.77833
250.68        47.75508
251.14        47.81337
251.59        47.55967
252.05        47.39034
252.51            47.8
252.96        48.63247
253.42        50.08243
253.88        51.92746
254.33        53.43973
254.79        55.75266
255.25        59.68543
255.70        64.95187
256.16        71.29013
256.62        76.14402
257.07        75.67421
257.53         71.4899
257.99        66.25076
258.44        62.05437
258.90        60.96411
259.35         61.9425
259.81        64.19759
260.27        66.49751
260.72        67.37769
261.18         66.9527
261.63        65.59042
262.09        64.23073
262.55        63.29727
263.00         62.7437
263.46        62.55188
263.91        62.22898
264.37        61.53888
264.83        60.45061
265.28        59.08611
265.74        58.01766
266.19        57.61131
266.65        57.94902
267.11        58.75251
267.56        59.56248
268.02        59.65766
268.47        58.87661
268.93        57.50537
269.38        55.91434
269.84        54.74916
270.30         54.1437
270.75        53.86393
271.21        53.74764
271.66        53.47804
272.12        52.96484
272.57        52.29789
273.03        51.48449
273.48        50.49885
273.94        49.44658
274.39        48.30169
274.85        47.25251
275.31        46.40001
275.76         45.7248
276.22        45.23171
276.67        44.80349
277.13        44.38953
277.58        43.89309
278.04        43.36866
278.49        42.73944
278.95        42.04368
279.40        41.24179
279.86        40.42908
280.31         39.5869
280.77          38.827
281.22        38.12133
281.68        37.52218
282.13        36.99496
282.59         36.6011
283.04        36.28388
283.50        36.04087
283.95        35.80252
284.41        35.49161
284.86         35.0858
285.32        34.64215
285.77        34.17282
286.22        33.76685
286.68        33.44007
287.13         33.1293
287.59        32.84283
288.04         32.5394
288.50        32.23759
288.95        31.92308
289.41        31.60201
289.86        31.20287
290.32        30.76523
290.77        30.29546
291.22        29.87338
291.68        29.59964
292.13        29.48071
292.59        29.50281
293.04        29.61329
293.50        29.75243
293.95        29.88557
294.40        30.02859
294.86        30.19776
295.31         30.4088
295.77        30.67309
296.22        30.97302
296.68        31.29107
297.13        31.58741
297.58        31.86265
298.04        32.12723
298.49        32.41888
298.95        32.81459
299.40        33.30988
299.85        33.87506
300.31        34.43488
300.76        34.86295
301.21        35.13908
301.67        35.31886
302.12         35.4501
302.58        35.66667
303.03        35.97243
303.48        36.34739
303.94        36.75781
304.39        37.11814
304.84        37.41842
305.30        37.68796
305.75        37.92523
306.20        38.18388
306.66        38.47709
307.11        38.76733
307.57        39.02602
308.02        39.16062
308.47        39.17668
308.93         39.1184
309.38        39.04072
309.83        39.07785
310.29        39.25373
310.74         39.5179
311.19        39.79385
311.65         39.9497
312.10        39.94094
312.55        39.80488
313.00        39.60494
313.46        39.43586
313.91        39.31152
314.36        39.21629
314.82        39.10752
315.27        38.93196
315.72        38.67898
316.18        38.38567
316.63         38.0973
317.08        37.89476
317.53        37.79098
317.99        37.75225
318.44        37.72754
318.89        37.62249
319.35        37.41223
319.80        37.12404
320.25        36.80336
320.70        36.52459
321.16        36.30772
321.61         36.1442
322.06        35.99878
322.51         35.8181
322.97        35.58364
323.42        35.31585
323.87        35.05902
324.32         34.8885
324.78        34.80385
325.23        34.79964
325.68        34.77808
326.13        34.58906
326.59         34.2037
327.04        33.68404
327.49        33.14937
327.94        32.78878
328.39        32.64239
328.85        32.64262
329.30          32.716
329.75        32.66298
330.20        32.42661
330.66        32.06298
331.11        31.67219
331.56        31.38663
332.01        31.24461
332.46         31.1934
332.92        31.16696
333.37         31.1081
333.82        30.97288
334.27        30.79634
334.72         30.5934
335.17         30.3817
335.63        30.17372
336.08         29.9797
336.53        29.82128
336.98        29.74729
337.43        29.76487
337.88        29.85641
338.34        29.98114
338.79        30.09839
339.24        30.16934
339.69        30.19559
340.14        30.16724
340.59        30.07671
341.05        29.93984
341.50         29.7641
341.95         29.5744
342.40        29.40742
342.85        29.28072
343.30        29.18868
343.75        29.14738
344.20        29.18084
344.66        29.28479
345.11        29.43898
345.56        29.58753
346.01        29.64492
346.46        29.59408
346.91        29.46271
347.36        29.28997
347.81        29.14315
348.26        29.04416
348.72        28.97376
349.17        28.93081
349.62        28.92425
350.07         28.9506
350.52        29.01943
350.97        29.08214
351.42         29.0584
351.87        28.93554
352.32        28.72788
352.77        28.52335
353.22         28.4557
353.67        28.54258
354.13         28.7456
354.58        28.94211
355.03        28.92957
355.48        28.66883
355.93        28.23281
356.38        27.77396
356.83         27.5185
357.28        27.51199
357.73        27.67886
358.18        27.89375
358.63        27.95193
359.08        27.79652
359.53        27.49663
359.98        27.13983
360.43        26.85288
360.88        26.66965
361.33        26.54622
361.78        26.44005
362.23        26.28973
362.68         26.0825
363.13        25.85116
363.58        25.62511
364.03        25.44123
364.48        25.30718
364.93         25.2023
365.38        25.11312
365.83        25.02284
366.28        24.92137
366.73        24.81274
367.18        24.68554
367.63        24.52127
368.08        24.32042
368.53        24.09124
368.98        23.85675
369.43        23.65339
369.88        23.49269
370.33         23.3685
370.78        23.26926
371.23        23.17394
371.68        23.07479
372.13         22.9754
372.58        22.88167
373.03        22.80293
373.48        22.73664
373.93        22.67302
374.38         22.5961
374.83        22.48409
375.28        22.33533
375.72        22.15713
376.17        21.97911
376.62        21.81663
377.07        21.67896
377.52        21.56306
377.97        21.47322
378.42        21.41792
378.87        21.39148
379.32        21.38093
379.77        21.37263
380.22        21.34586
380.67        21.29123
381.11        21.22058
381.56        21.10584
382.01        20.93035
382.46         20.7088
382.91        20.46269
383.36         20.2463
383.81        20.12955
384.26        20.11883
384.71        20.19148
385.15        20.29758
385.60        20.35404
386.05         20.3317
386.50        20.24868
386.95        20.13416
387.40        20.03689
387.85         19.9717
388.29        19.91344
388.74        19.86515
389.19        19.78454
389.64        19.66684
390.09        19.52261
390.54        19.38414
390.98        19.29859
391.43        19.28421
391.88        19.31644
392.33         19.3496
392.78        19.31867
393.23        19.21452
393.67        19.05383
394.12        18.89135
394.57        18.76867
395.02        18.69569
395.47        18.64883
395.91        18.61813
396.36        18.57715
396.81        18.52863
397.26         18.4881
397.71        18.44196
398.15        18.37876
398.60        18.32231
399.05         18.1992
399.50        18.05983
399.95        18.11135
400.39         18.3014
400.84        18.28927
401.29        18.07475
401.74        17.94481
402.18        17.91163
402.63        17.79427
403.08        17.62664
403.53        17.54101
403.97        17.54818
404.42        17.61534
404.87        17.68421
405.32         17.6592
405.76        17.52045
406.21        17.30864
406.66        17.09673
407.11        16.99866
407.55        17.04347
408.00        17.18938
408.45        17.36485
408.90        17.43346
409.34        17.35517
409.79        17.17764
410.24        16.97716
410.68        16.85568
411.13        16.84193
411.58        16.90322
412.03        16.98934
412.47         17.0161
412.92        16.95513
413.37        16.84418
413.81         16.7308
414.26        16.69492
414.71        16.74464
415.15        16.85604
415.60        16.98007
416.05        17.04776
416.49        17.03614
416.94        16.96514
417.39        16.86569
417.83        16.78327
418.28        16.73228
418.73        16.69785
419.17        16.67393
419.62        16.65199
420.07        16.62879
420.51         16.6069
420.96         16.5874
421.41        16.56505
421.85        16.53306
422.30        16.48572
422.74        16.42009
423.19        16.40843
423.64        16.42541
424.08        16.36659
424.53        16.24185
424.98        16.19591
425.42        16.24924
425.87        16.28968
426.31        16.29797
426.76        16.36213
427.21        16.42659
427.65        16.27172
428.10        15.99183
428.54        15.89902
428.99        16.02428
429.44        16.26831
429.88        16.51748
430.33        16.53233
430.77        16.34066
431.22        16.28192
431.66         16.3805
432.11        16.39366
432.56        16.33541
433.00        16.41467
433.45        16.53397
433.89        16.40433
434.34        16.13403
434.78        15.67378
435.23        15.94403
435.67        15.95826
436.12        15.94741
436.57        15.93631
437.01        15.93154
437.46        15.95202
437.90        15.98432
438.35        15.97954
438.79        15.93433
439.24        15.89894
439.68        15.87855
440.13        15.85586
440.57        15.83848
441.02        15.85783
441.46         15.9126
441.91        15.95095
442.35        15.95518
442.80        16.06028
443.24        16.19352
443.69        16.08863
444.13        15.80892
444.58         15.7068
445.02        15.80365
445.47        15.92125
445.91        16.00739
446.36        16.05902
446.80        16.05511
447.24        16.00241
447.69        15.92794
448.13        15.86638
448.58        15.83334
449.02        15.81533
449.47        15.80774
449.91        15.79531
450.36        15.77898
450.80        15.76473
451.25        15.75712
451.69        15.75096
452.13         15.7473
452.58        15.73984
453.02        15.73462
453.47        15.74537
453.91        15.77171
454.36        15.81233
454.80        15.83891
455.24        15.80571
455.69        15.71317
456.13        15.56752
456.58        15.43001
457.02        15.36664
457.46        15.39574
457.91        15.49401
458.35        15.59722
458.79        15.60687
459.24        15.51849
459.68        15.35854
460.13        15.20497
460.57        15.13273
461.01        15.17151
461.46        15.28073
461.90        15.42839
462.34         15.5484
462.79        15.60995
463.23        15.63462
463.68        15.62027
464.12        15.57492
464.56        15.50403
465.01        15.42479
465.45        15.32889
465.89        15.24837
466.34        15.18779
466.78        15.13965
467.22        15.11007
467.67        15.09306
468.11        15.09603
468.55        15.11506
468.99        15.14149
469.44        15.15869
469.88         15.1632
470.32         15.1557
470.77        15.14845
471.21        15.16571
471.65        15.20877
472.10        15.27033
472.54         15.3272
472.98        15.35014
473.42        15.33323
473.87        15.29181
474.31        15.23604
474.75        15.19635
475.20        15.18423
475.64         15.1857
476.08        15.19686
476.52        15.20236
476.97        15.19936
477.41        15.20313
477.85        15.21999
478.29        15.23651
478.74        15.26539
479.18        15.33968
479.62        15.44532
480.06        15.53583
480.50        15.60435
480.95        15.65323
481.39        15.66674
481.83        15.76844
482.27        15.73337
482.72        15.76976
483.16        15.81908
483.60        15.85918
484.04         15.8776
484.48        15.95715
484.93        16.18035
485.37        16.16073
485.81        16.40576
486.25        16.80649
486.69        16.98551
487.14        16.68297
487.58        17.06318
488.02        16.86318
488.46        16.61531
488.90        16.70655
489.34        16.72649
489.79        16.97142
490.23        17.18633
490.67        17.29527
491.11        17.28735
491.55        17.23789
491.99        17.19567
492.43        17.18851
492.88        17.24076
493.32        17.35225
493.76        17.50788
494.20        17.68214
494.64        17.86679
495.08        18.04623
495.52        18.19963
495.96        18.37921
496.41         18.5545
496.85         18.5236
497.29        18.34548
497.73        18.48267
498.17        18.67295
498.61        18.82444
499.05        18.84039
499.49         18.8975
499.93        18.95925
500.37        19.12604
500.82        19.34793
501.26        19.48986
501.70        19.53475
502.14         19.5624
502.58        19.60425
503.02        19.67252
503.46        19.77562
503.90        19.90816
504.34        20.03999
504.78        20.12064
505.22         20.1384
505.66        20.11077
506.10        20.06668
506.54        20.05135
506.98        20.07973
507.42        20.14104
507.86        20.22192
508.30        20.29996
508.74         20.3666
509.18        20.42663
509.62        20.48791
510.06        20.56294
510.50        20.65129
510.94        20.74417
511.38         20.8244
511.82        20.86649
512.26        20.86736
512.70        20.83942
513.14        20.80166
513.58        20.78461
514.02        20.79777
514.46        20.83055
514.90         20.8797
515.34        20.93861
515.78        21.00061
516.22        21.06796
516.66        21.12189
517.10        21.13242
517.54        21.09614
517.98        21.02101
518.42        20.93825
518.86        20.89933
519.30        20.91563
519.74        20.97252
520.18        21.03937
520.62        21.06628
521.06        21.04173
521.50        20.98244
521.93        20.91355
522.37        20.86903
522.81        20.86113
523.25        20.87294
523.69        20.88998
524.13        20.89164
524.57        20.86946
525.01        20.83071
525.45        20.77326
525.89        20.69296
526.32        20.59236
526.76        20.48101
527.20        20.37218
527.64        20.28862
528.08        20.23579
528.52        20.20706
528.96        20.19586
529.40        20.19022
529.83        20.18324
530.27        20.17795
530.71        20.16519
531.15        20.13315
531.59         20.0816
532.03        20.01332
532.46        19.93879
532.90        19.89015
533.34        19.86978
533.78        19.85784
534.22        19.84482
534.66        19.83949
535.09        19.82344
535.53        19.75732
535.97        19.65374
536.41        19.58351
536.85        19.55629
537.28        19.53644
537.72        19.53234
538.16         19.5717
538.60        19.65216
539.04         19.7629
539.47        19.87627
539.91        19.96238
540.35        20.01017
540.79        20.03114
541.22        20.04086
541.66        20.07269
542.10        20.13358
542.54        20.21377
542.97        20.30652
543.41         20.4097
543.85        20.51718
544.29        20.63387
544.72         20.7489
545.16        20.85869
545.60        20.96008
546.04        21.05807
546.47        21.16754
546.91         21.3093
547.35        21.48273
547.79        21.67766
548.22        21.87536
548.66        22.04342
549.10        22.20033
549.53        22.34513
549.97         22.4816
550.41        22.56482
550.84        22.62218
551.28        22.71643
551.72         22.8386
552.15        22.99272
552.59        23.20576
553.03         23.1354
553.46        23.46589
553.90        23.57376
554.34        23.65798
554.77        23.72262
555.21        23.79133
555.65        23.88185
556.08        23.98901
556.52        24.09556
556.96        24.17999
557.39        24.27557
557.83        24.36043
558.27        24.30404
558.70         24.1589
559.14        24.15292
559.57        24.28656
560.01         24.4231
560.45        24.52982
560.88        24.63406
561.32        24.73732
561.75        24.80576
562.19        24.85677
562.63        24.91415
563.06        24.97796
563.50        25.04169
563.93        25.08333
564.37        25.13486
564.80        25.20906
565.24         25.2447
565.68        25.19061
566.11        25.52677
566.55        25.34462
566.98        25.36447
567.42        25.37432
567.85        25.57912
568.29        25.95279
568.72        26.18587
569.16        26.27742
569.60         26.6873
570.03        26.84516
570.47        27.11708
570.90         27.3237
571.34        27.44117
571.77        27.56942
572.21        27.78489
572.64        27.83267
573.08        27.94438
573.51        28.10024
573.95         28.2121
574.38        28.26682
574.82        28.74974
575.25        28.35473
575.69        28.35785
576.12        28.39665
576.56        28.39674
576.99        28.67865
577.42        28.56899
577.86         28.6496
578.29        29.10987
578.73        29.01478
579.16        28.89793
579.60        28.45119
580.03        28.41706
580.47        28.47471
580.90        28.50766
581.33        28.60584
581.77         28.7399
582.20        28.35307
582.64        28.45667
583.07        28.19401
583.51        28.00083
583.94        27.77597
584.37        27.60618
584.81        27.53191
585.24        27.50646
585.68        27.53127
586.11        27.28759
586.54        27.34764
586.98        27.14242
587.41         26.8901
587.85        27.06733
588.28        26.90853
588.71        26.91873
589.15        26.63842
589.58        26.70081
590.01        26.40305
590.45        26.44419
590.88        26.56493
591.31         26.5355
591.75        26.42314
592.18        26.26971
592.61        26.11133
593.05        26.91985
593.48        27.20568
593.91        27.10318
594.35        26.97208
594.78        26.75421
595.21        26.75165
595.65        27.05101
596.08        27.61169
596.51        27.79201
596.94        27.51817
597.38        27.54466
597.81         27.8576
598.24         28.1988
598.68         28.2497
599.11        28.41778
599.54        29.04378
599.97        29.09011
600.41        29.47837
600.84        29.53909
601.27        29.94144
601.70         30.1898
602.14        30.41479
602.57        30.77037
603.00         31.2541
603.43        31.46066
603.87        32.04291
604.30        32.29223
604.73        32.47681
605.16        32.66488
605.60        32.90995
606.03        33.20015
606.46        33.48403
606.89        33.89206
607.32        34.44576
607.76        34.64841
608.19        35.10051
608.62        35.33261
609.05        35.59184
609.48        35.84903
609.92         36.5997
610.35        36.62682
610.78        36.77148
611.21        36.96297
611.64        37.28445
612.07        37.65078
612.50        37.82649
612.94        38.03093
613.37         38.1639
613.80          38.585
614.23        38.33254
614.66        38.61075
615.09         39.0815
615.52        39.35486
615.96        39.41706
616.39         39.5987
616.82        39.92631
617.25        40.12542
617.68        40.30761
618.11        40.51907
618.54        40.77646
618.97         40.9117
619.40        40.93022
619.84        41.12801
620.27        41.12939
620.70        41.28385
621.13        41.43888
621.56        41.31821
621.99        40.98562
622.42        41.01849
622.85        41.45001
623.28        41.31095
623.71        41.38403
624.14        41.56179
624.57        41.89988
625.00        41.55475
625.43        41.69449
625.86        41.51485
626.29        41.46338
626.72        40.91064
627.15        41.07961
627.58        40.97682
628.01        40.89803
628.44        40.75322
628.87        40.53305
629.30        40.25322
629.73        39.95657
630.16        39.73715
630.59        39.60158
631.02        39.52663
631.45        39.46785
631.88        39.30095
632.31        38.98674
632.74        38.77399
633.17        38.28641
633.60        37.86251
634.03        37.40836
634.46        36.92509
634.89         36.4355
635.32        36.01197
635.75        35.67588
636.18        35.29462
636.61        35.00402
637.04        34.69522
637.47        34.39845
637.89        34.10189
638.32         33.7868
638.75        33.45833
639.18        33.12172
639.61         32.7822
640.04        32.46121
640.47        32.18958
640.90        31.97327
641.33        31.80706
641.76        31.67426
642.18        31.54955
642.61        31.41686
643.04        31.28715
643.47        31.17561
643.90        31.10706
644.33        31.08494
644.76        31.09938
645.18        31.13228
645.61        31.14716
646.04        31.14226
646.47        31.13617
646.90         31.1534
647.33        31.22318
647.75        31.34594
648.18        31.55058
648.61        31.84387
649.04        32.10866
649.47        32.31079
649.89        32.96967
650.32        33.19422
650.75        33.60308
651.18        33.93165
651.61        34.29109
652.03        34.71445
652.46        35.08337
652.89        35.40332
653.32        35.88322
653.74        36.59797
654.17        36.55436
654.60        36.89971
655.03        37.33175
655.46         37.6577
655.88        38.26865
656.31        40.67826
656.74        44.34871
657.16        43.70409
657.59        43.40575
658.02        41.18158
658.45        40.92436
658.87        40.99986
659.30        41.08689
659.73        41.07018
660.15        42.09254
660.58        41.67204
661.01        41.97068
661.44        42.25307
661.86        42.35474
662.29          42.285
662.72        42.84789
663.14        43.19054
663.57        43.44792
664.00        43.42843
664.42        43.63195
664.85        44.07845
665.27        44.48823
665.70        44.77288
666.13        44.98225
666.55        45.09593
666.98        45.01383
667.41        44.81067
667.83        44.94307
668.26        44.97892
668.69        45.23684
669.11        45.53137
669.54        45.79326
669.96        45.99595
670.39        46.16719
670.82         46.3232
671.24         46.4507
671.67         46.5613
672.09        46.67429
672.52        46.80413
672.94          46.918
673.37        47.02155
673.80        47.13244
674.22        47.25394
674.65        47.34967
675.07        47.42888
675.50        47.49631
675.92        47.55634
676.35        47.60706
676.77        47.65483
677.20         47.6968
677.62        47.75894
678.05         47.8812
678.47        48.06422
678.90        48.29706
679.32        48.52826
679.75        48.68548
680.17        48.74921
680.60        48.74274
681.02        48.71747
681.45        48.75253
681.87        48.87794
682.30        49.06614
682.72        49.28391
683.15        49.43914
683.57        49.52399
684.00        49.56442
684.42         49.6031
684.85        49.70334
685.27        49.87121
685.70        50.08692
686.12        50.29242
686.54        50.42231
686.97        50.46232
687.39        50.39873
687.82        50.34617
688.24        50.32993
688.66        50.39558
689.09        50.46883
689.51        50.62311
689.94        50.75753
690.36        50.88573
690.78        51.00455
691.21        51.11282
691.63        51.19949
692.06        51.26625
692.48        51.32392
692.90         51.3611
693.33        51.36612
693.75        51.34106
694.17        51.27018
694.60        51.21589
695.02        51.28104
695.44        51.45808
695.87        51.73449
696.29        52.02437
696.71        51.99897
697.14         51.7405
697.56         51.7408
697.98        52.01251
698.41        52.17373
698.83        52.21211
699.25        52.39882
699.68         52.6521
700.10        52.75261
700.52        52.66006
700.94        52.45182
701.37        52.24241
701.79        52.22239
702.21        52.42574
702.64         52.7768
703.06        53.17143
703.48        53.42345
703.90        53.48202
704.33        53.41385
704.75        53.27715
705.17        53.15847
705.59        53.09684
706.01        53.05919
706.44        53.08021
706.86        53.21323
707.28        53.44012
707.70        53.80177
708.12        54.19718
708.55         54.3215
708.97        54.20676
709.39        54.19668
709.81        54.31593
710.23        54.33953
710.66        54.27515
711.08        54.29324
711.50        54.36792
711.92        54.38932
712.34        54.35321
712.76        54.30431
713.19        54.25883
713.61        54.26981
714.03        54.33858
714.45         54.4502
714.87        54.59879
715.29        54.78142
715.71         54.9853
716.13        55.19609
716.56        55.37989
716.98         55.5522
717.40        55.67665
717.82        55.76329
718.24        55.78529
718.66        55.69497
719.08        55.50834
719.50        55.26765
719.92        55.05116
720.34        54.97211
720.76        55.05378
721.19        55.24225
721.61        55.51644
722.03        55.79315
722.45        56.02683
722.87        56.23446
723.29        56.37509
723.71        56.34249
724.13        56.12873
724.55        55.85824
724.97        55.68927
725.39        55.33478
725.81        55.46423
726.23        55.75847
726.65        56.39514
727.07        56.03941
727.49        56.69405
727.91        56.74235
728.33        56.78494
728.75        56.83292
729.17        56.92107
729.59        56.89908
730.01        56.74707
730.43        57.05254
730.85        56.94669
731.27        57.11415
731.69        57.24759
732.10        57.28637
732.52        57.20776
732.94        57.05781
733.36        56.91707
733.78        56.77396
734.20        56.64403
734.62        56.76094
735.04        57.16116
735.46        56.71262
735.88        57.13276
736.30        57.26849
736.72        57.59409
737.13        57.86215
737.55         57.9702
737.97        58.04569
738.39        58.06363
738.81        57.78172
739.23        57.37169
739.65        57.54955
740.06        58.16477
740.48        58.42923
740.90        58.27538
741.32        58.14958
741.74        58.13436
742.16        58.14843
742.57        58.22036
742.99         58.3586
743.41        58.49623
743.83        58.51373
744.25        58.39257
744.67        58.16154
745.08        57.93742
745.50         57.8876
745.92        58.05584
746.34        58.38553
746.75        58.74417
747.17        58.90407
747.59        58.81845
748.01        58.56773
748.42         58.2841
748.84        58.15464
749.26        58.24651
749.68        58.53589
750.09        58.89304
750.51        59.09862
750.93        59.07658
751.35        58.84658
751.76        58.51015
752.18        58.29723
752.60        58.25107
753.01        58.28734
753.43         58.3472
753.85        58.38701
754.27        58.39365
754.68        58.40416
755.10        58.43547
755.52         58.5102
755.93        58.61882
756.35        58.71001
756.77        58.81726
757.18        58.98602
757.60        59.22522
758.02        59.59656
758.43         59.8799
758.85        59.83605
759.26        59.31521
759.68        58.75816
760.10        58.25189
760.51        58.91077
760.93         59.7002
761.34        59.35712
761.76         59.4688
762.18         59.2004
762.59        59.25184
763.01        59.50602
763.42        59.93892
763.84        60.15368
764.26        60.10014
764.67        59.93621
765.09        59.77166
765.50        59.73576
765.92        59.81272
766.33         59.6358
766.75        59.19647
767.16        59.02207
767.58        59.12815
768.00        59.12099
768.41        59.06179
768.83        59.42727
769.24        60.02988
769.66         60.1829
770.07        59.90579
770.49        59.56104
770.90        59.36094
771.32         59.7724
771.73        60.60506
772.15        60.88601
772.56        60.54519
772.97        60.12144
773.39        59.80102
773.80        59.65034
774.22        59.71142
774.63        60.00521
775.05        60.35632
775.46        60.53597
775.88        60.45657
776.29         60.2218
776.70        59.94065
777.12        59.81036
777.53        59.89002
777.95        60.06689
778.36        60.30763
778.77        60.51333
779.19        60.65797
779.60        60.83685
780.02        60.96435
780.43        60.88823
780.84        60.68279
781.26        60.29815
781.67        59.93935
782.09        60.39732
782.50        61.39082
782.91        61.42981
783.33        60.59106
783.74        60.32145
784.15        60.67191
784.57        60.82123
784.98        60.74669
785.39        60.69251
785.81         60.7234
786.22        61.02253
786.63        61.48471
787.04        61.72269
787.46        61.70933
787.87        61.56947
788.28        61.39716
788.70        61.51418
789.11        61.45631
789.52         61.6646
789.93        61.89566
790.35        61.83253
790.76        61.51463
791.17        61.32782
791.58        61.33255
792.00         61.2495
792.41        61.10047
792.82        61.19717
793.23         61.4455
793.65        61.31691
794.06        60.98214
794.47        61.16035
794.88        61.65701
795.29         62.3404
795.71        61.69982
796.12        61.49384
796.53        61.39897
796.94        61.21202
797.35        61.05026
797.76        61.38962
798.18         62.0685
798.59        62.39815
799.00        62.27307
799.41          62.026
799.82         61.7845
800.23        61.63734
800.64        61.63977
801.06        61.72913
801.47        61.88153
801.88        61.98083
802.29        61.98419
802.70        61.91716
803.11        61.81033
803.52        61.71126
803.93        61.65967
804.34        61.65634
804.75        61.67475
805.17        61.76257
805.58        61.96656
805.99        61.94694
806.40         61.8081
806.81        62.47931
807.22        63.61271
807.63        63.43804
808.04        62.15851
808.45        61.63354
808.86        62.00095
809.27         62.2407
809.68        62.21737
810.09        62.19944
810.50        62.15914
810.91        62.03046
811.32        61.92482
811.73        62.00943
812.14        62.30748
812.55        62.79322
812.96        63.31419
813.37        63.51194
813.78        63.33049
814.19        63.01836
814.60        62.67564
815.01         62.3167
815.42        61.98512
815.83        61.71254
816.24        61.53345
816.65        61.47563
817.05        61.55601
817.46         61.7597
817.87        62.01356
818.28        62.14904
818.69        62.12969
819.10         61.9762
819.51        61.80861
819.92        61.85344
820.33        62.15696
820.74        62.63603
821.14        63.12185
821.55        63.34644
821.96        63.24793
822.37         62.9114
822.78        62.48332
823.19        62.21014
823.60        62.17786
824.00         62.3458
824.41        62.58329
824.82        62.75994
825.23         62.8146
825.64        62.78476
826.04        62.73972
826.45        62.74973
826.86        62.84769
827.27        63.01543
827.68        63.15593
828.08        63.14138
828.49        62.89971
828.90        62.48364
829.31        62.08318
829.72         62.0056
830.12        62.33704
830.53        62.95298
830.94        63.58265
831.35        63.71269
831.75        63.24139
832.16        62.31448
832.57        61.31585
832.97        60.83635
833.38        61.01357
833.79        61.63064
834.20        62.41987
834.60        62.95729
835.01        63.12217
835.42        63.10468
835.82        62.97277
836.23        62.76772
836.64        62.57865
837.04        62.33459
837.45        62.24847
837.86        62.74062
838.26        63.86623
838.67        65.46428
839.08        67.01532
839.48        67.53862
839.89        66.79424
840.29        65.13238
840.70        63.28079
841.11        62.11334
841.51        61.85849
841.92        62.25239
842.33        63.02835
842.73         63.7001
843.14        63.97888
843.54        64.06694
843.95         64.0624
844.35        64.16071
844.76        64.39144
845.17        64.64469
845.57        64.82954
845.98        64.80582
846.38        64.56983
846.79        64.18853
847.19        63.77038
847.60        63.45613
848.00        63.30198
848.41        63.24012
848.81         63.2681
849.22        63.30153
849.62          63.342
850.03        63.40592
850.43        63.45353
850.84        63.35197
851.24        63.12967
851.65        62.76527
852.05        62.47165
852.46        62.52957
852.86        62.98257
853.27        63.69891
853.67         64.3908
854.07         64.7723
854.48        64.75751
854.88        64.46142
855.29        63.94569
855.69        63.45009
856.10        63.02381
856.50        62.69285
856.90        62.44863
857.31        62.29128
857.71        62.26479
858.12        62.32187
858.52        62.50051
858.92        62.73904
859.33        62.98254
859.73        63.26344
860.13        63.45041
860.54        63.36335
860.94        63.01961
861.34        62.46015
861.75        61.87578
862.15        61.62442
862.55        61.77467
862.96        62.20402
863.36        62.77713
863.76         63.1692
864.17        63.26251
864.57        63.18487
864.97        62.96671
865.38        62.66742
865.78        62.36245
866.18        62.02031
866.58         61.7558
866.99        61.77979
867.39        62.13741
867.79        62.74388
868.19        63.42385
868.60        63.88202
869.00          64.064
869.40        64.01808
869.80         63.7962
870.21         63.5251
870.61        63.33117
871.01         63.1426
871.41        62.94683
871.81        62.71646
872.22        62.44099
872.62        62.14945
873.02         61.8927
873.42        61.73302
873.82        61.68888
874.22         61.7369
874.63         61.8175
875.03        61.86087
875.43        61.82916
875.83         61.7361
876.23        61.63085
876.63        61.59495
877.03        61.65177
877.44        61.75509
877.84        61.86156
878.24        61.92719
878.64        61.88811
879.04         61.6028
879.44        61.24383
879.84        61.19611
880.24        61.48237
880.64        61.95015
881.04        62.31402
881.44        62.13922
881.84        61.35602
882.24        60.14039
882.65        58.88869
883.05        58.20342
883.45         58.2444
883.85         58.8545
884.25        59.74467
884.65        60.40797
885.05        60.67098
885.45        60.66287
885.85          60.569
886.25         60.6806
886.65        61.06404
887.05        61.60014
887.45        62.11247
887.85        62.33268
888.25        62.19351
888.65        61.79649
889.04        61.32319
889.44        61.07176
889.84        61.09964
890.24        61.31464
890.64        61.56529
891.04        61.60617
891.44        61.37836
891.84        60.98545
892.24        60.54478
892.64        60.21365
893.04        60.05341
893.44         60.0374
893.83        60.14824
894.23        60.30974
894.63        60.50914
895.03        60.73342
895.43        61.02641
895.83        61.46085
896.23        62.00607
896.63        62.59357
897.02         63.0219
897.42        63.01332
897.82         62.5354
898.22        61.73132
898.62        60.83347
899.01        60.17782
899.41        59.88142
899.81        59.84701
900.21        60.01935
900.61        60.29675
901.00        60.60895
901.40         60.9655
901.80        61.28531
902.20        61.43023
902.59         61.3854
902.99        61.17912
903.39        60.87635
903.79        60.60393
904.18        60.40218
904.58        60.23451
904.98        60.17165
905.38        60.31866
905.77        60.67619
906.17        61.25195
906.57        61.80175
906.96        61.91478
907.36        61.50584
907.76        60.69669
908.15        59.91632
908.55        59.83379
908.95        60.58915
909.34         61.9845
909.74        63.47623
910.14        64.23818
910.53        64.01841
910.93        63.09067
911.33        61.86615
911.72         60.9771
912.12        60.66597
912.52        60.73982
912.91        60.97718
913.31        61.06117
913.70        60.90843
914.10         60.6111
914.49        60.38223
914.89        60.48111
915.29        60.97597
915.68        61.75469
916.08        62.48901
916.47        62.71553
916.87        62.34461
917.26        61.51875
917.66         60.6225
918.05        60.09696
918.45        60.05573
918.84        60.41191
919.24        60.90141
919.64        61.18747
920.03        61.17171
920.42        60.92788
920.82        60.68938
921.21        60.76014
921.61        61.18354
922.00        61.87586
922.40        62.55121
922.79        62.85291
923.19         62.6542
923.58        62.11415
923.98        61.47856
924.37        61.04603
924.77        60.91417
925.16        60.95427
925.55        61.10468
925.95         61.2389
926.34         61.3139
926.74        61.36638
927.13        61.33335
927.52        61.03971
927.92         60.5354
928.31        59.87498
928.70         59.2835
929.10        59.08502
929.49        59.32948
929.89        59.86659
930.28        60.62694
930.67        61.37211
931.07        61.95275
931.46         62.4807
931.85        62.75965
932.24        62.53497
932.64        61.85254
933.03        60.77827
933.42        59.75591
933.82        59.42736
934.21        59.91515
934.60        61.09126
934.99        62.51252
935.39        63.35638
935.78        63.40455
936.17        62.78613
936.56        61.91818
936.96        61.46575
937.35        61.59361
937.74        62.10335
938.13        62.59627
938.53        62.47192
938.92         61.6452
939.31        60.39953
939.70        59.18129
940.09        58.60836
940.49         58.7813
940.88        59.50239
941.27        60.51374
941.66        61.33114
942.05        61.75911
942.44        61.96804
942.84        61.96964
943.23        61.77607
943.62        61.45237
944.01        60.93328
944.40        60.49369
944.79        60.62068
945.18         61.3719
945.57          62.612
945.97        63.80639
946.36        64.11247
946.75        63.30679
947.14        61.73926
947.53         59.9607
947.92        58.76015
948.31         58.3451
948.70        58.48093
949.09        58.98611
949.48        59.54154
949.87         59.9949
950.26        60.44952
950.65        60.84895
951.04        61.08238
951.43        61.13507
951.82        60.98929
952.21        60.74922
952.60        60.63011
952.99        60.69423
953.38         60.8988
953.77        61.17521
954.16        61.40597
954.55        61.53909
954.94        61.57922
955.33        61.55036
955.72        61.49539
956.11        61.41408
956.50        61.29362
956.89        61.02629
957.28         60.4472
957.66        59.57123
958.05        58.55639
958.44        57.63313
958.83        57.10708
959.22        57.02387
959.61        57.27314
960.00        57.72242
960.39        58.11544
960.78        58.32421
961.16        58.39669
961.55        58.33921
961.94        58.11607
962.33        57.76787
962.72        57.31604
963.11        56.89291
963.49        56.80279
963.88        57.06932
964.27        57.58818
964.66        58.28098
965.04        59.07243
965.43        59.85272
965.82        60.67134
966.21        61.23733
966.60        61.02794
966.98        59.95984
967.37        58.30659
967.76        56.64557
968.15        55.68293
968.53         55.5618
968.92        56.16421
969.31         57.1308
969.69         57.7169
970.08        57.61246
970.47         57.0302
970.86        56.52428
971.24        56.91851
971.63        58.35349
972.02        60.57798
972.40        62.90356
972.79        63.73063
973.17        62.67267
973.56        60.33206
973.95        57.69787
974.33        56.02309
974.72        55.58256
975.11         55.9962
975.49        56.93427
975.88         57.6956
976.26        58.02498
976.65        58.12235
977.04        58.05179
977.42        57.86163
977.81        57.56773
978.19        57.06645
978.58        56.61808
978.96        56.64668
979.35        57.20601
979.74        58.23724
980.12         59.3859
980.51        59.77762
980.89        59.32311
981.28        58.25072
981.66        57.12367
982.05        56.71709
982.43        57.21318
982.82        58.38402
983.20        59.92643
983.59        61.16311
983.97        61.88811
984.35        62.24694
984.74         62.3022
985.12        62.42307
985.51        62.64913
985.89        62.84391
986.28        63.04136
986.66        63.25354
987.04        63.52341
987.43         63.8397
987.81        64.09721
988.20        63.96657
988.58        63.42105
988.96        62.51543
989.35        61.49704
989.73        60.70674
990.12        60.19989
990.50        59.93167
990.88        59.69378
991.27        59.14756
991.65        58.25682
992.03        57.18247
992.42        56.25036
992.80        55.86217
993.18        56.09768
993.56        56.83411
993.95        57.72169
994.33        58.27692
994.71        58.23661
995.10        57.84883
995.48        57.36555
995.86        57.26601
996.24        57.66349
996.63        58.24076
997.01        59.07088
997.39        59.96867
997.77        60.74588
998.15         61.5326
998.54        61.89094
998.92        61.05919
999.30        59.15419
999.68        56.50107
1000.06        54.16224
1000.45        53.63606
1000.83        55.30272
1001.21        58.87109
1001.59        63.38602
1001.97        66.41618
1002.35         66.9196
1002.73        65.58787
1003.12        63.59669
1003.50        62.44666
1003.88        62.61625
1004.26        63.46061
1004.64        64.79523
1005.02        66.22138
1005.40        67.37618
1005.78        68.58271
1006.16         69.0812
1006.54        67.60512
1006.92        64.26694
1007.30        59.63374
1007.69        55.38946
1008.07        53.79012
1008.45        55.45013
1008.83        59.86815
1009.21        65.81748
1009.59        70.05709
1009.97        70.86958
1010.35        69.08101
1010.73        65.67719
1011.11        62.19207
1011.49        59.37101
1011.86        56.92537
1012.24        55.18372
1012.62        54.60795
1013.00        55.18737
1013.38        56.89467
1013.76        59.49427
1014.14        61.99817
1014.52        63.69927
1014.90         64.6341
1015.28        64.61682
1015.66        63.59788
1016.04        61.75114
1016.41        59.07927
1016.79        56.32583
1017.17        55.00925
1017.55        55.48883
1017.93        57.27375
1018.31        59.46988
1018.69        60.73786
1019.06        60.75974
1019.44        59.94479
1019.82        58.39232
1020.20        56.58574
1020.58        54.98333
1020.95        53.36642
1021.33        52.41191
1021.71        52.82246
1022.09        54.66053
1022.46        58.21198
1022.84        62.28545
1023.22        63.72157
1023.60        61.42658
1023.97        56.23416
1024.35        51.37255
1024.73        50.68022
