SpectraSmart Spectrum 2.9.0.0
--------- Device Information -----------
Spectrum Name :  反射率_0
Saving Time :  2024/04/27 00:26:18
Spectro-Module Model Name : SE2030-DUVN
Spectro-Module Serial Number : OS361AC55029948
Wavelength Start : 200
Wavelength End : 1025
Wavelength Unit : Wavelength(nm)
Spectrum Unit : Reflectance(%)
-----------Spectrum Setting ------------
Integration Time : 20ms
Average : 10
Boxcar : 0
Background removal :  enabled
linearity correction :  enabled
SC :  disabled
Intensity correction :  disabled
DWT denoise :  enabled
savitzky-golay :  disabled
FFT :  disabled
Running average :  disabled
Kalman :  disabled
High pass :  disabled
---------------BEGIN--------------------
Wavelength(nm)             Reflectance(%)
200.29               0
200.75        36.39325
201.21        32.15422
201.67        29.06594
202.13        27.21061
202.58        26.23088
203.04        26.45319
203.50        28.11111
203.96         31.0456
204.42        34.91745
204.88        39.40217
205.34        43.47298
205.80        45.90515
206.26        46.23756
206.72        44.46949
207.18         41.9664
207.64        39.91351
208.10        38.29542
208.55        37.17353
209.01        35.39971
209.47        31.87817
209.93        28.24025
210.39        26.17738
210.85        26.09378
211.31        28.35058
211.77        33.98629
212.23        46.97066
212.69        80.92271
213.14        145.7784
213.60        157.0539
214.06        121.6628
214.52        93.46071
214.98        78.63525
215.44        69.95332
215.90         62.3381
216.36        56.14361
216.81        52.89899
217.27        53.47938
217.73        59.43923
218.19        70.17772
218.65        76.69326
219.11        74.35559
219.57        67.81033
220.02         63.8279
220.48        67.40182
220.94          78.772
221.40        99.40707
221.86        128.3794
222.32        145.9414
222.77        136.1292
223.23        113.1163
223.69        91.53719
224.15        79.28463
224.61         74.6388
225.06        73.35339
225.52        74.47739
225.98        76.97095
226.44        80.33585
226.90         85.0098
227.36        89.60143
227.81        91.37572
228.27        90.14859
228.73        86.73781
229.19        83.45314
229.65        83.09422
230.10        85.73392
230.56        90.46386
231.02        95.21293
231.48        96.69603
231.93        94.38535
232.39        90.14344
232.85        85.85578
233.31        83.95955
233.77        84.71102
234.22        87.13892
234.68        90.17973
235.14        92.29501
235.60        92.90792
236.05        92.54505
236.51        91.19141
236.97        89.12228
237.43         86.6622
237.88          83.856
238.34        81.03494
238.80         79.0066
239.26        77.98488
239.71        78.33621
240.17        79.82121
240.63         82.2354
241.08        85.48486
241.54          89.209
242.00        93.37411
242.46        98.22179
242.91        104.7739
243.37        112.5529
243.83        122.2639
244.28        132.3201
244.74        136.1553
245.20        131.3747
245.66        120.8577
246.11        106.8937
246.57        90.71801
247.03        72.65196
247.48        54.09691
247.94        40.58725
248.40        34.87811
248.85        33.87584
249.31        35.33414
249.77         37.6421
250.22        40.42995
250.68        44.51603
251.14        49.57549
251.59        53.07503
252.05        53.69827
252.51        52.60686
252.96        50.74342
253.42        49.61921
253.88        49.51698
254.33        49.60858
254.79        51.53565
255.25          56.668
255.70        64.57116
256.16        74.68664
256.62        83.37537
257.07        84.88053
257.53        80.77797
257.99        74.70498
258.44        69.74374
258.90        68.76627
259.35        70.57314
259.81        74.05682
260.27        77.52145
260.72        78.89542
261.18        78.35684
261.63        76.56326
262.09        74.86179
262.55        74.01865
263.00        73.92905
263.46        74.37765
263.91        74.63806
264.37        74.25251
264.83        73.15064
265.28        71.59815
265.74        70.24096
266.19        69.45329
266.65        69.37518
267.11        69.69496
267.56        70.10671
268.02        70.15607
268.47        69.69232
268.93        68.90598
269.38        67.88673
269.84        66.85636
270.30        65.87543
270.75        64.87141
271.21        63.92722
271.66        63.08473
272.12        62.35874
272.57        61.71175
273.03        61.07749
273.48        60.30519
273.94        59.43139
274.39         58.4436
274.85        57.48208
275.31        56.54332
275.76        55.61177
276.22        54.75634
276.67        53.91942
277.13        53.17766
277.58        52.45426
278.04        51.76582
278.49        51.04786
278.95        50.37706
279.40         49.6747
279.86         49.0244
280.31        48.27176
280.77        47.36119
281.22        46.25475
281.68        45.10858
282.13        44.02396
282.59        43.27179
283.04        42.82441
283.50        42.61795
283.95        42.50979
284.41        42.31129
284.86         41.9522
285.32        41.52362
285.77        41.04224
286.22        40.61609
286.68        40.26669
287.13        39.91098
287.59        39.55576
288.04        39.15554
288.50        38.73949
288.95        38.29696
289.41        37.85524
289.86         37.3561
290.32        36.84663
290.77        36.31953
291.22        35.84537
291.68         35.5069
292.13         35.3008
292.59        35.22129
293.04        35.21393
293.50        35.22107
293.95        35.21328
294.40        35.21213
294.86        35.24817
295.31        35.35641
295.77        35.55459
296.22        35.81817
296.68         36.1261
297.13        36.42611
297.58        36.71517
298.04        37.00937
298.49         37.3333
298.95        37.74734
299.40        38.24233
299.85        38.78609
300.31        39.33142
300.76        39.79383
301.21        40.15495
301.67        40.45318
302.12        40.68003
302.58        40.89321
303.03        41.08115
303.48        41.25357
303.94        41.43893
304.39        41.63698
304.84        41.85983
305.30        42.11502
305.75        42.35067
306.20        42.54666
306.66        42.70699
307.11        42.82341
307.57        42.91866
308.02         42.9706
308.47        42.99508
308.93        42.99944
309.38        42.99613
309.83        43.06274
310.29         43.2047
310.74        43.39273
311.19        43.55239
311.65        43.55456
312.10         43.3723
312.55        43.05347
313.00        42.70054
313.46        42.46627
313.91        42.37008
314.36        42.37371
314.82        42.40312
315.27        42.34972
315.72        42.17791
316.18        41.93896
316.63        41.66272
317.08        41.41179
317.53        41.20578
317.99        41.01579
318.44        40.84387
318.89        40.68461
319.35        40.53103
319.80        40.38556
320.25        40.23285
320.70          40.046
321.16        39.81719
321.61        39.56731
322.06        39.30102
322.51        39.03379
322.97        38.76911
323.42        38.50509
323.87        38.26652
324.32        38.10001
324.78        37.99331
325.23        37.95564
325.68        37.89523
326.13        37.66883
326.59        37.25468
327.04        36.71688
327.49        36.17232
327.94        35.80936
328.39        35.66736
328.85        35.67297
329.30        35.77258
329.75        35.79165
330.20        35.67408
330.66        35.46893
331.11        35.22602
331.56        34.99757
332.01        34.80671
332.46        34.61538
332.92        34.43342
333.37        34.34296
333.82        34.33208
334.27        34.39904
334.72         34.4568
335.17        34.35187
335.63        34.05428
336.08        33.62843
336.53        33.19733
336.98        32.98004
337.43        33.03157
337.88        33.28115
338.34        33.61025
338.79        33.84831
339.24        33.91347
339.69        33.85621
340.14        33.70566
340.59        33.51603
341.05        33.32722
341.50        33.11555
341.95        32.91578
342.40        32.78531
342.85        32.73518
343.30         32.7588
343.75        32.81823
344.20        32.84344
344.66        32.81864
345.11         32.7596
345.56        32.68946
346.01        32.64825
346.46        32.65015
346.91        32.68237
347.36        32.72898
347.81        32.77174
348.26        32.79831
348.72         32.8035
349.17        32.79711
349.62        32.80862
350.07        32.83984
350.52        32.89197
350.97        32.89889
351.42        32.75757
351.87        32.46605
352.32        32.06664
352.77        31.69688
353.22        31.55605
353.67        31.67464
354.13        31.99252
354.58        32.35456
355.03        32.49828
355.48        32.35582
355.93        32.00661
356.38        31.60141
356.83        31.37087
357.28        31.36265
357.73        31.49282
358.18        31.64471
358.63        31.63232
359.08        31.40929
359.53        31.05379
359.98        30.64506
360.43        30.29103
360.88        30.02606
361.33        29.81196
361.78        29.63781
362.23        29.49266
362.68        29.36495
363.13        29.26212
363.58        29.15905
364.03        29.00889
364.48        28.80252
364.93        28.55057
365.38        28.28117
365.83        28.04732
366.28        27.86709
366.73        27.72655
367.18        27.61333
367.63        27.50643
368.08        27.39387
368.53        27.27897
368.98        27.15683
369.43        27.01705
369.88        26.85927
370.33        26.68934
370.78        26.50692
371.23        26.31614
371.68        26.12406
372.13        25.92878
372.58        25.75873
373.03        25.65743
373.48        25.62282
373.93        25.63419
374.38        25.63239
374.83         25.5233
375.28        25.29105
375.72        24.96831
376.17        24.62491
376.62        24.33453
377.07        24.12481
377.52        23.97636
377.97        23.88536
378.42        23.84677
378.87        23.84582
379.32         23.8725
379.77        23.90443
380.22        23.90668
380.67        23.86638
381.11        23.79642
381.56         23.6689
382.01        23.47521
382.46        23.23347
382.91        22.96273
383.36        22.72235
383.81        22.58861
384.26        22.56751
384.71        22.63616
385.15        22.73416
385.60        22.75961
386.05        22.68187
386.50        22.52596
386.95        22.33837
387.40        22.19497
387.85         22.1145
388.29        22.05945
388.74        22.02005
389.19         21.9296
389.64        21.77911
390.09        21.58974
390.54        21.40091
390.98          21.271
391.43         21.2274
391.88        21.24329
392.33        21.27947
392.78        21.28083
393.23        21.23426
393.67        21.14594
394.12        21.05882
394.57        20.99455
395.02        20.95623
395.47        20.92346
395.91        20.88468
396.36         20.8118
396.81         20.7146
397.26        20.61608
397.71        20.51519
398.15        20.41896
398.60        20.35792
399.05         20.2447
399.50        20.12981
399.95        20.23613
400.39        20.50137
400.84        20.54439
401.29        20.35429
401.74         20.2384
402.18        20.20725
402.63        20.05966
403.08        19.84406
403.53        19.72716
403.97        19.72806
404.42        19.80859
404.87        19.90164
405.32        19.89548
405.76        19.76614
406.21        19.56019
406.66        19.35996
407.11         19.2947
407.55        19.39438
408.00        19.60604
408.45        19.84178
408.90        19.93637
409.34        19.84002
409.79        19.61177
410.24        19.33789
410.68        19.13206
411.13        19.03051
411.58        19.00008
412.03        19.00274
412.47        18.97792
412.92        18.90251
413.37        18.80702
413.81        18.72468
414.26        18.71455
414.71         18.7777
415.15        18.89871
415.60        19.02228
416.05        19.07303
416.49         19.0306
416.94         18.9144
417.39        18.78121
417.83        18.71728
418.28        18.74197
418.73        18.82772
419.17        18.92804
419.62        18.96842
420.07        18.92994
420.51         18.8338
420.96        18.72111
421.41        18.64884
421.85        18.62424
422.30        18.62145
422.74        18.60575
423.19        18.61253
423.64        18.60401
424.08        18.47792
424.53        18.27335
424.98        18.19841
425.42        18.28739
425.87        18.39682
426.31        18.47781
426.76        18.58909
427.21        18.65633
427.65         18.4438
428.10         18.0742
428.54        17.92489
428.99        18.03916
429.44        18.29684
429.88         18.5699
430.33        18.58854
430.77        18.38195
431.22        18.33458
431.66        18.46594
432.11        18.48876
432.56        18.41516
433.00        18.48185
433.45        18.59009
433.89        18.43842
434.34        18.15147
434.78        17.66552
435.23        18.00046
435.67         18.0119
436.12        17.95981
436.57         17.9002
437.01        17.84696
437.46        17.81944
437.90        17.80923
438.35        17.76544
438.79        17.69715
439.24        17.67434
439.68        17.70256
440.13        17.76148
440.57        17.82574
441.02        17.87275
441.46        17.89082
441.91        17.83953
442.35        17.74978
442.80        17.84171
443.24        18.04363
443.69        18.03706
444.13        17.84021
444.58        17.76601
445.02         17.8235
445.47        17.84315
445.91        17.81644
446.36        17.81645
446.80         17.8384
447.24        17.86092
447.69        17.88624
448.13        17.91056
448.58        17.93351
449.02        17.95237
449.47        17.95744
449.91         17.9236
450.36        17.85575
450.80        17.76223
451.25        17.66932
451.69         17.6055
452.13        17.58075
452.58        17.58246
453.02        17.60115
453.47        17.62253
453.91        17.63945
454.36         17.6607
454.80        17.66798
455.24        17.63204
455.69        17.55605
456.13         17.4334
456.58        17.32167
457.02        17.28086
457.46        17.32625
457.91        17.43825
458.35        17.54041
458.79        17.51573
459.24        17.36389
459.68        17.12067
460.13        16.89186
460.57        16.78922
461.01        16.84871
461.46        17.01547
461.90        17.23695
462.34        17.40946
462.79        17.48944
463.23         17.5124
463.68        17.47923
464.12        17.40556
464.56        17.30454
465.01        17.19222
465.45        17.07572
465.89        17.01494
466.34        17.01416
466.78        17.05614
467.22        17.11942
467.67        17.14545
468.11        17.12778
468.55        17.07724
468.99        17.01012
469.44        16.95114
469.88        16.91201
470.32        16.88365
470.77        16.87296
471.21        16.89419
471.65        16.94418
472.10        17.02129
472.54        17.09981
472.98        17.14463
473.42        17.14786
473.87        17.12368
474.31        17.08312
474.75        17.06181
475.20        17.07215
475.64        17.09706
476.08        17.12982
476.52        17.15062
476.97        17.15453
477.41        17.15733
477.85        17.16867
478.29        17.17725
478.74        17.19932
479.18        17.27532
479.62         17.3818
480.06        17.45347
480.50        17.48427
480.95        17.48264
481.39        17.45218
481.83        17.56255
482.27        17.56389
482.72        17.67094
483.16        17.78782
483.60        17.85088
484.04        17.86325
484.48        17.87244
484.93        17.93451
485.37        17.88583
485.81        18.38979
486.25        18.23883
486.69        18.71685
487.14        18.75702
487.58        18.84679
488.02        18.90991
488.46        18.39499
488.90        18.57087
489.34        18.61117
489.79        18.78772
490.23        18.84432
490.67        19.00786
491.11        19.21658
491.55        19.15735
491.99        18.91235
492.43        18.85686
492.88        19.03115
493.32        19.24181
493.76         19.4317
494.20        19.59651
494.64        19.72195
495.08        19.78508
495.52        19.80915
495.96        19.94115
496.41        20.15762
496.85        20.17924
497.29        20.04714
497.73        20.26265
498.17        20.52498
498.61        20.72362
499.05        20.73757
499.49        20.74856
499.93        20.72078
500.37        20.77161
500.82        20.87983
501.26        20.95655
501.70        20.99769
502.14         21.0721
502.58        21.19282
503.02        21.33611
503.46        21.49559
503.90        21.67563
504.34        21.83445
504.78        21.90302
505.22        21.87138
505.66        21.76282
506.10         21.6366
506.54        21.58842
506.98        21.64389
507.42        21.77735
507.86        21.95031
508.30        22.09644
508.74        22.19216
509.18        22.25477
509.62        22.29842
510.06        22.34657
510.50        22.40558
510.94        22.46224
511.38        22.50821
511.82        22.53406
512.26        22.53896
512.70         22.5321
513.14        22.52102
513.58        22.51488
514.02        22.51827
514.46        22.52858
514.90        22.54852
515.34        22.58205
515.78        22.62663
516.22        22.67883
516.66        22.72591
517.10        22.74789
517.54         22.7402
517.98        22.70809
518.42        22.66287
518.86        22.62383
519.30        22.59763
519.74        22.58039
520.18        22.56808
520.62        22.55289
521.06        22.53355
521.50        22.51527
521.93        22.50228
522.37        22.49228
522.81        22.48806
523.25        22.48528
523.69        22.48433
524.13        22.48757
524.57        22.49165
525.01        22.49219
525.45        22.47933
525.89        22.43793
526.32        22.36478
526.76        22.27421
527.20        22.17439
527.64        22.07984
528.08        21.99779
528.52        21.92542
528.96        21.87151
529.40        21.84821
529.83        21.85343
530.27        21.88354
530.71        21.91391
531.15         21.9077
531.59        21.85618
532.03        21.76673
532.46        21.66075
532.90        21.58851
533.34        21.55834
533.78        21.54847
534.22        21.53605
534.66        21.51172
535.09        21.45468
535.53        21.32793
535.97        21.17473
536.41        21.11653
536.85         21.1678
537.28        21.27276
537.72        21.39331
538.16        21.48415
538.60        21.52657
539.04        21.53387
539.47        21.52252
539.91        21.53201
540.35        21.56954
540.79        21.62657
541.22        21.69204
541.66        21.75736
542.10        21.81668
542.54        21.87419
542.97         21.9392
543.41        22.03337
543.85        22.15583
544.29         22.3019
544.72        22.44446
545.16        22.55856
545.60        22.63632
546.04        22.68979
546.47        22.75282
546.91        22.87588
547.35        23.06467
547.79        23.30017
548.22        23.53989
548.66        23.71515
549.10        23.83918
549.53        23.92059
549.97        23.98854
550.41        24.03606
550.84        24.10131
551.28        24.23801
551.72        24.40889
552.15        24.57416
552.59        24.75445
553.03        24.60318
553.46        24.87606
553.90        24.95069
554.34        25.04859
554.77        25.15956
555.21        25.29224
555.65        25.43988
556.08        25.58634
556.52        25.71844
556.96        25.81684
557.39        25.92286
557.83        26.01486
558.27        25.95035
558.70        25.78181
559.14        25.74879
559.57        25.85342
560.01        25.95499
560.45        26.02879
560.88        26.11674
561.32        26.22306
561.75        26.30873
562.19        26.38415
562.63        26.46088
563.06        26.53521
563.50        26.60373
563.93        26.64721
564.37        26.70621
564.80        26.79413
565.24        26.84242
565.68        26.79358
566.11         27.1446
566.55        26.92453
566.98        26.93329
567.42        26.95509
567.85        27.10972
568.29         27.3913
568.72        27.71148
569.16         28.0695
569.60         28.2949
570.03        28.45877
570.47        28.66246
570.90        28.98682
571.34        28.60451
571.77        29.11511
572.21        29.23096
572.64         29.3438
573.08        29.56359
573.51        29.38193
573.95        29.57496
574.38        29.94994
574.82        30.20845
575.25        29.90587
575.69        29.97679
576.12        30.00989
576.56        29.85995
576.99        29.96444
577.42        29.98411
577.86        30.15815
578.29        30.56574
578.73        30.52428
579.16        30.34696
579.60        29.84813
580.03        29.78701
580.47        29.83453
580.90        29.92099
581.33        30.12849
581.77        30.09412
582.20        30.12642
582.64        30.14209
583.07        29.64655
583.51        29.32794
583.94        29.14128
584.37        29.05048
584.81        29.06036
585.24         29.0197
585.68        28.90841
586.11        28.89615
586.54        28.81564
586.98        28.59329
587.41        28.32327
587.85         28.4675
588.28         28.1959
588.71        28.16585
589.15        28.09927
589.58        28.12679
590.01         28.1136
590.45        28.21085
590.88        28.32434
591.31        28.18797
591.75        27.92266
592.18        27.77957
592.61        27.78621
593.05        28.44903
593.48        28.72562
593.91        28.53399
594.35         28.5675
594.78        28.16973
595.21        28.09513
595.65        28.37526
596.08        29.06525
596.51        29.26494
596.94        28.89833
597.38        28.91945
597.81        29.32183
598.24        29.60718
598.68        29.79448
599.11        29.82465
599.54        30.52548
599.97        30.49492
600.41        30.86786
600.84        30.93457
601.27        31.43741
601.70        31.52605
602.14        31.95518
602.57        32.24501
603.00        32.65631
603.43        32.70601
603.87        33.61606
604.30        33.93516
604.73        34.09922
605.16        34.22404
605.60        34.59232
606.03        34.83995
606.46        35.03104
606.89        35.40804
607.32        36.07813
607.76        36.46305
608.19        36.79452
608.62        37.05581
609.05         37.3921
609.48        37.61477
609.92        38.20468
610.35        38.42069
610.78        38.27348
611.21        38.47626
611.64        38.84204
612.07        39.28745
612.50        39.51796
612.94        39.78156
613.37        39.98222
613.80        40.22447
614.23        39.99044
614.66        40.23435
615.09        40.76172
615.52        41.09446
615.96        41.15484
616.39         41.4646
616.82        41.72974
617.25        41.69398
617.68        41.81502
618.11        42.21565
618.54        42.48877
618.97        42.66286
619.40        42.59775
619.84         42.7585
620.27        42.76884
620.70          42.973
621.13        43.20614
621.56         43.0959
621.99        42.70433
622.42         42.7864
622.85        43.35896
623.28        43.09651
623.71        43.15257
624.14        43.38126
624.57        43.32496
625.00        43.36839
625.43        43.37821
625.86        43.30138
626.29        43.16623
626.72        43.11307
627.15        42.97348
627.58        42.93683
628.01        42.89893
628.44        42.62889
628.87        42.19221
629.30         41.9674
629.73        41.95159
630.16        41.83719
630.59        41.59705
631.02         41.3648
631.45         41.1468
631.88        40.91113
632.31        40.65385
632.74        40.36135
633.17        40.02237
633.60        39.63787
634.03        39.21341
634.46        38.75158
634.89         38.2754
635.32        37.83178
635.75         37.4367
636.18        37.04107
636.61        36.65957
637.04        36.33314
637.47        36.05729
637.89        35.81503
638.32        35.56325
638.75        35.26833
639.18         34.9259
639.61        34.55163
640.04        34.18547
640.47        33.88805
640.90        33.67276
641.33        33.52286
641.76        33.41102
642.18        33.29564
642.61        33.15429
643.04        33.00556
643.47        32.86706
643.90        32.76556
644.33        32.70884
644.76        32.68854
645.18        32.69279
645.61        32.69633
646.04        32.69775
646.47        32.70773
646.90        32.74976
647.33        32.84946
647.75         33.0051
648.18        33.25237
648.61         33.5751
649.04        33.82464
649.47        33.96161
649.89        34.50475
650.32        34.58157
650.75        34.99707
651.18        35.46358
651.61        35.96495
652.03        36.47129
652.46        36.82093
652.89        37.05207
653.32        37.42874
653.74        38.09442
654.17        38.16292
654.60         38.8469
655.03        39.15419
655.46        39.39071
655.88        39.58735
656.31        42.12838
656.74        45.75502
657.16        45.49243
657.59        44.79134
658.02        42.87198
658.45        42.83451
658.87        42.86229
659.30        43.31376
659.73        43.07106
660.15        44.22429
660.58        43.76981
661.01        44.06535
661.44         44.2988
661.86        44.38216
662.29        44.31479
662.72        44.77781
663.14        44.93144
663.57        45.18212
664.00        45.32425
664.42        45.63993
664.85        46.13575
665.27        46.66266
665.70        47.10212
666.13        47.37156
666.55        47.44652
666.98        47.30405
667.41        47.03481
667.83        47.09533
668.26        47.04547
668.69        47.24224
669.11        47.50412
669.54        47.76854
669.96        48.00884
670.39        48.24298
670.82        48.47016
671.24        48.66292
671.67         48.8147
672.09        48.91217
672.52        48.98436
672.94        49.06109
673.37        49.15451
673.80        49.23884
674.22        49.32893
674.65        49.43226
675.07        49.55988
675.50        49.69719
675.92        49.82754
676.35        49.91652
676.77         49.9636
677.20        49.98032
677.62        50.00264
678.05        50.08851
678.47        50.24419
678.90        50.44776
679.32        50.66766
679.75        50.85238
680.17         50.9812
680.60        51.10748
681.02        51.22402
681.45        51.24267
681.87        51.22029
682.30        51.30978
682.72        51.51973
683.15        51.73124
683.57        51.91332
684.00        52.01061
684.42        52.06054
684.85        52.20668
685.27         52.4466
685.70        52.69719
686.12        52.88977
686.54        52.97065
686.97        52.92585
687.39        52.78708
687.82        52.61957
688.24         52.5387
688.66        52.57624
689.09        52.70874
689.51        52.89742
689.94         53.0386
690.36        53.10222
690.78        53.13856
691.21        53.20693
691.63        53.28092
692.06         53.3503
692.48        53.84734
692.90        53.91536
693.33        54.05406
693.75        54.00453
694.17        53.84179
694.60        53.67459
695.02        53.59814
695.44        53.67622
695.87        54.09289
696.29        54.68649
696.71        54.74127
697.14        54.33669
697.56        54.29111
697.98        54.62352
698.41         54.7595
698.83        54.69297
699.25        54.79557
699.68        55.00568
700.10        55.09766
700.52        55.03561
700.94        54.89742
701.37         54.7751
701.79        54.82182
702.21        55.06046
702.64        55.42145
703.06        55.80675
703.48         56.0499
703.90        56.10702
704.33        56.01693
704.75        55.85873
705.17        55.75945
705.59        55.74866
706.01         55.7193
706.44        55.70544
706.86        55.82512
707.28        56.06255
707.70        56.41593
708.12        56.79839
708.55        56.94795
708.97        56.89799
709.39        56.97531
709.81        57.17802
710.23        57.23909
710.66        57.15522
711.08        57.11258
711.50        57.10982
711.92         57.0771
712.34        57.02301
712.76        56.98037
713.19        56.96107
713.61        57.01207
714.03        57.12548
714.45        57.28543
714.87        57.47226
715.29        57.66158
715.71        57.83665
716.13        57.98753
716.56        58.09049
716.98        58.18934
717.40        58.25763
717.82        58.29656
718.24        58.28757
718.66        58.20082
719.08        58.05167
719.50        57.87278
719.92        57.72981
720.34        57.71808
720.76        57.85291
721.19        58.08029
721.61        58.37766
722.03        58.66142
722.45        58.88702
722.87        59.06515
723.29        59.15418
723.71        59.08958
724.13        58.87577
724.55        58.56295
724.97        58.27349
725.39        58.08519
725.81        58.01863
726.23        58.30848
726.65        58.76729
727.07        58.62589
727.49        59.19184
727.91        59.36439
728.33        59.54258
728.75        59.66754
729.17        59.74658
729.59        59.74753
730.01        59.68022
730.43         59.6725
730.85        59.75057
731.27        59.78509
731.69        59.70259
732.10        59.97733
732.52        59.72215
732.94        59.60202
733.36         59.3987
733.78        59.52173
734.20        59.27983
734.62        59.46358
735.04        59.90695
735.46        59.50717
735.88        60.02789
736.30        60.15447
736.72        60.40131
737.13        60.57402
737.55        60.60835
737.97        60.72886
738.39        60.87178
738.81        60.57492
739.23        60.02715
739.65          60.193
740.06        60.91512
740.48         61.2164
740.90        61.02515
741.32        60.89051
741.74        60.89646
742.16        60.91679
742.57        60.98013
742.99        61.10497
743.41        61.24337
743.83        61.30303
744.25        61.27015
744.67        61.16599
745.08        61.06883
745.50        61.08469
745.92        61.23288
746.34        61.45884
746.75        61.68872
747.17        61.75792
747.59        61.63759
748.01        61.50049
748.42        61.37105
748.84        61.04638
749.26        60.68979
749.68        60.79464
750.09         61.2854
750.51        61.68755
750.93        61.82972
751.35        61.69984
751.76        61.39897
752.18        61.04478
752.60        60.98637
753.01        61.05753
753.43        60.78079
753.85        60.72542
754.27        60.74398
754.68        60.83498
755.10         60.9701
755.52        61.12043
755.93        61.25835
756.35         61.3486
756.77        61.45607
757.18         61.6211
757.60        61.87902
758.02        62.32569
758.43        62.70996
758.85        62.43644
759.26        62.24755
759.68        60.93549
760.10        61.67115
760.51        61.98255
760.93        62.59797
761.34        62.22865
761.76        62.33383
762.18        62.28072
762.59        62.50598
763.01        62.57265
763.42         62.5205
763.84        62.49735
764.26        62.52403
764.67        62.52364
765.09        62.51385
765.50        62.44727
765.92        62.39567
766.33        62.24099
766.75        62.34678
767.16        62.26794
767.58        62.12856
768.00        62.00398
768.41        61.99176
768.83        62.32799
769.24        62.81727
769.66         62.8818
770.07        62.54912
770.49        62.13472
770.90        61.88028
771.32        62.35973
771.73         63.3542
772.15         63.7432
772.56        63.43664
772.97         63.0372
773.39        62.74764
773.80        62.63408
774.22        62.74104
774.63        63.09121
775.05        63.47404
775.46        63.60854
775.88        63.40174
776.29        62.98005
776.70        62.51403
777.12        62.29967
777.53        62.41651
777.95        62.71823
778.36        63.11377
778.77        63.39887
779.19        63.51956
779.60        63.62041
780.02        63.64161
780.43        63.45839
780.84        63.19831
781.26        62.78523
781.67        62.41262
782.09        63.03327
782.50        64.33833
782.91        64.06149
783.33        63.35579
783.74        63.02937
784.15        63.35533
784.57        63.62337
784.98        63.79698
785.39        63.34956
785.81        63.51375
786.22        63.83595
786.63        64.52873
787.04        64.87202
787.46        64.82319
787.87        64.72079
788.28        64.63423
788.70        64.52769
789.11        64.41164
789.52        64.34386
789.93        64.30275
790.35        64.20964
790.76        64.07841
791.17        63.99007
791.58        63.98647
792.00        63.96524
792.41        63.92417
792.82        64.17811
793.23        64.44606
793.65        64.22916
794.06        63.72729
794.47        63.95345
794.88         64.6456
795.29        65.41306
795.71        64.62835
796.12        64.24614
796.53        63.99081
796.94        63.90826
797.35        64.05916
797.76        64.45993
798.18        64.94019
798.59        65.21282
799.00          65.183
799.41         64.9271
799.82         64.5812
800.23        64.38194
800.64        64.39391
801.06        64.50997
801.47        64.68656
801.88        64.77032
802.29        64.71227
802.70        64.56537
803.11        64.37936
803.52         64.2266
803.93        64.15881
804.34        64.16518
804.75        64.23401
805.17        64.43562
805.58        64.80942
805.99        65.00451
806.40        65.06384
806.81        65.80589
807.22        66.86478
807.63        66.52234
808.04        65.04289
808.45        64.36781
808.86        64.66925
809.27        64.91755
809.68        64.95833
810.09        65.01514
810.50        65.03671
810.91        64.96608
811.32        64.91419
811.73        65.03019
812.14        65.33015
812.55        65.83538
812.96        66.37254
813.37         66.4253
813.78        66.00418
814.19        65.66413
814.60        65.47321
815.01        65.15756
815.42        64.74803
815.83        64.43398
816.24           64.27
816.65        64.23462
817.05         64.3453
817.46        64.60084
817.87        64.89613
818.28        65.01332
818.69        64.90929
819.10        64.61185
819.51        64.29798
819.92        64.29974
820.33        64.68675
820.74        65.34233
821.14        66.01944
821.55        66.32217
821.96        66.16202
822.37        65.66996
822.78        65.05423
823.19        64.66998
823.60        64.63519
824.00        64.86182
824.41         65.2068
824.82        65.52063
825.23        65.72113
825.64         65.8678
826.04        65.94646
826.45        65.88821
826.86        65.71432
827.27        65.43803
827.68        65.14481
828.08        65.02088
828.49        65.06221
828.90        65.23363
829.31        65.48967
829.72        65.74623
830.12        65.98141
830.53        66.16541
830.94        66.23211
831.35        66.03159
831.75         65.5761
832.16        64.90337
832.57        64.22783
832.97        63.86857
833.38         63.9007
833.79        64.21674
834.20        64.68131
834.60        65.06753
835.01        65.29948
835.42        65.47575
835.82        65.58971
836.23        65.56157
836.64        65.42626
837.04        65.16058
837.45        64.95363
837.86        65.18047
838.26        65.91892
838.67        67.03358
839.08        68.14192
839.48         68.5102
839.89        67.95541
840.29        66.73254
840.70        65.43353
841.11        64.74574
841.51        64.83842
841.92        65.48563
842.33        66.40022
842.73        67.06499
843.14        67.19329
843.54        66.99898
843.95        66.65631
844.35        66.48923
844.76         66.5763
845.17        66.80661
845.57        67.06797
845.98        67.16504
846.38        67.06525
846.79        66.82854
847.19        66.57313
847.60        66.45653
848.00        66.52251
848.41        66.68564
848.81        66.85629
849.22        66.81355
849.62        66.54977
850.03         66.1353
850.43        65.69083
850.84        65.33688
851.24        65.16932
851.65        65.10007
852.05        65.21982
852.46        65.56599
852.86        66.09864
853.27        66.76734
853.67        67.34089
854.07        67.62029
854.48        67.54924
854.88        67.20045
855.29         66.6638
855.69        66.24747
856.10        65.99714
856.50        65.92342
856.90        65.92145
857.31        65.82414
857.71        65.63735
858.12        65.35896
858.52        65.12216
858.92        65.02589
859.33        65.08096
859.73         65.2952
860.13        65.50958
860.54        65.49001
860.94        65.22831
861.34        64.77303
861.75        64.32372
862.15        64.25061
862.55        64.60878
862.96        65.24961
863.36        65.96802
863.76        66.33344
864.17        66.21075
864.57        65.76547
864.97        65.13032
865.38        64.52194
865.78        64.05771
866.18        63.67334
866.58        63.42244
866.99        63.39698
867.39        63.62089
867.79        64.07336
868.19        64.62292
868.60        65.03292
869.00        65.26682
869.40        65.33148
869.80        65.30949
870.21        65.37518
870.61         65.6221
871.01        65.93717
871.41        66.15466
871.81        66.04626
872.22        65.58079
872.62        64.83854
873.02        64.05313
873.42        63.61293
873.82        63.63119
874.22        64.00406
874.63        64.47929
875.03        64.66887
875.43        64.45813
875.83        63.96215
876.23        63.40931
876.63        63.15157
877.03        63.27454
877.44        63.64407
877.84        64.06066
878.24        64.21627
878.64        63.98662
879.04        63.34064
879.44        62.60497
879.84        62.37834
880.24        62.73785
880.64        63.46682
881.04        64.17671
881.44        64.25968
881.84        63.59153
882.24        62.39614
882.65        61.15041
883.05        60.58609
883.45        60.88268
883.85        61.81612
884.25        63.00256
884.65        63.78785
885.05          63.959
885.45        63.70786
885.85        63.28368
886.25        63.06562
886.65        63.16312
887.05        63.44629
887.45        63.76654
887.85        63.89954
888.25        63.78278
888.65        63.50592
889.04        63.20726
889.44        63.11271
889.84        63.25005
890.24        63.53336
890.64        63.81249
891.04        63.84918
891.44        63.60169
891.84        63.18967
892.24        62.74004
892.64        62.42849
893.04        62.32181
893.44        62.37157
893.83        62.60751
894.23        63.02541
894.63        63.60106
895.03        64.29057
895.43         64.9735
895.83        65.45848
896.23        65.67101
896.63        65.63006
897.02        65.35713
897.42        64.94054
897.82        64.44032
898.22        63.88667
898.62         63.3441
899.01        62.88531
899.41        62.55548
899.81        62.34543
900.21        62.26899
900.61        62.33162
901.00        62.50809
901.40        62.76794
901.80        63.02651
902.20        63.15152
902.59         63.1203
902.99        62.96248
903.39         62.7333
903.79        62.53033
904.18         62.3847
904.58        62.27245
904.98        62.24136
905.38        62.36801
905.77        62.65453
906.17        63.10717
906.57        63.55798
906.96        63.72297
907.36        63.53556
907.76        63.08332
908.15        62.65549
908.55        62.69902
908.95        63.30158
909.34        64.31261
909.74        65.35536
910.14        65.89512
910.53        65.75418
910.93         65.1282
911.33        64.22887
911.72        63.37363
912.12         62.7553
912.52        62.30318
912.91        62.01285
913.31        61.88855
913.70        61.91948
914.10        62.09779
914.49        62.46231
914.89        62.97284
915.29        63.59847
915.68        64.30437
916.08        64.88521
916.47        65.09309
916.87        64.88683
917.26        64.30942
917.66        63.64202
918.05        63.18527
918.45        63.02609
918.84        63.14613
919.24        63.33356
919.64        63.33991
920.03        63.12157
920.42        62.73997
920.82        62.44842
921.21         62.5781
921.61        63.16416
922.00        64.11091
922.40        65.08801
922.79        65.65028
923.19        65.62744
923.58        65.19157
923.98        64.58096
924.37        64.09292
924.77        63.84085
925.16        63.69173
925.55        63.65543
925.95        63.73047
926.34         63.8992
926.74        64.16515
927.13        64.35659
927.52        64.11784
927.92        63.46343
928.31        62.50838
928.70        61.57949
929.10        61.15562
929.49        61.32669
929.89        61.89363
930.28        62.73589
930.67        63.52083
931.07        64.07177
931.46        64.54838
931.85        64.77139
932.24        64.51274
932.64        63.82571
933.03        62.73727
933.42        61.72623
933.82        61.49814
934.21        62.17063
934.60        63.60624
934.99         65.2328
935.39        65.99371
935.78          65.639
936.17        64.39104
936.56        62.88342
936.96        62.12241
937.35        62.35365
937.74        63.25991
938.13        64.29316
938.53        64.60769
938.92        64.00653
939.31        62.82259
939.70        61.50777
940.09        60.68035
940.49        60.47637
940.88        60.73417
941.27        61.24123
941.66        61.61666
942.05        61.73687
942.44        61.75784
942.84        61.81637
943.23         62.0991
943.62        62.64441
944.01        63.29633
944.40        63.98836
944.79        64.66013
945.18        65.22964
945.57        65.69091
945.97        65.82561
946.36        65.38488
946.75        64.34527
947.14        62.90218
947.53        61.40847
947.92        60.33952
948.31        59.82381
948.70        59.76003
949.09         60.0506
949.48        60.49523
949.87        60.99036
950.26        61.57096
950.65        62.16869
951.04        62.67999
951.43        63.05244
951.82         63.2364
952.21        63.26489
952.60        63.23635
952.99        63.19626
953.38        63.16429
953.77        63.09312
954.16        62.90223
954.55        62.57542
954.94        62.10207
955.33        61.66477
955.72        61.56739
956.11        61.86746
956.50        62.51913
956.89        63.09618
957.28        62.87973
957.66        61.75554
958.05        60.02045
958.44        58.33549
958.83        57.64998
959.22        58.12457
959.61        59.47099
960.00        61.10518
960.39        61.93212
960.78        61.60579
961.16        60.48563
961.55        59.11728
961.94        58.21052
962.33         57.9717
962.72        58.20027
963.11        58.72537
963.49        59.25513
963.88        59.57941
964.27        59.80229
964.66        60.04632
965.04        60.51893
965.43        61.20046
965.82        62.02213
966.21        62.68917
966.60        62.68437
966.98        61.88933
967.37        60.59659
967.76        59.26826
968.15        58.45586
968.53        58.28578
968.92         58.6358
969.31        59.29173
969.69        59.81503
970.08        59.95747
970.47        59.83144
970.86        59.71288
971.24        60.01658
971.63        60.82217
972.02        62.01083
972.40         63.1777
972.79        63.33363
973.17        62.31828
973.56         60.4973
973.95        58.62938
974.33        57.66846
974.72        57.80124
975.11        58.78033
975.49        60.12479
975.88        60.83378
976.26         60.6122
976.65        59.69158
977.04        58.60585
977.42        58.15478
977.81        58.49231
978.19         59.3441
978.58        60.35075
978.96        60.90772
979.35        60.81108
979.74         60.2593
980.12        59.59789
980.51        59.21607
980.89        59.37696
981.28        59.90995
981.66        60.57581
982.05        61.01384
982.43        61.15744
982.82        61.06951
983.20        61.10334
983.59        61.79222
983.97        63.29761
984.35        65.38304
984.74        67.29319
985.12        68.02482
985.51        67.27675
985.89        65.43414
986.28        63.31112
986.66         62.0391
987.04        61.97019
987.43        62.75533
987.81        63.98095
988.20        64.72179
988.58         64.6512
988.96         64.0027
989.35        63.05671
989.73        62.18333
990.12        61.49184
990.50        60.89698
990.88        60.26896
991.27        59.47403
991.65        58.55433
992.03        57.63479
992.42         57.0346
992.80        57.13577
993.18        57.99111
993.56        59.48126
993.95        61.11177
994.33        62.09986
994.71        62.06867
995.10         61.3415
995.48        60.34754
995.86         59.8418
996.24        60.01334
996.63        60.47386
997.01        61.27552
997.39          62.166
997.77          62.925
998.15        63.73301
998.54        64.10654
998.92        63.19328
999.30        61.10516
999.68        58.17627
1000.06        55.54594
1000.45        54.84423
1000.83        56.45032
1001.21        59.99648
1001.59         64.4474
1001.97        67.21432
1002.35        67.24984
1002.73        65.42599
1003.12        62.90969
1003.50        61.11439
1003.88        60.53943
1004.26        60.53379
1004.64        61.34373
1005.02        63.39956
1005.40        66.47905
1005.78        70.54935
1006.16        73.94716
1006.54        74.05968
1006.92        70.67867
1007.30        64.71375
1007.69        58.58396
1008.07        55.61709
1008.45         56.7468
1008.83        61.34002
1009.21        67.70332
1009.59        71.58619
1009.97        71.01939
1010.35        67.23769
1010.73        62.33772
1011.11        59.30941
1011.49        58.81522
1011.86        59.75484
1012.24        61.12455
1012.62        61.66171
1013.00        61.03172
1013.38        59.63464
1013.76        57.93735
1014.14         56.9649
1014.52        57.19924
1014.90        58.26547
1015.28        59.46745
1015.66        59.88423
1016.04        59.34459
1016.41        58.18615
1016.79        56.89355
1017.17        56.36877
1017.55        56.86492
1017.93        57.99974
1018.31        59.38172
1018.69        60.52553
1019.06        61.31223
1019.44        61.92911
1019.82        62.29384
1020.20        62.20807
1020.58        61.65076
1020.95        60.59322
1021.33        59.58354
1021.71        59.14816
1022.09        59.36732
1022.46        60.33219
1022.84        61.48868
1023.22        61.53256
1023.60        60.10244
1023.97        57.55314
1024.35        55.44872
1024.73        55.46034
