SpectraSmart Spectrum 2.9.0.0
--------- Device Information -----------
Spectrum Name :  反射率_0
Saving Time :  2024/04/27 00:29:11
Spectro-Module Model Name : SE2030-DUVN
Spectro-Module Serial Number : OS361AC55029948
Wavelength Start : 200
Wavelength End : 1025
Wavelength Unit : Wavelength(nm)
Spectrum Unit : Reflectance(%)
-----------Spectrum Setting ------------
Integration Time : 20ms
Average : 10
Boxcar : 0
Background removal :  enabled
linearity correction :  enabled
SC :  disabled
Intensity correction :  disabled
DWT denoise :  enabled
savitzky-golay :  disabled
FFT :  disabled
Running average :  disabled
Kalman :  disabled
High pass :  disabled
---------------BEGIN--------------------
Wavelength(nm)             Reflectance(%)
200.29               0
200.75        43.84367
201.21        41.36237
201.67        41.18042
202.13        42.63747
202.58         45.5258
203.04          51.084
203.50        59.79134
203.96        70.08815
204.42        79.84328
204.88        87.77921
205.34        92.61223
205.80        94.42727
206.26         93.5507
206.72        89.82028
207.18        85.21088
207.64        81.09995
208.10        77.34123
208.55        74.24571
209.01        70.54503
209.47        66.32748
209.93        63.85921
210.39        63.67036
210.85        65.82859
211.31        71.54546
211.77        83.27904
212.23        108.9283
212.69         172.438
213.14         280.708
213.60        280.1273
214.06        206.4791
214.52        154.9334
214.98        130.2256
215.44        117.7705
215.90        108.5884
216.36        102.6478
216.81        101.6981
217.27         106.619
217.73        120.6549
218.19        141.6143
218.65        150.1015
219.11        139.2675
219.57        121.6258
220.02        110.2023
220.48        112.8666
220.94        128.9979
221.40        159.9937
221.86        206.1625
222.32        240.7641
222.77        236.7325
223.23        210.9724
223.69        181.6074
224.15        159.1358
224.61        143.7385
225.06        131.5852
225.52        124.3068
225.98        122.9919
226.44        126.7244
226.90        134.7403
227.36        143.9509
227.81        148.6443
228.27        147.8941
228.73        143.4376
229.19         138.838
229.65        138.4035
230.10        142.2984
230.56        149.0346
231.02         155.663
231.48        157.6256
231.93        154.2376
232.39        148.2865
232.85        142.3398
233.31         139.689
233.77        140.7135
234.22        144.0167
234.68        148.4757
235.14        152.4477
235.60        155.2182
236.05        157.5137
236.51        158.5407
236.97         157.238
237.43        153.4387
237.88        147.3658
238.34        140.5275
238.80        135.9593
239.26        134.6302
239.71        137.1507
240.17        142.1423
240.63         146.342
241.08        147.8276
241.54        146.0412
242.00        143.7583
242.46        146.7387
242.91        159.2848
243.37        182.8401
243.83         218.132
244.28        249.0726
244.74        249.9477
245.20        220.2827
245.66         181.688
246.11        152.8226
246.57        134.6063
247.03        121.8911
247.48        111.0085
247.94        99.26779
248.40        88.93047
248.85        81.71394
249.31        78.03368
249.77        76.99792
250.22        77.84973
250.68        80.39201
251.14        84.28633
251.59        87.62341
252.05        89.25655
252.51        90.16926
252.96        90.40436
253.42        90.93065
253.88        91.85055
254.33        92.25718
254.79        94.36587
255.25        99.84412
255.70        108.1988
256.16        118.8986
256.62        127.7825
257.07        128.4035
257.53        122.9854
257.99         115.653
258.44        109.7599
258.90         108.706
259.35        110.9015
259.81        115.1848
260.27        119.5248
260.72        121.4627
261.18        121.2409
261.63        119.3989
262.09        117.6014
262.55        116.6361
263.00         116.331
263.46        116.5807
263.91        116.4184
264.37        115.3641
264.83        113.3544
265.28        110.7383
265.74        108.4353
266.19        106.9482
266.65        106.4712
267.11         106.555
267.56        106.8067
268.02        106.6559
268.47        105.9057
268.93        104.8516
269.38        103.5033
269.84        101.9996
270.30         100.412
270.75        98.67009
271.21        97.12801
271.66        96.21036
272.12        95.95204
272.57        96.12009
273.03        96.24731
273.48        95.51406
273.94        93.88281
274.39        91.60864
274.85        89.21881
275.31        87.14351
275.76        85.48287
276.22        84.19596
276.67        83.17321
277.13        82.51999
277.58        82.03895
278.04        81.72833
278.49        81.30525
278.95        80.59388
279.40        79.44521
279.86        78.10207
280.31        76.48824
280.77        74.77003
281.22        72.95107
281.68        71.19125
282.13        69.62182
282.59        68.63977
283.04        68.16177
283.50        68.09889
283.95        68.13472
284.41        67.82634
284.86        67.04507
285.32        65.99786
285.77        64.82189
286.22        63.84556
286.68         63.1403
287.13        62.53214
287.59        61.99858
288.04        61.41634
288.50        60.80298
288.95        60.15618
289.41         59.4971
289.86          58.702
290.32        57.84042
290.77        56.90363
291.22        56.02291
291.68        55.36506
292.13        54.93127
292.59        54.69742
293.04        54.57058
293.50        54.44569
293.95        54.27018
294.40        54.08045
294.86        53.91452
295.31        53.81018
295.77        53.79456
296.22        53.83442
296.68        53.91443
297.13         53.9808
297.58        54.03521
298.04        54.09545
298.49        54.19146
298.95        54.39956
299.40        54.70831
299.85        55.08493
300.31        55.46783
300.76        55.73667
301.21        55.87099
301.67        55.92028
302.12        55.89401
302.58        55.89961
303.03        55.92389
303.48          55.971
303.94        56.03968
304.39        56.06608
304.84        56.05863
305.30        56.04239
305.75        56.00587
306.20        56.00657
306.66        56.06634
307.11        56.15026
307.57        56.22441
308.02        56.16011
308.47        55.96389
308.93        55.67949
309.38        55.39524
309.83        55.31947
310.29        55.47526
310.74        55.78036
311.19        56.06855
311.65        56.06341
312.10        55.70218
312.55        55.08835
313.00        54.39926
313.46        53.89521
313.91        53.62608
314.36        53.52791
314.82        53.50406
315.27        53.41367
315.72        53.20727
316.18        52.95095
316.63        52.67854
317.08        52.46054
317.53        52.31146
317.99        52.18554
318.44        52.06513
318.89        51.91623
319.35         51.7249
319.80         51.5058
320.25        51.25711
320.70        50.97418
321.16         50.6607
321.61         50.3387
322.06        50.02187
322.51        49.74022
322.97        49.49412
323.42        49.27394
323.87        49.08838
324.32        48.95827
324.78        48.85856
325.23        48.81574
325.68        48.72278
326.13        48.41764
326.59        47.88701
327.04        47.20798
327.49        46.55201
327.94        46.19511
328.39        46.19144
328.85        46.43856
329.30        46.82503
329.75        47.04131
330.20        46.98199
330.66        46.72129
331.11        46.36623
331.56        46.05873
332.01        45.85455
332.46        45.69386
332.92        45.55065
333.37        45.46465
333.82        45.40481
334.27        45.38765
334.72        45.37367
335.17        45.27874
335.63        45.08677
336.08        44.85257
336.53        44.62289
336.98         44.4963
337.43         44.5025
337.88         44.5995
338.34         44.7747
338.79        45.05293
339.24        45.38663
339.69         45.7591
340.14        46.05651
340.59        46.10225
341.05        45.88211
341.50        45.45218
341.95        44.96234
342.40        44.64435
342.85        44.56578
343.30        44.67012
343.75        44.88036
344.20        45.06436
344.66         45.1732
345.11        45.23368
345.56        45.26821
346.01        45.31109
346.46        45.37274
346.91        45.43926
347.36        45.46781
347.81        45.40547
348.26        45.24936
348.72        45.01824
349.17        44.79965
349.62        44.74675
350.07        44.88179
350.52        45.16326
350.97        45.43784
351.42        45.45691
351.87        45.17614
352.32        44.68242
352.77        44.16172
353.22        43.88641
353.67        43.91409
354.13        44.16149
354.58        44.47609
355.03        44.59991
355.48        44.45811
355.93        44.12516
356.38        43.74341
356.83        43.52427
357.28        43.50846
357.73        43.62113
358.18        43.71982
358.63        43.58199
359.08        43.16677
359.53        42.56666
359.98        41.93697
360.43        41.49876
360.88        41.29906
361.33        41.26268
361.78        41.28025
362.23        41.18016
362.68        40.91611
363.13        40.54873
363.58        40.14304
364.03        39.79398
364.48        39.52827
364.93        39.30849
365.38        39.11008
365.83        38.90076
366.28        38.67179
366.73        38.44408
367.18        38.22178
367.63        38.00474
368.08        37.79332
368.53        37.57974
368.98        37.37439
369.43         37.1959
369.88        37.04481
370.33        36.91774
370.78        36.78413
371.23         36.5953
371.68        36.34344
372.13        36.04127
372.58        35.73918
373.03        35.51715
373.48        35.38815
373.93        35.32436
374.38        35.26266
374.83        35.10418
375.28        34.82666
375.72        34.45602
376.17        34.07182
376.62        33.74847
377.07        33.51425
377.52        33.35892
377.97        33.24619
378.42        33.12116
378.87        32.97102
379.32        32.80112
379.77        32.67361
380.22        32.68026
380.67        32.81957
381.11        33.06302
381.56        33.25667
382.01        33.17851
382.46        32.79847
382.91        32.22182
383.36        31.62575
383.81        31.25186
384.26        31.14505
384.71        31.22172
385.15        31.40017
385.60        31.53889
386.05        31.57836
386.50        31.56069
386.95        31.46977
387.40        31.28245
387.85        31.01746
388.29        30.66833
388.74         30.3437
389.19        30.12309
389.64        30.01775
390.09         29.9986
390.54        30.01512
390.98        29.97235
391.43        29.86432
391.88        29.71998
392.33        29.56743
392.78        29.44491
393.23        29.36359
393.67        29.29403
394.12        29.26146
394.57        29.24896
395.02        29.24992
395.47        29.25774
395.91        29.27073
396.36        29.26974
396.81        29.26259
397.26        29.25266
397.71        29.22293
398.15         29.1698
398.60        29.12877
399.05        28.98314
399.50        28.78956
399.95        28.83983
400.39        29.04818
400.84         28.8916
401.29        28.41288
401.74        28.13254
402.18        28.09048
402.63        27.98311
403.08        27.83701
403.53        27.81526
403.97        27.91523
404.42        28.09395
404.87        28.25787
405.32        28.25515
405.76        28.05729
406.21        27.72763
406.66        27.38572
407.11        27.22108
407.55        27.28431
408.00          27.509
408.45         27.7941
408.90        27.94094
409.34        27.88503
409.79        27.69443
410.24        27.46048
410.68        27.30494
411.13        27.26534
411.58         27.2977
412.03        27.34962
412.47        27.33946
412.92        27.23686
413.37        27.08729
413.81        26.93521
414.26        26.86207
414.71        26.87333
415.15        26.95267
415.60         27.0497
416.05        27.10668
416.49        27.10549
416.94        27.05954
417.39        27.00298
417.83        26.98526
418.28        27.01661
418.73        27.07426
419.17        27.13474
419.62        27.16346
420.07        27.15089
420.51        27.10527
420.96        27.04185
421.41        26.97611
421.85        26.90618
422.30        26.81731
422.74         26.7071
423.19        26.69154
423.64        26.72984
424.08        26.65586
424.53        26.47826
424.98        26.41556
425.42        26.49733
425.87         26.5414
426.31        26.53886
426.76        26.66875
427.21        26.85175
427.65        26.71756
428.10        26.37546
428.54        26.29795
428.99        26.52277
429.44        26.82702
429.88        27.08789
430.33        27.15179
430.77         27.0152
431.22         26.9167
431.66        26.88263
432.11        26.80876
432.56        26.74106
433.00         26.6974
433.45        26.61814
433.89        26.69385
434.34        26.92404
434.78        26.33416
435.23         26.3944
435.67        26.31429
436.12        26.45912
436.57        26.42787
437.01        26.23889
437.46        26.16117
437.90        26.19373
438.35        26.19198
438.79        26.14235
439.24        26.11404
439.68        26.10411
440.13        26.09872
440.57        26.09735
441.02        26.10887
441.46        26.12693
441.91        26.12072
442.35        26.08081
442.80         26.1677
443.24        26.31133
443.69        26.26928
444.13        26.07456
444.58        26.01595
445.02         26.1049
445.47         26.1891
445.91        26.24605
446.36        26.31712
446.80        26.38669
447.24        26.44346
447.69        26.48145
448.13        26.48163
448.58        26.44871
449.02        26.38468
449.47        26.30907
449.91        26.23852
450.36        26.18968
450.80        26.15629
451.25        26.14235
451.69        26.13279
452.13         26.1282
452.58        26.12678
453.02        26.13309
453.47        26.15749
453.91        26.19881
454.36        26.25656
454.80        26.30073
455.24        26.28541
455.69        26.21231
456.13        26.07776
456.58        25.95396
457.02        25.90908
457.46        25.96501
457.91        26.09878
458.35        26.22343
458.79        26.21067
459.24        26.06264
459.68        25.81338
460.13        25.58234
460.57        25.48369
461.01        25.56033
461.46        25.74937
461.90        25.99727
462.34        26.19468
462.79        26.29213
463.23         26.3283
463.68        26.29664
464.12        26.20543
464.56        26.06817
465.01         25.9182
465.45        25.75997
465.89        25.67225
466.34        25.66324
466.78        25.70905
467.22        25.79613
467.67        25.86975
468.11        25.92537
468.55        25.96632
468.99        25.98959
469.44        25.98868
469.88        25.96963
470.32        25.92952
470.77        25.89382
471.21        25.90994
471.65        25.98137
472.10        26.09536
472.54          26.212
472.98        26.27225
473.42        26.26096
473.87        26.21555
474.31         26.1443
474.75        26.05795
475.20        25.98998
475.64        25.98336
476.08        26.02655
476.52        26.03624
476.97        26.00539
477.41        25.98978
477.85        26.01112
478.29        26.04757
478.74        26.12074
479.18        26.28944
479.62        26.50147
480.06        26.62774
480.50        26.65583
480.95        26.61656
481.39        26.52851
481.83        26.64594
482.27        26.63519
482.72        26.76612
483.16        26.92443
483.60        27.02465
484.04        27.04077
484.48        27.13631
484.93        27.34496
485.37         27.0823
485.81         27.3101
486.25        27.35033
486.69        27.41849
487.14         27.6474
487.58        27.67597
488.02        27.77627
488.46        27.59049
488.90        27.71974
489.34        27.89626
489.79        28.06435
490.23         28.1317
490.67        28.25715
491.11        28.42612
491.55        28.47385
491.99        28.43387
492.43        28.47375
492.88        28.61183
493.32        28.76711
493.76        28.91263
494.20         29.0582
494.64        29.20378
495.08        29.28922
495.52        29.32687
495.96        29.52691
496.41        29.83222
496.85        29.79037
497.29        29.47061
497.73        29.67355
498.17        29.96748
498.61          30.135
499.05        30.04364
499.49         30.0948
499.93        30.21872
500.37        30.44352
500.82        30.69805
501.26         30.8822
501.70        30.97171
502.14        31.02903
502.58        31.09227
503.02        31.18923
503.46        31.32858
503.90        31.49902
504.34        31.65741
504.78        31.73215
505.22        31.71074
505.66        31.62369
506.10         31.5184
506.54        31.46805
506.98        31.49472
507.42        31.57574
507.86         31.6953
508.30        31.82587
508.74        31.95154
509.18        32.07916
509.62        32.19123
510.06        32.25976
510.50        32.28128
510.94        32.26025
511.38        32.22528
511.82        32.22556
512.26        32.27476
512.70         32.3635
513.14        32.46704
513.58        32.54281
514.02        32.57906
514.46          32.586
514.90        32.58765
515.34        32.62273
515.78        32.69678
516.22        32.79323
516.66        32.87852
517.10        32.90125
517.54        32.85186
517.98        32.75066
518.42        32.63145
518.86        32.54743
519.30        32.51424
519.74        32.51585
520.18        32.53617
520.62          32.548
521.06        32.54341
521.50        32.53598
521.93        32.52755
522.37        32.50845
522.81         32.4847
523.25        32.45236
523.69        32.42826
524.13        32.44241
524.57        32.49294
525.01        32.56271
525.45        32.61912
525.89        32.60938
526.32        32.51964
526.76        32.38174
527.20        32.21309
527.64        32.04407
528.08        31.89231
528.52        31.75183
528.96        31.64855
529.40        31.62073
529.83        31.66708
530.27        31.77747
530.71        31.89579
531.15        31.93389
531.59        31.87127
532.03        31.72907
532.46        31.55402
532.90        31.44605
533.34        31.42196
533.78        31.43485
534.22        31.44613
534.66        31.43485
535.09        31.36648
535.53        31.19496
535.97        30.96665
536.41        30.83134
536.85        30.81185
537.28        30.83727
537.72        30.89771
538.16        31.00062
538.60        31.13113
539.04        31.28332
539.47        31.42493
539.91         31.5268
540.35        31.57743
540.79        31.58813
541.22        31.58281
541.66        31.61325
542.10        31.68982
542.54        31.79962
542.97        31.92737
543.41        32.06171
543.85         32.1913
544.29        32.32442
544.72        32.45128
545.16        32.57758
545.60         32.6984
546.04        32.81523
546.47        32.94118
546.91        33.09302
547.35        33.26968
547.79        33.46765
548.22        33.66467
548.66        33.81893
549.10         33.9633
549.53        34.09262
549.97        34.22681
550.41        34.32153
550.84        34.41824
551.28        34.60221
551.72        34.82579
552.15        35.04082
552.59        35.27869
553.03        35.03952
553.46        35.39621
553.90        35.45941
554.34         35.5453
554.77         35.6447
555.21        35.77515
555.65        35.93403
556.08        36.10299
556.52        36.26355
556.96        36.38924
557.39        36.53849
557.83        36.67847
558.27         36.6047
558.70        36.38739
559.14        36.35975
559.57        36.52092
560.01        36.67128
560.45        36.77061
560.88        36.87119
561.32        36.98029
561.75        37.04867
562.19        37.10225
562.63        37.17356
563.06        37.26351
563.50        37.36521
563.93        37.44608
564.37        37.55351
564.80        37.69862
565.24        37.78134
565.68        37.72199
566.11        38.21664
566.55        37.89522
566.98        37.90191
567.42        37.90596
567.85        38.01675
568.29        38.25624
568.72        38.56504
569.16        38.93168
569.60        39.30626
570.03        39.33258
570.47        39.56929
570.90         39.9767
571.34        39.46005
571.77         39.9561
572.21        40.08915
572.64        40.11938
573.08        40.22601
573.51        40.34154
573.95        40.47646
574.38         40.7152
574.82        40.61877
575.25        40.54377
575.69        40.57859
576.12        40.84663
576.56        40.62394
576.99        40.78494
577.42        40.83357
577.86         40.9366
578.29        41.22548
578.73        40.92094
579.16        40.76597
579.60        40.48017
580.03        40.55006
580.47        40.43943
580.90        40.70583
581.33        40.50546
581.77        41.06924
582.20        40.30539
582.64        40.50705
583.07        40.08096
583.51        39.90601
583.94        39.81942
584.37         39.8793
584.81        40.01945
585.24        39.94219
585.68        39.74557
586.11        39.26116
586.54        39.44707
586.98        39.18631
587.41        38.74503
587.85        39.11607
588.28        38.82709
588.71        39.00254
589.15         38.8363
589.58        38.93751
590.01        38.84654
590.45         38.9005
590.88        38.98222
591.31        38.86522
591.75         38.6454
592.18        38.57658
592.61        38.67743
593.05         39.2459
593.48        39.38331
593.91        39.44437
594.35        39.27887
594.78        39.01461
595.21        38.99294
595.65         39.3074
596.08        40.09113
596.51        40.09333
596.94        40.19564
597.38        40.31697
597.81        40.75044
598.24        40.91547
598.68        40.91199
599.11        41.29164
599.54        42.05346
599.97        41.77368
600.41        42.26979
600.84        42.19879
601.27        42.70009
601.70        43.09192
602.14         43.4721
602.57        43.71859
603.00        43.91931
603.43        43.91416
603.87        44.89199
604.30        45.25394
604.73        45.43195
605.16        45.66415
605.60        45.97486
606.03        46.30996
606.46        46.66806
606.89        46.72961
607.32        47.69312
607.76        47.87587
608.19        48.33518
608.62        48.60819
609.05        49.00322
609.48        49.25575
609.92         49.9856
610.35         50.1458
610.78        50.06646
611.21        50.08316
611.64        50.59884
612.07         51.0454
612.50        51.21241
612.94        51.48133
613.37        51.75101
613.80        51.86107
614.23        51.63805
614.66         51.8797
615.09        52.48071
615.52        52.83034
615.96        52.86629
616.39        53.11029
616.82        53.61309
617.25        53.34342
617.68        53.67242
618.11         53.8622
618.54        54.28028
618.97        54.56361
619.40        54.68703
619.84        54.91697
620.27        54.98791
620.70        55.06842
621.13        55.08102
621.56        54.91391
621.99        54.64099
622.42        54.65237
622.85         54.8186
623.28        54.77405
623.71        55.00028
624.14        54.81292
624.57        55.28098
625.00        55.19698
625.43        55.23131
625.86         55.1413
626.29        55.09296
626.72            54.8
627.15        54.86545
627.58        54.76503
628.01        54.61488
628.44        54.56197
628.87        54.18057
629.30        53.90903
629.73        53.66009
630.16        53.46265
630.59        53.32295
631.02        53.25155
631.45         53.2008
631.88        53.06472
632.31        52.81419
632.74         52.4718
633.17        52.06528
633.60        51.64416
634.03        51.23079
634.46         50.8144
634.89         50.3858
635.32        49.94181
635.75        49.49004
636.18        48.99038
636.61        48.49801
637.04        48.12283
637.47        47.87384
637.89        47.70807
638.32        47.54621
638.75        47.30707
639.18        46.96946
639.61        46.56602
640.04        46.15052
640.47        45.80473
640.90        45.55309
641.33        45.37381
641.76        45.24736
642.18        45.14781
642.61        45.04984
643.04        44.96876
643.47        44.91078
643.90        44.88241
644.33        44.88327
644.76        44.90966
645.18        44.94758
645.61        44.96465
646.04        44.96743
646.47        44.97482
646.90        45.02324
647.33        45.16335
647.75        45.38467
648.18        45.69984
648.61        46.10424
649.04        46.42618
649.47        46.59358
649.89        47.33842
650.32        47.38618
650.75        47.61462
651.18        47.72526
651.61        48.03274
652.03        48.56818
652.46        49.07235
652.89        49.49553
653.32        50.01035
653.74        50.75354
654.17        50.76294
654.60         51.5054
655.03        52.18649
655.46        51.73306
655.88        51.80264
656.31         54.9053
656.74        56.39537
657.16        55.61691
657.59        54.78236
658.02         54.4492
658.45         54.9208
658.87        55.28441
659.30        55.50549
659.73         55.7981
660.15        56.87518
660.58        56.28907
661.01        56.45425
661.44        56.68316
661.86        56.70641
662.29        56.52919
662.72        57.12519
663.14        57.35753
663.57        57.54254
664.00        57.44812
664.42        57.65186
664.85        58.17457
665.27        58.73221
665.70        59.18641
666.13        59.37144
666.55        59.44687
666.98        59.25105
667.41        58.93987
667.83        58.94658
668.26        58.87871
668.69        59.04675
669.11        59.30554
669.54        59.59896
669.96        59.89508
670.39        60.29226
670.82        60.71644
671.24        60.80696
671.67        60.64037
672.09        60.70995
672.52        61.01953
672.94        61.14514
673.37         61.0891
673.80        61.09195
674.22        61.17461
674.65        61.22386
675.07        61.25608
675.50        61.28767
675.92        61.33633
676.35        61.42126
676.77        61.54502
677.20        61.68785
677.62        61.83612
678.05        61.97222
678.47        62.08615
678.90        62.18928
679.32        62.27067
679.75          62.327
680.17        62.35769
680.60        62.36773
681.02        62.39364
681.45        62.48055
681.87        62.64812
682.30        62.89661
682.72        63.18508
683.15        63.35371
683.57        63.41511
684.00        63.49098
684.42         63.6228
684.85        63.79081
685.27        63.99529
685.70        64.26948
686.12        64.53503
686.54        64.67551
686.97        64.66725
687.39        64.50751
687.82        64.34879
688.24        64.25317
688.66        64.28631
689.09        64.42011
689.51        64.60687
689.94        64.75855
690.36        64.86053
690.78        64.84929
691.21        64.81931
691.63        65.08519
692.06        65.58228
692.48        65.88049
692.90        65.91305
693.33         65.9203
693.75        65.89534
694.17        65.65645
694.60        65.34379
695.02         65.2561
695.44        65.44323
695.87        65.90272
696.29        66.45323
696.71        66.59576
697.14        66.38879
697.56        66.28071
697.98        66.29917
698.41        66.80509
698.83        66.55691
699.25        66.86462
699.68        67.23615
700.10        67.39776
700.52        67.28114
700.94        67.02075
701.37        66.77883
701.79        66.77207
702.21        67.04803
702.64        67.51469
703.06        68.03669
703.48        68.37775
703.90        68.46822
704.33        68.37959
704.75        68.20113
705.17        68.06905
705.59        68.04148
706.01        68.07953
706.44        68.16692
706.86        68.31378
707.28        68.49777
707.70        68.67485
708.12        68.85036
708.55        69.11829
708.97        69.41928
709.39        69.49438
709.81        69.36007
710.23        69.30214
710.66        69.34502
711.08        69.34545
711.50        69.28751
711.92        69.24006
712.34        69.21194
712.76        69.19995
713.19         69.2031
713.61        69.25399
714.03        69.34193
714.45        69.46758
714.87        69.63455
715.29        69.84993
715.71        70.10316
716.13        70.37012
716.56         70.6068
716.98        70.83791
717.40        71.01214
717.82        71.12969
718.24        71.15588
718.66        71.03722
719.08         70.7935
719.50        70.47773
719.92         70.1838
720.34         70.0422
720.76        70.08826
721.19        70.27429
721.61        70.58812
722.03        70.93362
722.45        71.25804
722.87        71.57722
723.29        71.81101
723.71        71.83047
724.13        71.62859
724.55        71.25048
724.97        70.83408
725.39        70.61703
725.81        70.66424
726.23        70.89162
726.65        71.20206
727.07         71.5884
727.49        71.73668
727.91        71.89436
728.33        72.01803
728.75        72.14893
729.17        72.30817
729.59        72.48486
730.01        72.64603
730.43        72.65642
730.85          72.548
731.27        72.52567
731.69        72.58384
732.10        72.55776
732.52        72.44162
732.94        72.33108
733.36        72.26786
733.78        72.17063
734.20        72.03934
734.62        72.11761
735.04        72.45644
735.46        72.01245
735.88        72.53288
736.30         72.6404
736.72        72.86776
737.13        73.12193
737.55        73.33346
737.97        73.72277
738.39         74.1162
738.81        73.84537
739.23        73.08594
739.65         72.9363
740.06        73.38247
740.48        73.59045
740.90        73.52502
741.32        73.72364
741.74        74.15102
742.16        74.44154
742.57        74.54755
742.99        74.54874
743.41        74.48357
743.83        74.39383
744.25        74.30691
744.67        74.19891
745.08        74.11563
745.50        74.11054
745.92        74.19854
746.34         74.3583
746.75        74.53956
747.17        74.63567
747.59        74.63267
748.01        74.58231
748.42        74.51093
748.84        74.45488
749.26        74.45779
749.68        74.48669
750.09        74.55525
750.51        74.82523
750.93        75.17979
751.35        75.20271
751.76        74.92121
752.18        74.76418
752.60         74.7484
753.01        74.64779
753.43        74.46709
753.85        74.31943
754.27        74.22481
754.68        74.26962
755.10        74.47519
755.52        74.36463
755.93        74.71401
756.35        74.82607
756.77        74.97819
757.18        75.14104
757.60         75.3177
758.02         75.5164
758.43         76.2038
758.85        75.39631
759.26        74.77984
759.68        74.35445
760.10        75.19804
760.51        75.73652
760.93        76.07656
761.34        75.41791
761.76        75.85379
762.18        75.68979
762.59        75.65398
763.01        75.85271
763.42        76.24946
763.84        76.39714
764.26        76.25674
764.67        75.92171
765.09        75.59953
765.50        75.63525
765.92        75.97492
766.33        76.05988
766.75        75.79572
767.16        75.58177
767.58        75.47348
768.00        75.44078
768.41        75.56379
768.83        75.82515
769.24        76.47438
769.66        76.38417
770.07         75.8125
770.49        75.40309
770.90        75.38265
771.32         76.0014
771.73        77.00558
772.15        77.44386
772.56        77.22043
772.97          76.829
773.39        76.47738
773.80        76.30273
774.22         76.3597
774.63         76.6669
775.05        77.02211
775.46        77.17398
775.88        77.02701
776.29        76.70226
776.70        76.36091
777.12        76.28056
777.53        76.52901
777.95        76.95609
778.36        77.43898
778.77        77.70077
779.19        77.68274
779.60        77.59079
780.02        77.43367
780.43        77.09689
780.84        76.76228
781.26        76.55767
781.67        76.59858
782.09        77.36568
782.50        78.46606
782.91        78.38937
783.33        77.30656
783.74        76.91287
784.15        77.29097
784.57        77.57076
784.98        77.64448
785.39        77.44486
785.81        77.12832
786.22        77.45097
786.63        78.26783
787.04        78.61694
787.46        78.44483
787.87        78.23568
788.28        78.15719
788.70        78.19927
789.11        78.36577
789.52        78.78333
789.93        79.25774
790.35        79.21556
790.76        78.71399
791.17        78.37869
791.58        78.33129
792.00        78.19547
792.41        78.01257
792.82        78.25517
793.23        78.73792
793.65        78.57004
794.06        77.73284
794.47        77.82558
794.88        78.65688
795.29        78.92555
795.71        78.54183
796.12        78.43271
796.53        78.63422
796.94        78.41541
797.35        77.96114
797.76        78.35511
798.18        79.39246
798.59        79.85824
799.00        79.61602
799.41        79.31087
799.82        79.11237
800.23        79.02699
800.64        79.11388
801.06        79.32218
801.47        79.59654
801.88        79.74661
802.29        79.70774
802.70         79.5172
803.11        79.24061
803.52        78.98816
803.93        78.83398
804.34        78.78054
804.75        78.78147
805.17        78.88067
805.58        79.13055
805.99        79.07487
806.40        78.88583
806.81        79.85819
807.22        81.52648
807.63        81.50413
808.04        79.97171
808.45        79.27354
808.86        79.57153
809.27         79.5436
809.68        79.13512
810.09        78.93341
810.50        78.96299
810.91         79.0612
811.32        79.25571
811.73        79.57888
812.14        80.00351
812.55        80.53795
812.96        81.01266
813.37        81.08081
813.78        80.69384
814.19         80.0314
814.60        79.32494
815.01        78.84501
815.42        78.66108
815.83        78.71951
816.24        78.93372
816.65        79.10542
817.05        79.17145
817.46        79.17931
817.87        79.16858
818.28        79.13856
818.69          79.103
819.10        79.01884
819.51        78.98941
819.92        79.21492
820.33        79.70396
820.74        80.37804
821.14        81.00034
821.55        81.18109
821.96        80.85119
822.37        80.14617
822.78        79.29972
823.19        78.71628
823.60          78.539
824.00        78.68446
824.41        79.02242
824.82        79.43907
825.23        79.83904
825.64        80.25443
826.04        80.59808
826.45        80.67816
826.86        80.48711
827.27        80.07185
827.68         79.5593
828.08        79.21815
828.49        79.08273
828.90        79.11548
829.31        79.30566
829.72        79.62043
830.12        80.04356
830.53        80.51493
830.94        80.91652
831.35        80.99024
831.75        80.70375
832.16        80.10618
832.57        79.40641
832.97        78.92478
833.38        78.75891
833.79        78.80651
834.20        79.01299
834.60        79.27604
835.01        79.54811
835.42        79.91455
835.82        80.28474
836.23        80.40224
836.64        80.26029
837.04        79.87423
837.45         79.5322
837.86        79.79025
838.26         80.7623
838.67        82.22733
839.08        83.67687
839.48        84.15231
839.89        83.40866
840.29        81.80554
840.70        80.05789
841.11         78.9754
841.51        78.78634
841.92        79.24158
842.33        80.09474
842.73        80.90716
843.14        81.36784
843.54        81.63955
843.95        81.82153
844.35        82.13538
844.76        82.59209
845.17        83.08481
845.57        83.39713
845.98        83.17687
846.38        82.41384
846.79        81.25439
847.19        80.06362
847.60        79.38333
848.00         79.3669
848.41        79.83462
848.81          80.551
849.22        81.00616
849.62        81.08875
850.03        80.93348
850.43        80.67781
850.84        80.46885
851.24        80.42604
851.65        80.39284
852.05        80.51238
852.46        80.90975
852.86        81.55947
853.27        82.40318
853.67        83.10114
854.07        83.31938
854.48        82.98259
854.88         82.2177
855.29        81.22958
855.69         80.5705
856.10        80.34465
856.50        80.51253
856.90        80.83457
857.31         80.9188
857.71        80.70827
858.12        80.24654
858.52        79.76116
858.92         79.4891
859.33        79.48713
859.73        79.73016
860.13        79.99821
860.54        79.96555
860.94        79.61061
861.34        79.01657
861.75        78.45112
862.15        78.39407
862.55         78.9224
862.96        79.84739
863.36        80.88683
863.76        81.46259
864.17        81.38857
864.57        80.85328
864.97        80.07282
865.38        79.40055
865.78        78.98962
866.18           78.75
866.58        78.62122
866.99        78.49876
867.39        78.39014
867.79        78.35479
868.19        78.45267
868.60        78.71847
869.00        79.17197
869.40         79.7355
869.80        80.32505
870.21        80.78268
870.61        81.09464
871.01        81.24844
871.41        81.18124
871.81         80.8153
872.22        80.16778
872.62        79.25307
873.02        78.36177
873.42        77.98862
873.82        78.24184
874.22        78.99239
874.63        79.81383
875.03        80.02427
875.43        79.46639
875.83        78.36948
876.23        77.16657
876.63         76.5218
877.03        76.61216
877.44        77.22289
877.84        78.07694
878.24        78.68156
878.64         78.8307
879.04        78.56252
879.44        78.17219
879.84         78.1722
880.24        78.62593
880.64        79.33187
881.04        79.90197
881.44        79.73315
881.84        78.73641
882.24         77.1853
882.65        75.59715
883.05        74.74577
883.45        74.83977
883.85        75.65437
884.25         76.8642
884.65        77.89469
885.05         78.5143
885.45        78.85867
885.85        79.01514
886.25        79.13351
886.65        79.26918
887.05        79.33452
887.45         79.3114
887.85        79.21173
888.25        79.04034
888.65        78.82845
889.04        78.59873
889.44        78.39029
889.84        78.20338
890.24        78.04685
890.64        77.89857
891.04        77.72206
891.44        77.52143
891.84        77.31828
892.24        77.16909
892.64         77.1489
893.04        77.27895
893.44        77.55486
893.83        77.92868
894.23        78.25896
894.63        78.52216
895.03        78.70374
895.43        78.89645
895.83          79.271
896.23          79.816
896.63         80.4304
897.02         80.8686
897.42        80.77422
897.82         80.1086
898.22        79.07446
898.62        77.92166
899.01        77.00016
899.41         76.4548
899.81        76.17172
900.21        76.18214
900.61        76.52463
901.00        77.13682
901.40        77.97953
901.80        78.79476
902.20        79.15607
902.59        78.99323
902.99        78.42091
903.39        77.69147
903.79        77.24561
904.18        77.20161
904.58        77.41286
904.98        77.82336
905.38        78.35265
905.77        78.93666
906.17        79.64061
906.57        80.22185
906.96        80.26862
907.36        79.70966
907.76        78.66766
908.15        77.62978
908.55        77.36367
908.95        78.03275
909.34        79.41735
909.74         80.9335
910.14        81.69507
910.53        81.42482
910.93        80.42656
911.33        79.08833
911.72         77.9966
912.12        77.42385
912.52        77.20751
912.91        77.21204
913.31        77.26834
913.70        77.31227
914.10        77.37451
914.49        77.61376
914.89        78.16252
915.29        79.03471
915.68        80.14795
916.08        81.09751
916.47        81.33085
916.87        80.76532
917.26        79.56477
917.66        78.29487
918.05        77.63308
918.45        77.73814
918.84        78.47121
919.24        79.39285
919.64        79.86717
920.03         79.7198
920.42        79.11887
920.82        78.47318
921.21        78.35285
921.61        78.86232
922.00        79.84162
922.40         80.8879
922.79          81.473
923.19        81.39233
923.58        80.86436
923.98        80.17817
924.37        79.66769
924.77        79.46194
925.16        79.40601
925.55        79.46606
925.95        79.57041
926.34        79.68783
926.74        79.83155
927.13        79.88722
927.52        79.58376
927.92         78.9616
928.31        78.11749
928.70        77.30803
929.10        76.89632
929.49        76.95335
929.89        77.29755
930.28        77.93501
930.67         78.7309
931.07        79.54227
931.46         80.4716
931.85        81.14697
932.24        81.03502
932.64        80.13239
933.03        78.57517
933.42        77.04314
933.82        76.53161
934.21        77.24155
934.60        78.96654
934.99        81.02496
935.39        82.15765
935.78        82.04005
936.17        80.91176
936.56        79.48345
936.96        78.88579
937.35        79.38467
937.74        80.61734
938.13        81.87964
938.53        82.09367
938.92        81.05102
939.31        79.20609
939.70        77.26633
940.09        76.21846
940.49        76.25848
940.88        77.10492
941.27        78.34392
941.66        79.21958
942.05        79.46237
942.44        79.33578
942.84        79.03877
943.23        78.86912
943.62        78.93011
944.01        79.02491
944.40        79.19617
944.79        79.56788
945.18        80.10026
945.57        80.78375
945.97        81.23943
946.36        80.92456
946.75        79.74731
947.14        78.00278
947.53        76.24538
947.92        75.25788
948.31        75.22093
948.70        75.90694
949.09        77.04736
949.48        78.15582
949.87        79.00247
950.26        79.67183
950.65        80.14368
951.04        80.40961
951.43        80.47286
951.82        80.28268
952.21        79.88017
952.60        79.37412
952.99        78.86086
953.38        78.42531
953.77        78.12303
954.16        78.00729
954.55        78.07686
954.94        78.25368
955.33        78.61848
955.72        79.29298
956.11        80.22511
956.50        81.36725
956.89        82.21915
957.28        81.97456
957.66        80.53638
958.05        78.27272
958.44        76.00784
958.83        74.91631
959.22         75.2272
959.61        76.62482
960.00        78.49662
960.39        79.66313
960.78        79.70428
961.16        78.94656
961.55        77.91704
961.94        77.29208
962.33        77.27455
962.72        77.67287
963.11        78.22919
963.49        78.53507
963.88        78.35321
964.27        77.84419
964.66         77.3983
965.04         77.5932
965.43        78.47202
965.82        79.93361
966.21        81.33672
966.60        81.47355
966.98        80.05489
967.37         77.6222
967.76        75.20047
968.15        74.07542
968.53        74.48238
968.92        76.10035
969.31        78.21744
969.69        79.39688
970.08        79.04198
970.47        77.60568
970.86        76.00321
971.24        75.52493
971.63        76.44521
972.02        78.41525
972.40        80.63162
972.79        81.22905
973.17        79.79272
973.56        77.03997
973.95        74.19167
974.33        72.79916
974.72        73.15983
975.11        74.78711
975.49        76.98618
975.88        78.30581
976.26        78.27155
976.65        77.26759
977.04        75.85398
977.42         74.8519
977.81        74.49338
978.19        74.50257
978.58        74.76948
978.96        75.11841
979.35        75.42297
979.74        75.79529
980.12        76.27257
980.51        76.61707
980.89         76.8861
981.28        77.04754
981.66         77.1267
982.05        77.18483
982.43        77.25985
982.82         77.3026
983.20        77.50303
983.59         78.0553
983.97         79.0712
984.35         80.4325
984.74        81.67089
985.12        82.25076
985.51         81.9662
985.89        81.03375
986.28        79.94781
986.66        79.36965
987.04        79.54893
987.43        80.26163
987.81        81.28291
988.20        81.98108
988.58        82.15321
988.96        81.85902
989.35        81.33674
989.73        80.91103
990.12        80.63522
990.50        80.43111
990.88         79.9976
991.27        78.88544
991.65        77.13561
992.03        75.05917
992.42        73.22648
992.80        72.29218
993.18        72.41091
993.56        73.40013
993.95        74.85484
994.33        76.19069
994.71        76.97816
995.10        77.42019
995.48        77.62979
995.86        77.96149
996.24        78.51521
996.63        78.93597
997.01        79.38181
997.39        79.79509
997.77        80.09631
998.15        80.45502
998.54        80.48936
998.92        79.45117
999.30        77.44657
999.68        74.77608
1000.06        72.50305
1000.45        72.09114
1000.83        73.92483
1001.21         77.7825
1001.59        82.54462
1001.97        85.45216
1002.35         85.4117
1002.73        83.18567
1003.12        80.48835
1003.50        79.54955
1003.88        80.96075
1004.26        83.93789
1004.64        87.56727
1005.02        89.89542
1005.40        90.04556
1005.78         88.8398
1006.16        86.52219
1006.54        83.41585
1006.92        80.02203
1007.30        76.36833
1007.69        73.54457
1008.07        72.94471
1008.45        74.90699
1008.83        79.18548
1009.21        84.56023
1009.59        87.85513
1009.97        87.52266
1010.35        84.39385
1010.73        79.74876
1011.11         75.5216
1011.49        72.48971
1011.86        70.26424
1012.24        68.96739
1012.62        68.69321
1013.00        69.36375
1013.38         71.0517
1013.76        73.60377
1014.14        76.23759
1014.52        78.28648
1014.90        79.58861
1015.28        79.95394
1015.66        79.39169
1016.04        78.06244
1016.41        76.03826
1016.79        73.70148
1017.17        71.95379
1017.55        71.14302
1017.93        71.07091
1018.31        71.59068
1018.69        72.40955
1019.06        73.42892
1019.44        74.82645
1019.82        76.13045
1020.20        76.25036
1020.58        74.90679
1020.95         72.3655
1021.33        69.98207
1021.71        69.21679
1022.09        70.30278
1022.46        73.22625
1022.84        76.90569
1023.22        78.62164
1023.60        77.31178
1023.97        73.68635
1024.35        70.31895
1024.73        70.21691
