SpectraSmart Spectrum 2.9.0.0
--------- Device Information -----------
Spectrum Name :  反射率_0
Saving Time :  2024/04/27 00:22:03
Spectro-Module Model Name : SE2030-DUVN
Spectro-Module Serial Number : OS361AC55029948
Wavelength Start : 200
Wavelength End : 1025
Wavelength Unit : Wavelength(nm)
Spectrum Unit : Reflectance(%)
-----------Spectrum Setting ------------
Integration Time : 20ms
Average : 10
Boxcar : 0
Background removal :  enabled
linearity correction :  enabled
SC :  disabled
Intensity correction :  disabled
DWT denoise :  enabled
savitzky-golay :  disabled
FFT :  disabled
Running average :  disabled
Kalman :  disabled
High pass :  disabled
---------------BEGIN--------------------
Wavelength(nm)             Reflectance(%)
200.29               0
200.75        24.73601
201.21        23.47903
201.67        23.23681
202.13        24.77865
202.58        28.13122
203.04        33.98765
203.50        41.79124
203.96        47.88984
204.42        49.35299
204.88        45.91011
205.34        39.48269
205.80        35.19682
206.26          34.571
206.72        35.72881
207.18        36.99406
207.64        36.57765
208.10        34.15538
208.55        30.51319
209.01        24.98362
209.47        19.76416
209.93         18.0816
210.39        18.84088
210.85         21.2961
211.31        26.08525
211.77        35.10947
212.23        54.77438
212.69          102.56
213.14        179.2985
213.60        170.8421
214.06         112.178
214.52        73.95457
214.98        57.63015
215.44         51.4858
215.90        48.65643
216.36        48.05991
216.81        49.01449
217.27        51.46503
217.73        57.59857
218.19        65.03745
218.65        62.81638
219.11        50.52412
219.57        36.70795
220.02        28.56544
220.48        29.07285
220.94         37.4476
221.40         54.8145
221.86        80.93995
222.32        99.50574
222.77         95.3626
223.23        78.63202
223.69        61.39508
224.15        50.83362
224.61        45.89921
225.06        43.28695
225.52        42.11891
225.98        41.47075
226.44        41.01888
226.90        41.26745
227.36        41.60116
227.81        40.88659
228.27        39.26125
228.73        37.01243
229.19        35.46514
229.65         36.2434
230.10        39.28239
230.56        43.96323
231.02         48.6183
231.48        50.52444
231.93        49.23674
232.39        46.16336
232.85        42.97757
233.31        41.86309
233.77        43.08599
234.22        45.87254
234.68        49.24297
235.14        51.79052
235.60         53.0441
236.05        53.49475
236.51        53.40246
236.97        53.29174
237.43        53.47414
237.88        53.80987
238.34        54.32693
238.80        55.44901
239.26        57.41893
239.71        60.73716
240.17        65.39878
240.63        71.14144
241.08        77.51359
241.54        83.72099
242.00        89.69764
242.46        96.35271
242.91        105.1895
243.37        116.1321
243.83        129.2459
244.28        139.0821
244.74        136.5552
245.20        122.6043
245.66        105.4315
246.11        90.42901
246.57        78.20502
247.03        67.43477
247.48        58.73419
247.94        54.47011
248.40        54.62188
248.85        56.74501
249.31        59.36742
249.77        61.27633
250.22        62.35842
250.68        62.95641
251.14        62.80696
251.59        61.44496
252.05        59.51633
252.51         57.9867
252.96        56.81885
253.42         56.1737
253.88        55.98383
254.33        55.82957
254.79         57.1931
255.25        61.11185
255.70        67.19581
256.16         74.9418
256.62        81.31841
257.07        81.73972
257.53        77.65431
257.99        71.94998
258.44        67.15999
258.90        65.69513
259.35        66.43003
259.81        68.52446
260.27         70.4143
260.72        70.26311
261.18        68.39461
261.63        65.48757
262.09         62.9445
262.55        61.65318
263.00        61.45232
263.46        61.99803
263.91        62.42754
264.37        62.01869
264.83        60.69981
265.28        58.83481
265.74        57.14441
266.19        56.17269
266.65        56.04535
267.11        56.38092
267.56        56.81633
268.02        56.80309
268.47        56.17511
268.93        55.17743
269.38        53.89782
269.84        52.52884
270.30        51.16208
270.75        49.74421
271.21         48.4753
271.66        47.59346
272.12        47.12077
272.57        46.95329
273.03        46.84131
273.48        46.34921
273.94        45.44131
274.39        44.22702
274.85        42.97106
275.31        41.88533
275.76        41.01078
276.22        40.31937
276.67        39.73171
277.13        39.25081
277.58        38.79431
278.04        38.39628
278.49        37.97416
278.95        37.53225
279.40        37.00642
279.86         36.4744
280.31        35.86649
280.77        35.21501
281.22        34.49651
281.68        33.78957
282.13         33.1361
282.59        32.69098
283.04        32.42652
283.50        32.32043
283.95        32.26594
284.41        32.11275
284.86        31.82366
285.32         31.4771
285.77        31.13124
286.22         30.9376
286.68        30.91446
287.13        30.96208
287.59         31.0331
288.04        31.00729
288.50        30.87983
288.95        30.66707
289.41        30.40079
289.86        30.04975
290.32         29.6737
290.77        29.27595
291.22        28.95037
291.68        28.81931
292.13        28.89282
292.59        29.15402
293.04        29.53644
293.50        29.95081
293.95        30.35245
294.40        30.76426
294.86        31.19836
295.31        31.66826
295.77        32.18468
296.22        32.71966
296.68        33.27718
297.13        33.85267
297.58        34.45064
298.04        35.07639
298.49         35.7155
298.95         36.3624
299.40        36.99984
299.85        37.62315
300.31        38.23588
300.76        38.83218
301.21        39.40869
301.67        39.97286
302.12        40.48028
302.58        40.93197
303.03        41.30124
303.48        41.62271
303.94        41.93153
304.39        42.23525
304.84        42.55764
305.30        42.90368
305.75        43.24898
306.20        43.61838
306.66        44.01472
307.11        44.40651
307.57        44.77151
308.02        45.01617
308.47         45.1408
308.93        45.17675
309.38        45.16213
309.83         45.2175
310.29        45.36623
310.74        45.56983
311.19        45.75629
311.65        45.80021
312.10         45.6696
312.55        45.40773
313.00        45.11024
313.46          44.917
313.91        44.84217
314.36        44.85373
314.82        44.86344
315.27        44.74264
315.72        44.46025
316.18        44.07888
316.63        43.67214
317.08         43.3702
317.53        43.20278
317.99        43.11872
318.44        43.07063
318.89        42.96936
319.35        42.78427
319.80        42.54222
320.25        42.26088
320.70        41.96804
321.16        41.67404
321.61        41.38329
322.06        41.09028
322.51         40.7951
322.97        40.49481
323.42        40.19635
323.87        39.92472
324.32        39.72302
324.78         39.5781
325.23        39.49907
325.68        39.39435
326.13        39.12539
326.59        38.67204
327.04        38.09644
327.49        37.51799
327.94        37.12782
328.39        36.96445
328.85        36.95469
329.30        37.03382
329.75        37.00679
330.20        36.81303
330.66        36.50298
331.11        36.15257
331.56        35.85438
332.01        35.63901
332.46        35.46131
332.92        35.28874
333.37        35.13147
333.82        34.96274
334.27        34.80333
334.72        34.63191
335.17         34.4017
335.63        34.11018
336.08        33.79425
336.53        33.50696
336.98        33.35071
337.43        33.34519
337.88        33.44469
338.34        33.59558
338.79        33.74069
339.24        33.82668
339.69         33.8674
340.14        33.81349
340.59        33.59486
341.05        33.22752
341.50        32.73751
341.95        32.24384
342.40        31.92784
342.85        31.82969
343.30        31.90179
343.75        32.04801
344.20         32.1038
344.66        32.02417
345.11        31.85626
345.56        31.65648
346.01        31.51512
346.46        31.46317
346.91        31.47075
347.36        31.50789
347.81        31.53723
348.26        31.54179
348.72        31.52592
349.17        31.50902
349.62        31.53363
350.07        31.60004
350.52        31.69544
350.97         31.7424
351.42        31.62172
351.87         31.3258
352.32        30.90604
352.77        30.49089
353.22        30.26634
353.67        30.26515
354.13        30.42872
354.58        30.64401
355.03        30.71931
355.48        30.60159
355.93        30.35567
356.38        30.06492
356.83        29.85377
357.28         29.7542
357.73        29.71696
358.18         29.7072
358.63        29.67473
359.08        29.59859
359.53        29.49945
359.98        29.37264
360.43        29.20463
360.88        28.99523
361.33        28.74253
361.78        28.47098
362.23        28.22567
362.68        28.02229
363.13        27.85982
363.58         27.7106
364.03        27.52513
364.48        27.29471
364.93        27.03322
365.38        26.78782
365.83        26.63639
366.28        26.58997
366.73        26.61576
367.18        26.64701
367.63        26.58081
368.08        26.39376
368.53        26.12166
368.98        25.81432
369.43        25.55075
369.88        25.35842
370.33        25.21577
370.78        25.11022
371.23        25.02149
371.68         24.9382
372.13        24.86665
372.58        24.80083
373.03        24.72731
373.48        24.63937
373.93        24.53336
374.38        24.40427
374.83        24.25103
375.28        24.07718
375.72        23.88063
376.17        23.69108
376.62        23.52133
377.07        23.37877
377.52        23.26638
377.97        23.17412
378.42        23.08636
378.87        22.99848
379.32        22.90669
379.77        22.83229
380.22        22.80694
380.67        22.82791
381.11        22.88961
381.56        22.92073
382.01        22.82846
382.46        22.60457
382.91        22.29467
383.36        21.98728
383.81        21.80222
384.26        21.75769
384.71         21.8125
385.15        21.90738
385.60        21.94453
386.05        21.88961
386.50        21.77111
386.95        21.61213
387.40        21.45001
387.85        21.30207
388.29        21.14633
388.74        21.00823
389.19        20.87276
389.64        20.73716
390.09         20.6043
390.54        20.48255
390.98        20.37892
391.43        20.30846
391.88        20.26552
392.33        20.23383
392.78         20.1898
393.23        20.12909
393.67        20.04724
394.12        19.98132
394.57        19.94756
395.02        19.94619
395.47        19.96055
395.91         19.9733
396.36        19.94464
396.81        19.87894
397.26        19.79722
397.71        19.70572
398.15        19.62461
398.60        19.58455
399.05        19.49646
399.50        19.39939
399.95        19.49392
400.39        19.71834
400.84         19.7131
401.29        19.48037
401.74        19.33306
402.18        19.28895
402.63        19.15365
403.08        18.96818
403.53        18.88382
403.97        18.91149
404.42        19.00756
404.87         19.1106
405.32        19.11897
405.76        19.00709
406.21        18.82062
406.66        18.61278
407.11        18.46594
407.55        18.41026
408.00        18.41517
408.45        18.45542
408.90        18.47892
409.34        18.46318
409.79        18.42044
410.24        18.37487
410.68         18.3545
411.13        18.36662
411.58        18.39967
412.03        18.40524
412.47        18.30774
412.92        18.09824
413.37        17.82237
413.81        17.56243
414.26        17.44604
414.71        17.48742
415.15        17.65264
415.60        17.86798
416.05        18.01505
416.49         18.0493
416.94        17.99847
417.39        17.89815
417.83        17.80442
418.28        17.73829
418.73        17.68208
419.17        17.63398
419.62        17.59497
420.07         17.5662
420.51         17.5495
420.96        17.55169
421.41        17.57396
421.85        17.60389
422.30        17.62715
422.74        17.62283
423.19        17.64293
423.64        17.65736
424.08        17.56506
424.53        17.38689
424.98        17.29667
425.42        17.32587
425.87        17.34883
426.31        17.35763
426.76        17.46521
427.21        17.60996
427.65        17.54654
428.10        17.33715
428.54        17.26031
428.99        17.34107
429.44        17.49459
429.88        17.63146
430.33        17.54697
430.77        17.28872
431.22        17.20324
431.66        17.31017
432.11        17.34524
432.56        17.31689
433.00        17.44931
433.45        17.63092
433.89        17.53415
434.34        17.26482
434.78        16.77153
435.23        17.04374
435.67         17.0349
436.12        16.99787
436.57        16.96035
437.01        16.93489
437.46        16.95082
437.90         16.9957
438.35        17.01344
438.79        16.99917
439.24        17.00403
439.68         17.0305
440.13        17.06104
440.57        17.08773
441.02        17.11817
441.46        17.14868
441.91        17.13345
442.35        17.08302
442.80        17.18253
443.24         17.3596
443.69        17.31615
444.13        17.09183
444.58         17.0211
445.02        17.11751
445.47        17.20473
445.91        17.24828
446.36        17.27841
446.80        17.28312
447.24         17.2592
447.69        17.22807
448.13         17.2158
448.58        17.23283
449.02        17.26605
449.47        17.30756
449.91        17.33582
450.36        17.34879
450.80        17.35014
451.25        17.34418
451.69        17.32536
452.13        17.29782
452.58        17.25995
453.02        17.22063
453.47        17.19756
453.91        17.19403
454.36        17.20877
454.80        17.22235
455.24        17.20224
455.69        17.14696
456.13        17.05305
456.58        16.96256
457.02        16.91139
457.46        16.91314
457.91        16.95574
458.35        16.98805
458.79        16.93405
459.24        16.80106
459.68        16.61158
460.13        16.44526
460.57        16.37708
461.01        16.43382
461.46        16.56999
461.90        16.75073
462.34        16.90294
462.79        16.99056
463.23        17.03798
463.68         17.0265
464.12        16.94081
464.56        16.79088
465.01        16.61012
465.45        16.42751
465.89        16.32672
466.34        16.31837
466.78        16.37987
467.22        16.48287
467.67        16.55767
468.11        16.58976
468.55        16.58677
468.99        16.56963
469.44        16.57172
469.88        16.60237
470.32        16.64733
470.77        16.68684
471.21         16.6954
471.65        16.66759
472.10        16.61897
472.54        16.57011
472.98        16.55762
473.42        16.58874
473.87        16.65452
474.31        16.72554
474.75         16.7733
475.20        16.79339
475.64         16.7894
476.08        16.77709
476.52        16.77109
476.97        16.77783
477.41        16.80157
477.85        16.84315
478.29        16.87976
478.74         16.9222
479.18        17.01297
479.62        17.13496
480.06        17.23297
480.50        17.29996
480.95        17.33681
481.39        17.33463
481.83        17.44833
482.27        17.43068
482.72        17.49899
483.16        17.57817
483.60        17.64591
484.04        17.67771
484.48        17.74546
484.93        17.95043
485.37        17.94167
485.81         18.1432
486.25        18.65419
486.69         18.2047
487.14        17.98409
487.58        18.43643
488.02         18.8657
488.46        18.52417
488.90        18.68166
489.34        18.86588
489.79        19.03846
490.23        19.08791
490.67        19.24746
491.11        19.47431
491.55        19.49169
491.99        19.34879
492.43        19.33691
492.88        19.48342
493.32        19.63271
493.76        19.75956
494.20        19.90829
494.64        20.07612
495.08        20.20736
495.52        20.31385
495.96        20.54338
496.41        20.85127
496.85        20.93177
497.29        20.81127
497.73        20.98585
498.17        21.16522
498.61         21.3052
499.05        21.31127
499.49        21.35385
499.93        21.40104
500.37        21.59962
500.82        21.88976
501.26        22.09037
501.70        22.17531
502.14        22.24237
502.58        22.32229
503.02        22.41904
503.46         22.5397
503.90        22.67926
504.34          22.804
504.78        22.85968
505.22        22.83824
505.66        22.76315
506.10        22.67673
506.54        22.64436
506.98        22.68447
507.42        22.77761
507.86        22.90336
508.30        23.02637
508.74        23.13116
509.18        23.22716
509.62        23.30945
510.06          23.371
510.50        23.41202
510.94        23.42941
511.38        23.43762
511.82        23.46334
512.26        23.51212
512.70        23.57892
513.14        23.64613
513.58        23.68271
514.02        23.68328
514.46         23.6598
514.90         23.6313
515.34        23.62872
515.78        23.65802
516.22        23.70429
516.66        23.75607
517.10        23.79501
517.54         23.8144
517.98        23.82463
518.42        23.81565
518.86        23.77143
519.30          23.695
519.74         23.5904
520.18        23.49651
520.62          23.474
521.06        23.53248
521.50        23.65616
521.93        23.79128
522.37        23.83925
522.81        23.78121
523.25        23.64409
523.69        23.48841
524.13        23.40956
524.57        23.42661
525.01        23.50571
525.45        23.59322
525.89        23.60319
526.32        23.51322
526.76        23.36398
527.20        23.19297
527.64        23.05824
528.08        22.97862
528.52        22.93287
528.96        22.91503
529.40        22.91722
529.83        22.92962
530.27        22.95661
530.71        22.97533
531.15        22.94966
531.59        22.87462
532.03        22.75929
532.46        22.62891
532.90        22.54207
533.34        22.50783
533.78        22.49807
534.22         22.4934
534.66        22.49023
535.09        22.46429
535.53        22.37562
535.97        22.24547
536.41        22.16409
536.85        22.14406
537.28         22.1404
537.72        22.15419
538.16         22.2043
538.60        22.28497
539.04        22.38781
539.47        22.48918
539.91        22.56711
540.35        22.61169
540.79        22.63216
541.22        22.64048
541.66        22.66498
542.10         22.7123
542.54        22.77663
542.97        22.85467
543.41        22.95061
543.85        23.05913
544.29        23.18157
544.72        23.30679
545.16         23.4325
545.60        23.55334
546.04        23.67429
546.47        23.80135
546.91        23.94087
547.35        24.09064
547.79        24.24558
548.22        24.40158
548.66        24.54811
549.10        24.71051
549.53        24.87969
549.97        25.04574
550.41        25.13507
550.84        25.17271
551.28        25.23769
551.72        25.32883
552.15        25.46464
552.59        25.67966
553.03        25.58929
553.46        25.95077
553.90        26.07532
554.34        26.18123
554.77         26.2741
555.21        26.37012
555.65        26.47251
556.08        26.57304
556.52        26.65595
556.96        26.71366
557.39        26.80849
557.83        26.91982
558.27        26.89464
558.70        26.77037
559.14        26.76687
559.57        26.87845
560.01        26.96737
560.45        27.01728
560.88        27.08305
561.32        27.17344
561.75        27.25506
562.19         27.3381
562.63        27.40676
563.06        27.46888
563.50        27.58199
563.93        27.70371
564.37        27.78653
564.80        27.83627
565.24        27.82621
565.68        27.71497
566.11        28.02347
566.55        27.75387
566.98        27.74277
567.42        27.75806
567.85        27.87196
568.29        28.09508
568.72        28.42072
569.16        28.80741
569.60        29.01521
570.03        29.12469
570.47        29.17294
570.90        29.24092
571.34        29.10663
571.77        29.37784
572.21        29.61004
572.64        29.58348
573.08        30.03886
573.51        29.85842
573.95         29.8849
574.38        29.90231
574.82        30.10116
575.25        30.09766
575.69         30.1137
576.12        30.04207
576.56        30.10003
576.99        30.41336
577.42        30.17647
577.86        30.17737
578.29        30.62565
578.73        30.45048
579.16        30.43332
579.60        30.17578
580.03        30.23775
580.47        30.23377
580.90        30.35674
581.33        30.16303
581.77        30.51669
582.20        30.02311
582.64        29.81541
583.07        29.67544
583.51        29.51818
583.94        29.46935
584.37        29.53368
584.81          29.645
585.24        29.45487
585.68        29.08071
586.11        28.87977
586.54        28.82523
586.98          28.812
587.41        28.81293
587.85        28.77032
588.28        28.61073
588.71        28.70117
589.15        28.40038
589.58         28.6566
590.01        28.40046
590.45        28.33888
590.88         28.6303
591.31        28.54207
591.75        28.29581
592.18        28.27992
592.61         28.3379
593.05        28.71756
593.48        29.14366
593.91        28.68262
594.35        28.68394
594.78        28.55401
595.21        28.71952
595.65        28.97548
596.08         29.3198
596.51        29.44771
596.94        29.33396
597.38        29.40575
597.81        29.64185
598.24        30.14331
598.68        30.36172
599.11        30.29841
599.54        30.95536
599.97        30.60075
600.41        31.10836
600.84        31.05818
601.27        31.36818
601.70        31.63309
602.14        31.94031
602.57        32.22268
603.00        32.51672
603.43        32.60422
603.87        33.37328
604.30        33.62179
604.73        33.69732
605.16         33.8085
605.60        33.99963
606.03         34.2408
606.46        34.53237
606.89        34.64269
607.32        35.42791
607.76         35.5914
608.19        35.93607
608.62        36.10601
609.05         36.3843
609.48        36.53277
609.92         36.9637
610.35        37.39432
610.78        37.10463
611.21        37.02597
611.64        37.55621
612.07        37.92433
612.50        38.07565
612.94        38.28499
613.37        38.48108
613.80        38.53545
614.23        38.49623
614.66        38.44267
615.09        39.05839
615.52         39.3271
615.96         39.4231
616.39        39.59522
616.82         39.8521
617.25        39.93584
617.68        39.99553
618.11        40.13591
618.54        40.35742
618.97        40.51679
619.40        40.66682
619.84        40.54185
620.27        40.83894
620.70        41.04779
621.13        41.31534
621.56        41.02521
621.99        40.75795
622.42        40.71961
622.85        40.75678
623.28        40.83887
623.71        40.89136
624.14        40.86207
624.57        41.35029
625.00        41.30254
625.43        41.44791
625.86         41.3435
626.29        41.25854
626.72         40.7566
627.15         41.0835
627.58         41.0021
628.01        40.74319
628.44        40.97808
628.87        40.78352
629.30          40.095
629.73        40.00006
630.16        39.92156
630.59        39.66187
631.02        39.64863
631.45        39.65374
631.88        39.56116
632.31        39.32251
632.74        38.99001
633.17        38.61364
633.60        38.26168
634.03        37.96152
634.46        37.68942
634.89        37.41827
635.32        37.11456
635.75        36.77272
636.18        36.37268
636.61        35.96006
637.04        35.62244
637.47        35.37322
637.89         35.1827
638.32        35.00024
638.75        34.77797
639.18         34.4996
639.61        34.19437
640.04        33.90781
640.47        33.66771
640.90        33.47785
641.33        33.48384
641.76         33.3596
642.18        33.26375
642.61        33.08854
643.04        32.86954
643.47        32.66027
643.90         32.5502
644.33        32.56172
644.76        32.66474
645.18        32.80479
645.61        32.88643
646.04        32.88803
646.47         32.8376
646.90         32.7906
647.33        32.82998
647.75        32.96975
648.18        33.21953
648.61         33.5405
649.04        33.77102
649.47        33.86284
649.89        34.29544
650.32        34.22208
650.75        34.58217
651.18        35.07834
651.61         35.4656
652.03        35.74044
652.46        36.08308
652.89        36.46206
653.32        36.70653
653.74        36.98729
654.17        36.96199
654.60        37.72983
655.03         38.3022
655.46        38.08969
655.88        38.22747
656.31        40.35444
656.74        41.25989
657.16        40.81361
657.59        40.87815
658.02        40.23143
658.45         40.7718
658.87        40.83534
659.30        41.46886
659.73        41.06123
660.15        42.26418
660.58        41.43047
661.01        41.67733
661.44        42.02231
661.86        42.04808
662.29        41.78529
662.72        42.17965
663.14        42.43345
663.57        42.67829
664.00        42.71355
664.42        42.94449
664.85        43.38033
665.27        43.82265
665.70        44.16277
666.13        44.34838
666.55        44.36192
666.98        44.18209
667.41        43.89973
667.83        43.94458
668.26        43.90446
668.69        44.11156
669.11        44.38273
669.54        44.63559
669.96        44.83971
670.39         45.0186
670.82        45.18275
671.24        45.32607
671.67        45.44789
672.09        45.53058
672.52        45.59781
672.94        45.66475
673.37        45.74298
673.80         45.8285
674.22        45.92167
674.65        45.99273
675.07         46.0493
675.50        46.09172
675.92        46.13079
676.35        46.17445
676.77        46.22728
677.20        46.28339
677.62        46.34553
678.05        46.41631
678.47        46.49419
678.90        46.58501
679.32        46.67336
679.75        46.74313
680.17        46.78717
680.60        46.80978
681.02         46.8377
681.45        46.90194
681.87        47.01459
682.30        47.18322
682.72        47.37333
683.15        47.43488
683.57        47.39147
684.00        47.39996
684.42        47.48249
684.85        47.55452
685.27        47.61474
685.70        47.73006
686.12         47.8632
686.54        47.94024
686.97        47.94989
687.39        47.90819
687.82         47.8323
688.24        47.84642
688.66        47.83101
689.09        47.87611
689.51        47.94704
689.94        48.03204
690.36        48.12757
690.78        48.22455
691.21        48.32131
691.63        48.40593
692.06        48.47536
692.48        48.53579
692.90         48.5668
693.33        48.54128
693.75        48.46215
694.17         48.3255
694.60        48.19509
695.02         48.1857
695.44        48.29821
695.87        48.48472
696.29        48.69042
696.71        48.71791
697.14        48.61063
697.56         48.6574
697.98         48.8531
698.41        48.94947
698.83        48.93246
699.25        48.97948
699.68         49.0468
700.10        49.03024
700.52        48.91298
700.94        48.74321
701.37        48.59489
701.79        48.58977
702.21        48.74614
702.64        49.01395
703.06        49.32251
703.48        49.54233
703.90          49.631
704.33        49.62066
704.75        49.54827
705.17        49.47116
705.59        49.41986
706.01        49.38107
706.44        49.35833
706.86        49.38452
707.28        49.45566
707.70        49.53518
708.12        49.62883
708.55        49.80589
708.97         50.0219
709.39        50.09164
709.81        50.02038
710.23        50.00088
710.66        50.04466
711.08        50.04607
711.50        49.99683
711.92        49.95441
712.34        49.92561
712.76        49.90482
713.19        49.88324
713.61        49.87246
714.03        49.86596
714.45        49.87373
714.87        49.91248
715.29        50.00641
715.71        50.15326
716.13        50.33084
716.56        50.50413
716.98        50.68261
717.40        50.82526
717.82        50.93398
718.24        50.97645
718.66         50.9044
719.08        50.72857
719.50        50.48223
719.92        50.24434
720.34        50.13344
720.76        50.17609
721.19        50.32399
721.61         50.5489
722.03        50.76112
722.45        50.91739
722.87        51.03033
723.29        51.07991
723.71         51.0363
724.13         50.9075
724.55        50.71574
724.97        50.51672
725.39        50.36962
725.81        50.29565
726.23        50.33841
726.65        50.51604
727.07        50.53693
727.49        50.88228
727.91        51.15137
728.33        51.42727
728.75        51.59003
729.17        51.61403
729.59        51.50695
730.01        51.34486
730.43        51.27694
730.85        51.33376
731.27        51.47348
731.69        51.60887
732.10        51.60146
732.52        51.42628
732.94        51.14309
733.36        50.85889
733.78        50.66384
734.20        50.59883
734.62        50.75848
735.04        51.23647
735.46        50.99077
735.88        51.52958
736.30         51.6046
736.72        51.70394
737.13        51.91558
737.55        52.16867
737.97        52.39194
738.39        52.47497
738.81        52.15739
739.23        51.58051
739.65        51.41908
740.06        51.67457
740.48        51.81142
740.90        51.80192
741.32        52.01078
741.74        52.38907
742.16        52.63328
742.57        52.69479
742.99        52.64429
743.41        52.52047
743.83        52.37139
744.25        52.22698
744.67        52.06704
745.08        51.94143
745.50        51.91449
745.92        52.00279
746.34        52.18932
746.75        52.40511
747.17        52.52155
747.59        52.50922
748.01        52.39544
748.42        52.24196
748.84        52.15279
749.26        52.15366
749.68         52.2131
750.09        52.27752
750.51        52.25918
750.93        52.14516
751.35        51.99459
751.76        51.83953
752.18        51.72021
752.60        51.64854
753.01        51.62589
753.43        51.63467
753.85        51.66456
754.27        51.71241
754.68        51.79278
755.10        51.88551
755.52        51.95467
755.93        51.98313
756.35        51.96732
756.77        51.98396
757.18        52.03564
757.60        52.11483
758.02        52.46399
758.43        52.98549
758.85        52.44754
759.26        52.42901
759.68         52.1143
760.10        52.03236
760.51        52.15559
760.93        52.46482
761.34        52.39066
761.76        52.67027
762.18        52.76974
762.59        52.93979
763.01        53.06784
763.42        53.16248
763.84        53.16732
764.26        53.09538
764.67        52.87178
765.09        52.60664
765.50        52.55926
765.92        52.67655
766.33        52.52243
766.75        52.09442
767.16        51.83763
767.58        51.80137
768.00        51.92674
768.41        52.17961
768.83        52.33537
769.24        52.34872
769.66        52.51649
770.07        52.76248
770.49        52.53363
770.90        52.02144
771.32        52.22721
771.73        53.02964
772.15        53.32287
772.56        53.05174
772.97        52.75534
773.39        52.58242
773.80        52.63061
774.22        52.87255
774.63         53.0959
775.05        53.17909
775.46        53.21406
775.88        53.15302
776.29        52.91646
776.70        52.61044
777.12        52.49905
777.53        52.63609
777.95        52.90896
778.36        53.22293
778.77        53.39206
779.19         53.3792
779.60        53.26525
780.02        53.08484
780.43        52.96689
780.84        52.97606
781.26        52.79741
781.67        52.53339
782.09        53.00299
782.50        53.99234
782.91        53.71635
783.33        53.18663
783.74        52.85161
784.15        53.04934
784.57        53.06455
784.98        52.92921
785.39        52.94042
785.81        53.12389
786.22        53.52463
786.63        54.00002
787.04        54.20848
787.46        54.10785
787.87         53.8204
788.28        53.51822
788.70        53.39402
789.11        53.47682
789.52        53.78922
789.93        54.16555
790.35        54.17695
790.76        53.83636
791.17        53.55775
791.58        53.45045
792.00        53.32814
792.41        53.23084
792.82         53.4369
793.23        53.82175
793.65        53.75002
794.06        53.33498
794.47        53.41615
794.88        53.92575
795.29        54.10994
795.71        53.91661
796.12        53.86498
796.53        53.98476
796.94        53.91186
797.35        53.73507
797.76        53.98865
798.18        54.53478
798.59        54.72661
799.00          54.487
799.41        54.15506
799.82        53.86619
800.23        53.70973
800.64        53.73532
801.06        53.88245
801.47        54.10556
801.88        54.25035
802.29        54.26489
802.70        54.19559
803.11         54.0561
803.52        53.86945
803.93        53.67141
804.34        53.45967
804.75        53.29841
805.17        53.32648
805.58        53.59284
805.99         53.9129
806.40        54.21798
806.81        54.68925
807.22        55.12953
807.63        54.88179
808.04        54.10421
808.45        53.66864
808.86        53.68213
809.27        53.71273
809.68        53.69572
810.09        53.71947
810.50        53.76281
810.91        53.80452
811.32        53.90153
811.73        54.14035
812.14        54.51928
812.55        54.99417
812.96        55.42298
813.37        55.55002
813.78        55.31483
814.19        54.82327
814.60        54.23449
815.01        53.75874
815.42          53.452
815.83        53.25861
816.24        53.17739
816.65         53.1987
817.05        53.31233
817.46        53.51531
817.87        53.74606
818.28        53.86458
818.69        53.84283
819.10        53.68621
819.51        53.51759
819.92        53.57203
820.33        53.89367
820.74        54.40125
821.14        54.90387
821.55        55.09531
821.96        54.91128
822.37        54.45506
822.78        53.90442
823.19        53.56179
823.60        53.52568
824.00        53.72327
824.41        54.02363
824.82        54.27617
825.23        54.40543
825.64        54.46398
826.04        54.45618
826.45        54.35521
826.86        54.18272
827.27        53.93823
827.68        53.67562
828.08         53.5197
828.49        53.46437
828.90        53.50714
829.31        53.62312
829.72        53.75877
830.12        53.91014
830.53        54.04663
830.94        54.15031
831.35        54.15786
831.75        54.07129
832.16        53.88002
832.57         53.6676
832.97        53.55572
833.38        53.57069
833.79        53.66567
834.20        53.78773
834.60        53.84553
835.01        53.81827
835.42        53.77295
835.82        53.71654
836.23        53.60231
836.64        53.46292
837.04        53.28456
837.45        53.20068
837.86        53.47628
838.26        54.15337
838.67        55.11204
839.08        56.03422
839.48         56.3194
839.89        55.82199
840.29        54.76134
840.70        53.61504
841.11        52.92785
841.51        52.84754
841.92        53.20202
842.33        53.82313
842.73        54.40509
843.14        54.73352
843.54        54.93286
843.95        55.04493
844.35        55.18003
844.76        55.34981
845.17        55.49337
845.57        55.55429
845.98        55.43991
846.38        55.16175
846.79        54.76713
847.19        54.36581
847.60        54.10467
848.00        54.03504
848.41        54.10294
848.81        54.25796
849.22        54.34436
849.62        54.34505
850.03        54.28284
850.43        54.20594
850.84        54.14329
851.24        54.13878
851.65        54.12657
852.05        54.15668
852.46        54.23868
852.86           54.37
853.27        54.55276
853.67         54.6806
854.07        54.68513
854.48        54.53954
854.88        54.28035
855.29        53.96399
855.69        53.79275
856.10        53.77628
856.50        53.92912
856.90        54.12806
857.31        54.17896
857.71        54.07403
858.12        53.80641
858.52        53.53474
858.92        53.43893
859.33        53.54708
859.73        53.83444
860.13        54.11744
860.54        54.10707
860.94        53.78232
861.34        53.24425
861.75        52.68564
862.15        52.45242
862.55        52.61648
862.96        53.02791
863.36        53.60308
863.76        54.13206
864.17        54.49958
864.57        54.79128
864.97        54.88536
865.38        54.60509
865.78        53.98075
866.18        53.04784
866.58        52.10732
866.99        51.70577
867.39        51.99358
867.79        52.81211
868.19        53.81161
868.60        54.42638
869.00        54.53132
869.40        54.25069
869.80        53.78207
870.21        53.51491
870.61        53.63105
871.01        53.94859
871.41        54.27449
871.81        54.35279
872.22        54.12621
872.62        53.68693
873.02        53.20051
873.42        52.92477
873.82        52.94142
874.22        53.17833
874.63        53.46315
875.03        53.54827
875.43        53.36362
875.83        52.98725
876.23        52.61095
876.63          52.532
877.03        52.81039
877.44        53.31813
877.84        53.84886
878.24        54.10236
878.64        53.94366
879.04        53.30921
879.44        52.51637
879.84        52.18967
880.24        52.41352
880.64        52.94791
881.04        53.47533
881.44        53.51342
881.84        52.95641
882.24        51.99966
882.65        50.98557
883.05        50.43115
883.45        50.47684
883.85        50.96149
884.25        51.67558
884.65        52.26202
885.05        52.57669
885.45        52.70868
885.85        52.72666
886.25        52.73576
886.65        52.77767
887.05        52.81037
887.45        52.79518
887.85        52.69338
888.25        52.50373
888.65        52.25019
889.04        52.02461
889.44        51.97916
889.84         52.1214
890.24        52.40956
890.64        52.68661
891.04        52.69482
891.44        52.39344
891.84        51.88576
892.24        51.36067
892.64        51.09616
893.04        51.16369
893.44         51.4865
893.83        51.96307
894.23        52.37669
894.63        52.66283
895.03        52.84966
895.43        52.99368
895.83        53.19408
896.23        53.45587
896.63        53.71712
897.02        53.85041
897.42        53.69799
897.82        53.24399
898.22        52.58762
898.62        51.89033
899.01        51.37265
899.41        51.11221
899.81         51.0542
900.21        51.13355
900.61        51.23643
901.00        51.31602
901.40        51.39279
901.80        51.48426
902.20        51.61398
902.59        51.79045
902.99        51.98959
903.39        52.15545
903.79        52.20788
904.18        52.12506
904.58        51.92753
904.98        51.74157
905.38        51.76451
905.77        52.03078
906.17        52.50878
906.57        52.97908
906.96        53.07704
907.36        52.71873
907.76        52.02096
908.15        51.32866
908.55        51.16962
908.95        51.65609
909.34        52.62672
909.74        53.65299
910.14        54.09936
910.53        53.77286
910.93        52.89951
911.33        51.80137
911.72        50.96546
912.12        50.59698
912.52        50.56422
912.91        50.70726
913.31         50.7923
913.70        50.75768
914.10        50.65178
914.49         50.6632
914.89        51.02833
915.29        51.78708
915.68        52.83574
916.08        53.79857
916.47        54.12107
916.87        53.70922
917.26        52.74149
917.66        51.69842
918.05        51.18273
918.45        51.33105
918.84        51.99984
919.24        52.84775
919.64        53.38006
920.03        53.43604
920.42        53.13948
920.82        52.74585
921.21         52.5938
921.61         52.7615
922.00        53.15922
922.40        53.56697
922.79        53.73103
923.19        53.55745
923.58        53.17791
923.98        52.78022
924.37        52.58348
924.77        52.64979
925.16        52.86417
925.55        53.14246
925.95        53.32768
926.34        53.36817
926.74        53.30242
927.13        53.11029
927.52        52.69749
927.92        52.12877
928.31        51.43943
928.70        50.81924
929.10        50.53248
929.49        50.61694
929.89        50.96198
930.28        51.50542
930.67        52.03056
931.07        52.41967
931.46        52.78193
931.85        52.98266
932.24        52.86069
932.64        52.45168
933.03         51.7617
933.42        51.13464
933.82        51.07189
934.21        51.65596
934.60        52.80004
934.99        54.06334
935.39        54.64206
935.78        54.34937
936.17        53.32797
936.56        52.10802
936.96        51.52951
937.35         51.7807
937.74        52.61066
938.13        53.47659
938.53        53.53237
938.92        52.62355
939.31        51.09815
939.70        49.49667
940.09        48.57395
940.49        48.48758
940.88        49.02244
941.27        49.88351
941.66        50.53288
942.05        50.76762
942.44        50.76126
942.84        50.65434
943.23        50.64816
943.62        50.81484
944.01        51.03017
944.40        51.26722
944.79        51.52663
945.18        51.77093
945.57        51.99887
945.97        52.09479
946.36        51.94085
946.75            51.5
947.14        50.87444
947.53        50.18807
947.92         49.6045
948.31        49.18422
948.70        48.89127
949.09        48.77725
949.48        48.91978
949.87        49.30706
950.26        49.90842
950.65         50.5568
951.04        50.97034
951.43        51.07079
951.82        50.91855
952.21        50.65267
952.60        50.52177
952.99        50.60602
953.38        50.83652
953.77        51.14623
954.16        51.43589
954.55        51.65488
954.94        51.80929
955.33        51.92081
955.72        52.01313
956.11        52.09023
956.50        52.16702
956.89        52.11826
957.28        51.75191
957.66        51.06945
958.05        50.18381
958.44        49.41662
958.83        49.22782
959.22        49.66785
959.61        50.59196
960.00        51.60873
960.39        51.98864
960.78        51.52265
961.16        50.45599
961.55        49.20151
961.94        48.29118
962.33        47.88131
962.72         47.8496
963.11        48.08308
963.49         48.3841
963.88        48.60591
964.27        48.80364
964.66        49.07991
965.04        49.61693
965.43        50.38529
965.82        51.33242
966.21        52.13134
966.60        52.19405
966.98         51.3865
967.37        50.00555
967.76        48.58352
968.15        47.77188
968.53        47.70821
968.92        48.25312
969.31        49.11576
969.69        49.69808
970.08        49.71885
970.47        49.34222
970.86        48.95005
971.24        49.10488
971.63        49.90749
972.02        51.18879
972.40         52.4803
972.79        52.69691
973.17        51.64356
973.56        49.76697
973.95        47.82608
974.33        46.76245
974.72         46.7758
975.11         47.5886
975.49        48.88235
975.88        49.98563
976.26        50.61605
976.65        50.88347
977.04        50.90654
977.42        50.86391
977.81        50.78572
978.19        50.56523
978.58        50.27608
978.96         50.0159
979.35        49.81007
979.74        49.71815
980.12        49.75201
980.51        49.70136
980.89        49.64751
981.28        49.60312
981.66        49.71723
982.05        50.17696
982.43        50.99973
982.82        52.05694
983.20        53.23766
983.59        54.26019
983.97         55.0237
984.35         55.5675
984.74        55.65073
985.12        55.14688
985.51        54.06304
985.89        52.54021
986.28        51.11686
986.66        50.49821
987.04        50.87598
987.43        52.05487
987.81        53.59171
988.20        54.51159
988.58        54.47349
988.96        53.68821
989.35        52.53093
989.73        51.57503
990.12        50.97305
990.50         50.5968
990.88        50.27358
991.27        49.76171
991.65        49.04124
992.03        48.27239
992.42        47.75243
992.80        47.84417
993.18        48.61064
993.56        49.94997
993.95        51.42559
994.33        52.35075
994.71        52.38246
995.10        51.76057
995.48        50.92584
995.86          50.645
996.24        51.09406
996.63        51.94853
997.01        53.00724
997.39        53.57524
997.77        53.38694
998.15        52.80019
998.54        51.93084
998.92        50.81025
999.30        49.63262
999.68        48.40067
1000.06        47.62552
1000.45        48.02935
1000.83        49.78831
1001.21        52.79526
1001.59        56.33598
1001.97        58.57887
1002.35        58.77218
1002.73        57.42249
1003.12        55.53389
1003.50        54.36605
1003.88        54.31947
1004.26        54.89418
1004.64         55.9396
1005.02        57.08576
1005.40        58.04022
1005.78        59.10321
1006.16        59.63167
1006.54        58.56949
1006.92        55.98621
1007.30        52.28325
1007.69        48.94637
1008.07        47.96577
1008.45        49.89178
1008.83        54.34642
1009.21        60.00263
1009.59        63.47855
1009.97        63.17748
1010.35        60.05127
1010.73        55.68128
1011.11        52.38913
1011.49        50.85109
1011.86        50.36088
1012.24        50.53903
1012.62        50.94624
1013.00        51.39658
1013.38        52.12453
1013.76        53.08183
1014.14        53.89803
1014.52         54.3684
1014.90        54.47436
1015.28        54.21104
1015.66        53.71703
1016.04        53.06329
1016.41        52.15961
1016.79        51.36858
1017.17        51.36234
1017.55        52.23568
1017.93        53.81741
1018.31        55.33232
1018.69        55.64488
1019.06        54.53128
1019.44        52.15399
1019.82        49.34121
1020.20        48.13584
1020.58        49.22567
1020.95        51.74524
1021.33        54.44011
1021.71        55.78697
1022.09        55.57128
1022.46        54.31857
1022.84        52.26775
1023.22        50.27279
1023.60        48.99605
1023.97        48.05676
1024.35        47.90148
1024.73        48.84856
