SpectraSmart Spectrum 2.9.0.0
--------- Device Information -----------
Spectrum Name :  反射率_0
Saving Time :  2024/04/27 00:23:02
Spectro-Module Model Name : SE2030-DUVN
Spectro-Module Serial Number : OS361AC55029948
Wavelength Start : 200
Wavelength End : 1025
Wavelength Unit : Wavelength(nm)
Spectrum Unit : Reflectance(%)
-----------Spectrum Setting ------------
Integration Time : 20ms
Average : 10
Boxcar : 0
Background removal :  enabled
linearity correction :  enabled
SC :  disabled
Intensity correction :  disabled
DWT denoise :  enabled
savitzky-golay :  disabled
FFT :  disabled
Running average :  disabled
Kalman :  disabled
High pass :  disabled
---------------BEGIN--------------------
Wavelength(nm)             Reflectance(%)
200.29               0
200.75         14.9091
201.21         17.7499
201.67        19.89371
202.13        20.86108
202.58        20.71172
203.04        19.99093
203.50         18.9681
203.96         18.4492
204.42        18.99514
204.88        20.15566
205.34        22.04835
205.80        24.68969
206.26        27.43763
206.72        29.93951
207.18        31.01953
207.64        29.47842
208.10        25.11995
208.55        17.30648
209.01        6.501745
209.47        1.023492
209.93        5.196852
210.39        13.51367
210.85        20.52282
211.31        24.16643
211.77        25.24998
212.23        24.39956
212.69        19.98963
213.14        13.55455
213.60        13.74147
214.06        17.84164
214.52         20.8054
214.98        22.77508
215.44        24.29186
215.90        25.82676
216.36        26.86007
216.81        25.99874
217.27        23.15857
217.73        18.40049
218.19        11.95319
218.65        8.178849
219.11         9.96341
219.57        14.07899
220.02        19.02576
220.48        25.69422
220.94        35.45736
221.40         50.7963
221.86        71.38229
222.32        83.82492
222.77        77.25684
223.23        61.02376
223.69        45.87943
224.15        37.91951
224.61         35.7167
225.06        36.07644
225.52        37.82136
225.98        39.86221
226.44        41.84659
226.90        44.24076
227.36          46.306
227.81         46.5602
228.27           45.05
228.73        42.32294
229.19        39.72327
229.65        38.83496
230.10        39.72311
230.56         41.8558
231.02        44.28054
231.48        45.43792
231.93        44.97773
232.39        43.76086
232.85         42.4744
233.31        42.05666
233.77        42.61415
234.22        43.74603
234.68        45.08845
235.14          46.263
235.60        47.06001
236.05        47.62129
236.51        47.71211
236.97        46.87207
237.43        45.08749
237.88        42.65361
238.34        40.02859
238.80          38.097
239.26        37.17328
239.71        37.29843
240.17        38.70536
240.63         41.9796
241.08        47.21472
241.54        54.01978
242.00         61.0913
242.46        66.41928
242.91        69.48098
243.37         68.8468
243.83         63.1973
244.28        53.05932
244.74        41.61517
245.20        32.72066
245.66        28.22629
246.11        25.93183
246.57        24.93113
247.03        25.17311
247.48        26.83546
247.94        29.29074
248.40        31.61101
248.85        33.25436
249.31        33.89098
249.77        33.07206
250.22        30.64115
250.68        26.37059
251.14        21.06158
251.59        18.37238
252.05        20.71472
252.51         26.6198
252.96        32.29219
253.42        34.39856
253.88         33.3157
254.33        30.33143
254.79        28.30317
255.25        29.60884
255.70        33.99249
256.16        40.42436
256.62        45.88525
257.07        45.95279
257.53        41.89011
257.99        36.63758
258.44         32.6336
258.90        31.90496
259.35        33.53297
259.81         36.4928
260.27        39.33572
260.72         40.2813
261.18        39.42343
261.63        37.49966
262.09        35.65272
262.55        34.72617
263.00         34.6638
263.46        35.12832
263.91        35.49615
264.37        35.17296
264.83        34.13401
265.28        32.68855
265.74        31.39889
266.19        30.74247
266.65        30.80482
267.11        31.29958
267.56        31.90101
268.02        32.09133
268.47        31.73473
268.93        31.03555
269.38        30.15023
269.84        29.35275
270.30        28.73001
270.75        28.18847
271.21         27.7688
271.66        27.50094
272.12        27.36824
272.57        27.35265
273.03        27.34089
273.48        27.13007
273.94        26.71525
274.39        26.13256
274.85        25.52765
275.31        25.00754
275.76         24.5864
276.22        24.24482
276.67        23.94554
277.13        23.69533
277.58        23.44605
278.04         23.2236
278.49        22.94665
278.95        22.58039
279.40        22.09622
279.86        21.57988
280.31        21.05541
280.77        20.63384
281.22        20.30643
281.68        20.06674
282.13        19.88992
282.59        19.80017
283.04        19.75852
283.50        19.76389
283.95        19.73736
284.41         19.5606
284.86        19.22194
285.32        18.78543
285.77        18.33504
286.22        18.03222
286.68        17.90117
287.13        17.86357
287.59        17.86723
288.04        17.79731
288.50        17.64099
288.95        17.42607
289.41        17.17438
289.86         16.8704
290.32        16.55193
290.77         16.2148
291.22         15.9295
291.68        15.79516
292.13        15.81651
292.59        15.97093
293.04        16.18291
293.50        16.34405
293.95        16.41826
294.40        16.44095
294.86        16.45537
295.31        16.52844
295.77        16.68316
296.22        16.88911
296.68        17.13129
297.13        17.38034
297.58        17.62863
298.04        17.88932
298.49        18.15571
298.95        18.42628
299.40        18.69201
299.85        18.94242
300.31        19.18042
300.76        19.41471
301.21        19.64087
301.67        19.86529
302.12         20.0485
302.58        20.16867
303.03         20.2132
303.48        20.21333
303.94        20.21412
304.39        20.26579
304.84        20.38357
305.30        20.55532
305.75        20.73803
306.20        20.90312
306.66        21.03906
307.11        21.14307
307.57        21.21643
308.02        21.23674
308.47         21.2091
308.93        21.14228
309.38        21.04947
309.83        20.98293
310.29        20.95306
310.74        20.94649
311.19        20.93389
311.65        20.86203
312.10        20.71986
312.55        20.52704
313.00        20.32765
313.46         20.1853
313.91        20.10352
314.36        20.06551
314.82         20.0288
315.27        19.93087
315.72        19.75765
316.18        19.54033
316.63         19.3103
317.08        19.12373
317.53         18.9949
317.99        18.90028
318.44        18.83033
318.89         18.7624
319.35        18.68462
319.80        18.60079
320.25        18.50054
320.70        18.36656
321.16        18.19732
321.61        18.00598
322.06        17.80483
322.51        17.61801
322.97        17.45406
323.42        17.31077
323.87        17.20003
324.32        17.14245
324.78        17.12919
325.23        17.15901
325.68        17.17783
326.13        17.09967
326.59        16.90474
327.04        16.62519
327.49        16.31985
327.94         16.0844
328.39        15.94155
328.85        15.85921
329.30        15.81456
329.75        15.73567
330.20        15.60483
330.66        15.44981
331.11        15.29703
331.56        15.17361
332.01        15.08663
332.46        15.01158
332.92        14.94674
333.37        14.92013
333.82        14.91922
334.27        14.94393
334.72        14.93913
335.17        14.81274
335.63        14.55212
336.08        14.19493
336.53        13.83576
336.98        13.63608
337.43        13.63865
337.88        13.80166
338.34         14.0332
338.79         14.1834
339.24        14.19578
339.69        14.10964
340.14         13.9786
340.59        13.89513
341.05        13.88986
341.50        13.92258
341.95         13.9598
342.40        13.95561
342.85        13.90127
343.30         13.8208
343.75        13.73559
344.20        13.67838
344.66        13.66206
345.11        13.66785
345.56        13.68947
346.01        13.71853
346.46        13.75062
346.91        13.79457
347.36        13.82923
347.81        13.82191
348.26        13.77186
348.72        13.68738
349.17         13.6141
349.62        13.63544
350.07        13.76231
350.52        13.96677
350.97        14.17227
351.42        14.25486
351.87        14.18721
352.32        14.00963
352.77        13.79748
353.22        13.66344
353.67         13.6344
354.13        13.67889
354.58        13.74418
355.03        13.75007
355.48        13.67676
355.93        13.55889
356.38        13.43536
356.83        13.36092
357.28        13.34652
357.73        13.36435
358.18        13.39446
358.63        13.40821
359.08        13.39186
359.53        13.35669
359.98        13.29251
360.43        13.18083
360.88        13.02585
361.33        12.83624
361.78        12.64674
362.23        12.51631
362.68         12.4578
363.13        12.45208
363.58        12.46902
364.03        12.45821
364.48        12.40394
364.93        12.32334
365.38        12.22257
365.83        12.11223
366.28         12.0036
366.73        11.89529
367.18        11.80582
367.63        11.76595
368.08        11.77702
368.53        11.82533
368.98        11.88688
369.43        11.92179
369.88        11.91539
370.33        11.87663
370.78        11.80488
371.23        11.70269
371.68        11.57848
372.13        11.43503
372.58        11.29544
373.03        11.19618
373.48        11.14461
373.93         11.1312
374.38        11.13599
374.83        11.12384
375.28        11.08243
375.72         11.0176
376.17        10.94146
376.62        10.85714
377.07        10.77124
377.52        10.68518
377.97        10.60663
378.42        10.55159
378.87        10.52147
379.32        10.50513
379.77        10.50354
380.22        10.51651
380.67         10.5386
381.11        10.57575
381.56        10.58637
382.01        10.51242
382.46        10.35291
382.91        10.13364
383.36        9.929011
383.81        9.842397
384.26         9.88615
384.71        10.02631
385.15         10.1885
385.60         10.2526
386.05        10.18367
386.50        10.02196
386.95        9.826842
387.40        9.690368
387.85        9.638885
388.29        9.637822
388.74        9.665428
389.19        9.672625
389.64        9.647566
390.09        9.604049
390.54        9.561811
390.98           9.547
391.43        9.569016
391.88        9.611851
392.33        9.646828
392.78        9.635895
393.23        9.576174
393.67        9.479865
394.12        9.387557
394.57        9.338339
395.02        9.340066
395.47        9.375594
395.91        9.425116
396.36        9.446377
396.81        9.433653
397.26        9.403053
397.71        9.361009
398.15        9.322141
398.60        9.303277
399.05        9.258324
399.50        9.206304
399.95        9.244302
400.39        9.343037
400.84        9.331484
401.29        9.209429
401.74         9.12168
402.18        9.075445
402.63         8.98249
403.08        8.865115
403.53        8.798626
403.97        8.791272
404.42        8.822985
404.87        8.864748
405.32        8.867021
405.76        8.817091
406.21        8.736143
406.66        8.652199
407.11        8.610443
407.55        8.623393
408.00         8.67052
408.45        8.729443
408.90        8.755911
409.34        8.736601
409.79          8.6901
410.24        8.633355
410.68        8.586113
411.13        8.557414
411.58        8.535315
412.03        8.521924
412.47        8.524326
412.92        8.535882
413.37        8.556113
413.81        8.564563
414.26        8.535765
414.71        8.464292
415.15        8.360749
415.60        8.244102
416.05        8.156541
416.49        8.114285
416.94         8.10537
417.39        8.120946
417.83         8.14394
418.28        8.165877
418.73        8.193822
419.17        8.218201
419.62        8.223201
420.07        8.206899
420.51        8.166834
420.96        8.126694
421.41        8.123675
421.85        8.158643
422.30        8.218614
422.74        8.264796
423.19        8.280241
423.64        8.242285
424.08        8.112819
424.53        7.937468
424.98        7.861048
425.42        7.910501
425.87        8.007821
426.31        8.092924
426.76        8.130303
427.21        8.074564
427.65        7.850398
428.10        7.553344
428.54        7.404783
428.99        7.439306
429.44        7.583941
429.88        7.768755
430.33        7.857744
430.77          7.8481
431.22        7.905871
431.66         8.03157
432.11        8.079061
432.56        8.049685
433.00        8.047124
433.45        8.042494
433.89        7.934108
434.34        7.791132
434.78        7.578837
435.23        7.726161
435.67        7.729573
436.12        7.695087
436.57        7.645255
437.01        7.594805
437.46        7.571019
437.90        7.574219
438.35        7.574814
438.79        7.564241
439.24        7.554961
439.68        7.546637
440.13         7.53349
440.57        7.524492
441.02        7.542413
441.46        7.587684
441.91        7.630938
442.35         7.65588
442.80        7.716363
443.24        7.776834
443.69        7.713102
444.13          7.5647
444.58        7.517792
445.02        7.584194
445.47        7.673039
445.91        7.747526
446.36        7.787786
446.80        7.780635
447.24        7.737384
447.69         7.67976
448.13        7.636889
448.58        7.621196
449.02        7.621521
449.47        7.636923
449.91        7.663456
450.36        7.697536
450.80        7.739142
451.25        7.778166
451.69        7.794821
452.13        7.785856
452.58        7.754488
453.02        7.712408
453.47        7.681507
453.91        7.667874
454.36        7.667234
454.80        7.668482
455.24        7.651221
455.69        7.614757
456.13         7.56206
456.58        7.514927
457.02        7.491398
457.46        7.499042
457.91        7.529335
458.35         7.56138
458.79        7.561785
459.24        7.532218
459.68         7.47877
460.13        7.432045
460.57        7.415801
461.01         7.44192
461.46        7.491161
461.90        7.553959
462.34        7.605345
462.79        7.632731
463.23        7.647306
463.68        7.639112
464.12        7.598369
464.56        7.529453
465.01        7.449609
465.45        7.373395
465.89        7.341722
466.34        7.358442
466.78        7.409597
467.22        7.479556
467.67        7.531499
468.11        7.556392
468.55          7.5608
468.99        7.550033
469.44        7.532983
469.88        7.514554
470.32         7.49037
470.77        7.468939
471.21        7.467475
471.65        7.486632
472.10        7.524231
472.54         7.56223
472.98        7.574806
473.42        7.557219
473.87        7.521136
474.31        7.477249
474.75         7.45047
475.20        7.448888
475.64        7.461293
476.08        7.483555
476.52        7.504842
476.97        7.521848
477.41         7.54273
477.85        7.567697
478.29        7.584905
478.74        7.600021
479.18        7.630783
479.62         7.67451
480.06        7.716713
480.50        7.754999
480.95          7.7843
481.39        7.794465
481.83        7.847816
482.27        7.829545
482.72        7.837699
483.16        7.842278
483.60        7.840153
484.04        7.821228
484.48        7.838416
484.93         7.95776
485.37        7.955786
485.81        7.987751
486.25        8.361107
486.69        8.074947
487.14        7.801156
487.58         8.69038
488.02        8.554077
488.46        8.351397
488.90        8.345894
489.34        8.289924
489.79        8.406926
490.23        8.490494
490.67        8.615417
491.11        8.727626
491.55        8.741882
491.99         8.68822
492.43        8.695439
492.88        8.775909
493.32        8.843996
493.76        8.893351
494.20        8.964069
494.64        9.058029
495.08        9.145337
495.52        9.220854
495.96          9.3377
496.41        9.473407
496.85        9.487057
497.29        9.409869
497.73        9.511744
498.17        9.657878
498.61        9.779285
499.05        9.817673
499.49        9.863237
499.93         9.89577
500.37         9.96943
500.82        10.06583
501.26        10.12684
501.70        10.14831
502.14        10.16939
502.58        10.20569
503.02        10.26111
503.46        10.33844
503.90        10.43641
504.34        10.53492
504.78        10.59965
505.22         10.6228
505.66        10.61452
506.10        10.59645
506.54        10.60373
506.98        10.64619
507.42          10.714
507.86        10.79278
508.30        10.85869
508.74        10.90361
509.18        10.93372
509.62        10.95796
510.06        10.99065
510.50         11.0351
510.94        11.08591
511.38        11.13301
511.82        11.16098
512.26        11.16806
512.70        11.16216
513.14        11.15669
513.58        11.17224
514.02        11.21399
514.46        11.27413
514.90        11.34342
515.34        11.40743
515.78        11.45894
516.22        11.49938
516.66        11.52688
517.10        11.53913
517.54        11.53697
517.98        11.52187
518.42        11.49679
518.86        11.46736
519.30        11.43737
519.74        11.40754
520.18        11.38389
520.62        11.37393
521.06        11.37843
521.50        11.39594
521.93        11.41718
522.37        11.42143
522.81        11.40565
523.25        11.37343
523.69        11.33664
524.13        11.31438
524.57        11.31028
525.01        11.31818
525.45        11.32481
525.89        11.30917
526.32        11.26596
526.76        11.20523
527.20        11.14109
527.64         11.0959
528.08        11.07477
528.52        11.07056
528.96        11.07118
529.40        11.05779
529.83        11.02594
530.27        10.98247
530.71        10.93618
531.15        10.90164
531.59        10.88315
532.03         10.8751
532.46        10.86971
532.90        10.86343
533.34        10.85185
533.78        10.83096
534.22        10.80364
534.66        10.78703
535.09        10.77519
535.53         10.7427
535.97        10.69352
536.41        10.66243
536.85        10.65284
537.28        10.64586
537.72        10.64727
538.16        10.67342
538.60        10.72244
539.04        10.78741
539.47        10.84931
539.91        10.88557
540.35        10.89135
540.79        10.87823
541.22        10.86136
541.66        10.87003
542.10         10.9101
542.54        10.97016
542.97        11.04708
543.41        11.13962
543.85        11.24111
544.29        11.35407
544.72        11.45609
545.16        11.52118
545.60        11.54547
546.04        11.53903
546.47        11.53761
546.91        11.59832
547.35         11.7299
547.79        11.91173
548.22        12.10346
548.66        12.24052
549.10        12.32335
549.53        12.36754
549.97        12.39708
550.41        12.42167
550.84        12.46686
551.28        12.55506
551.72         12.6716
552.15        12.80442
552.59        12.96176
553.03        12.95627
553.46        13.16966
553.90         13.2498
554.34        13.30926
554.77        13.35146
555.21        13.39239
555.65        13.44731
556.08        13.51519
556.52        13.58437
556.96         13.6464
557.39        13.72549
557.83        13.80838
558.27        13.81878
558.70        13.77352
559.14        13.78207
559.57         13.8423
560.01        13.88419
560.45        13.90536
560.88         13.9458
561.32         14.0126
561.75        14.07968
562.19        14.14714
562.63        14.21214
563.06        14.27007
563.50        14.32286
563.93        14.36125
564.37        14.40794
564.80        14.47007
565.24        14.50791
565.68        14.49269
566.11        14.69448
566.55        14.58766
566.98        14.61465
567.42         14.6507
567.85        14.72887
568.29        14.85647
568.72        15.02865
569.16        15.23413
569.60        15.38626
570.03        15.53507
570.47        15.64605
570.90        15.73046
571.34        15.81955
571.77        15.88131
572.21        15.95287
572.64        16.02782
573.08        16.09159
573.51        16.17191
573.95        16.34686
574.38        16.58042
574.82        16.67844
575.25        16.51396
575.69        16.54354
576.12        16.59444
576.56        16.75295
576.99        16.99118
577.42        16.82754
577.86        16.72357
578.29         17.0601
578.73        16.75949
579.16        16.75838
579.60        16.66363
580.03        16.72436
580.47        16.72431
580.90        16.66141
581.33        16.59965
581.77        16.82697
582.20        16.46749
582.64        16.34499
583.07        16.23306
583.51        16.18004
583.94        16.22083
584.37        16.23883
584.81        16.20396
585.24        16.06281
585.68        15.87913
586.11        15.80743
586.54        15.72895
586.98        15.71548
587.41        15.71913
587.85        15.66251
588.28         15.4036
588.71        15.47528
589.15        15.43246
589.58        15.37763
590.01        15.44931
590.45        15.44103
590.88        15.42586
591.31        15.32714
591.75        15.22793
592.18        15.22433
592.61        15.26047
593.05        15.58291
593.48        15.64709
593.91        15.32953
594.35        15.45593
594.78        15.47929
595.21        15.66361
595.65         15.7827
596.08         15.8834
596.51        15.99838
596.94        16.06306
597.38        16.20789
597.81        16.42253
598.24        16.57558
598.68        16.65772
599.11        17.00746
599.54        17.17675
599.97        17.10066
600.41        17.52068
600.84        17.59442
601.27        17.84558
601.70        18.04586
602.14        18.27177
602.57        18.59771
603.00        19.02318
603.43        19.09704
603.87        19.56357
604.30        19.81886
604.73        20.12597
605.16        20.32113
605.60        20.63119
606.03        20.81665
606.46        21.00268
606.89        21.10369
607.32        21.96862
607.76        22.20676
608.19         22.5358
608.62        22.78088
609.05        23.15362
609.48        23.40003
609.92        23.80437
610.35        24.10316
610.78        24.15293
611.21        24.26075
611.64        24.64419
612.07        25.02855
612.50        25.31458
612.94        25.61399
613.37        25.87612
613.80        25.98158
614.23        25.99706
614.66        26.21249
615.09        26.62208
615.52        26.91735
615.96        27.07566
616.39        27.34166
616.82        27.73208
617.25        27.86341
617.68        28.18951
618.11        28.40404
618.54        28.64374
618.97        28.84193
619.40        28.99884
619.84        29.25128
620.27        29.32186
620.70        29.49889
621.13        29.66983
621.56        29.65994
621.99        29.53343
622.42        29.59573
622.85        29.81501
623.28         29.9728
623.71        30.07366
624.14        30.02436
624.57          30.336
625.00         30.3477
625.43        30.34381
625.86        30.32343
626.29        30.37433
626.72        30.03329
627.15         30.1325
627.58        30.00268
628.01        29.86166
628.44         29.6981
628.87         29.5259
629.30        29.25266
629.73        28.88584
630.16        28.91354
630.59        28.59198
631.02        28.50126
631.45        28.37927
631.88        28.18295
632.31        27.88866
632.74        27.52098
633.17        27.11133
633.60        26.69148
634.03        26.28166
634.46        25.87544
634.89        25.47301
635.32        25.07914
635.75        24.69676
636.18        24.30468
636.61        23.91903
637.04         23.5732
637.47        23.26723
637.89        22.98695
638.32        22.70442
638.75        22.40069
639.18        22.07345
639.61        21.73067
640.04        21.40137
640.47        21.12729
640.90        20.91575
641.33        20.75777
641.76        20.62049
642.18        20.45244
642.61        20.23958
643.04        20.00297
643.47        19.78898
643.90        19.67043
644.33        19.66204
644.76        19.74025
645.18        19.85615
645.61        19.92627
646.04        19.93173
646.47        19.89882
646.90        19.87024
647.33        19.91417
647.75        20.04332
648.18        20.24599
648.61        20.50154
649.04        20.73044
649.47        20.88519
649.89         21.2412
650.32        21.27083
650.75        21.50669
651.18        21.80044
651.61        22.18786
652.03        22.63208
652.46        22.97589
652.89        23.25681
653.32        23.61644
653.74        24.04383
654.17        24.45656
654.60        24.82749
655.03        24.89736
655.46        25.12929
655.88        25.81949
656.31        27.24303
656.74        28.13004
657.16        27.70796
657.59        27.83751
658.02        27.67952
658.45        28.52047
658.87        28.50328
659.30        28.62119
659.73        28.77373
660.15         29.7595
660.58        29.59974
661.01        29.97434
661.44        30.31017
661.86         30.5597
662.29         30.7094
662.72        31.17669
663.14        31.37727
663.57        31.62458
664.00         31.7874
664.42        32.07056
664.85        32.49521
665.27        32.97279
665.70        33.42213
666.13         33.7715
666.55        33.99773
666.98        34.08878
667.41        34.09293
667.83        34.30975
668.26         34.4119
668.69        34.66702
669.11        34.94925
669.54        35.22691
669.96         35.4869
670.39        35.73807
670.82        35.98521
671.24        36.21926
671.67        36.43468
672.09        36.61054
672.52        36.75829
672.94        36.90229
673.37        37.04195
673.80        37.12541
674.22        37.18304
674.65         37.2902
675.07        37.46539
675.50        37.66055
675.92         37.8597
676.35        38.04463
676.77        38.20686
677.20        38.34974
677.62        38.47902
678.05        38.60151
678.47        38.71648
678.90        38.83611
679.32        38.96857
679.75        39.09239
680.17        39.19877
680.60        39.46034
681.02        39.56769
681.45        39.74484
681.87        39.90691
682.30        40.03815
682.72        40.15483
683.15        40.31741
683.57        40.51416
684.00        40.60865
684.42        40.62983
684.85        40.72863
685.27        40.90747
685.70         41.1108
686.12        41.29311
686.54        41.38374
686.97        41.39096
687.39        41.42445
687.82        41.50012
688.24        41.56891
688.66        41.63801
689.09         41.7532
689.51         41.9074
689.94        42.03947
690.36        42.14572
690.78        42.23081
691.21        42.32605
691.63        42.47577
692.06        42.68692
692.48        42.94773
692.90        43.19596
693.33        43.33752
693.75        43.35765
694.17         43.2692
694.60        43.17087
695.02        43.24153
695.44        43.50108
695.87        43.86184
696.29        44.23024
696.71        44.41642
697.14        44.41511
697.56        44.37901
697.98        44.39237
698.41        44.47661
698.83        44.64936
699.25        44.96448
699.68        45.31267
700.10        45.51619
700.52        45.52336
700.94        45.39977
701.37         45.2674
701.79        45.32743
702.21        45.61776
702.64        46.06063
703.06        46.54302
703.48        46.86991
703.90        46.98517
704.33        46.95113
704.75        46.84312
705.17        46.77547
705.59        46.79683
706.01        46.87572
706.44        46.99931
706.86        47.17116
707.28        47.37282
707.70        47.57514
708.12        47.77981
708.55           48.05
708.97        48.34507
709.39        48.48471
709.81         48.4791
710.23        48.52578
710.66         48.6387
711.08         48.7142
711.50        48.74158
711.92        48.77187
712.34         48.8137
712.76        48.86712
713.19        48.92524
713.61        49.00208
714.03        49.08735
714.45        49.17963
714.87        49.30295
715.29        49.49623
715.71        49.76089
716.13         50.0771
716.56        50.37069
716.98        50.60039
717.40        50.72007
717.82        50.69686
718.24         50.5839
718.66        50.59757
719.08        50.71268
719.50        50.63679
719.92        50.42586
720.34        50.41004
720.76         50.6086
721.19        50.82959
721.61        51.06636
722.03        51.34398
722.45        51.63192
722.87        51.90578
723.29        52.11544
723.71        52.18259
724.13        52.09694
724.55        51.91235
724.97        51.71659
725.39        51.57019
725.81        51.49825
726.23        51.72359
726.65        51.91017
727.07        52.01288
727.49        52.37125
727.91        52.62783
728.33        52.88645
728.75         53.0845
729.17        53.20989
729.59        53.25355
730.01        53.23677
730.43        53.21846
730.85        53.21717
731.27        53.22606
731.69        53.23549
732.10        53.22589
732.52        53.19293
732.94          53.159
733.36        53.16742
733.78        53.16167
734.20        53.13605
734.62         53.3432
735.04        53.79797
735.46        53.42046
735.88        53.83262
736.30        53.97812
736.72        54.32997
737.13        54.65174
737.55        54.83686
737.97        55.05862
738.39        55.21963
738.81        54.84601
739.23        54.17121
739.65        54.20762
740.06        54.84015
740.48        55.18925
740.90        55.22704
741.32         54.9848
741.74        55.46417
742.16        55.57017
742.57        55.58556
742.99        55.57504
743.41        55.56065
743.83        55.49557
744.25        55.40631
744.67        55.39546
745.08         55.4852
745.50        55.59723
745.92        55.73193
746.34        55.93919
746.75        56.16169
747.17        56.26581
747.59        56.23749
748.01        56.11197
748.42        55.96595
748.84        55.93858
749.26        56.06139
749.68        56.25128
750.09        56.44338
750.51         56.6238
750.93        56.71296
751.35        56.57341
751.76        56.29283
752.18        56.11641
752.60        56.06512
753.01         56.2715
753.43        56.29353
753.85        56.30093
754.27         56.4022
754.68        56.44548
755.10        56.52243
755.52        56.57673
755.93        56.62371
756.35        56.83828
756.77        57.19348
757.18        57.21793
757.60        56.96376
758.02        57.24344
758.43        57.95056
758.85        57.38924
759.26        57.33682
759.68        56.98622
760.10        56.88394
760.51        57.44855
760.93        57.80625
761.34        57.54993
761.76         57.5695
762.18        57.50096
762.59        57.54153
763.01        57.76174
763.42        58.05838
763.84        58.15616
764.26        58.02646
764.67        57.74972
765.09        57.49535
765.50         57.4652
765.92        57.66694
766.33        57.83766
766.75        57.84727
767.16        57.81562
767.58        57.74549
768.00        57.52515
768.41        57.31785
768.83          57.744
769.24        58.55458
769.66        58.63913
770.07        58.06221
770.49        57.69148
770.90         57.7081
771.32        58.11444
771.73        58.74626
772.15        59.00977
772.56        58.85723
772.97        58.61528
773.39        58.42445
773.80        58.42442
774.22        58.62604
774.63        58.82834
775.05        59.10119
775.46        59.21849
775.88        59.17932
776.29        58.99465
776.70        58.77165
777.12        58.72959
777.53        58.91671
777.95        59.22255
778.36        59.56403
778.77        59.76494
779.19        59.78833
779.60        59.73588
780.02        59.61127
780.43        59.43779
780.84        59.30128
781.26        59.04557
781.67        58.80624
782.09        59.29919
782.50        60.23186
782.91        60.18493
783.33        59.30005
783.74          59.045
784.15        59.47473
784.57        59.86922
784.98        60.11743
785.39        60.02201
785.81        59.72455
786.22        60.12261
786.63        61.02442
787.04        61.17446
787.46        60.64138
787.87        60.39703
788.28        60.51203
788.70        60.72195
789.11        60.57436
789.52        60.62511
789.93        60.71133
790.35        60.58953
790.76        60.34507
791.17        60.38401
791.58        60.70548
792.00        60.83805
792.41        60.76096
792.82        60.96351
793.23        61.32068
793.65        61.00776
794.06        60.30706
794.47        60.43386
794.88        61.17036
795.29        61.93869
795.71        61.28815
796.12        61.15229
796.53        61.19236
796.94        61.13485
797.35        61.13318
797.76         61.0875
798.18        62.07621
798.59        62.33385
799.00        62.13163
799.41        61.82307
799.82        61.54947
800.23        61.37313
800.64        61.33545
801.06        61.38713
801.47        61.51223
801.88        61.60638
802.29        61.62859
802.70        61.61007
803.11        61.53574
803.52        61.37849
803.93        61.17215
804.34        60.93915
804.75        60.75344
805.17        60.82869
805.58        61.24028
805.99        61.59328
806.40        61.86239
806.81        62.75381
807.22         63.8587
807.63        63.48084
808.04        61.91985
808.45        61.18557
808.86        61.47242
809.27        61.72341
809.68        61.77879
810.09         61.8631
810.50        61.92006
810.91        61.89107
811.32        61.88626
811.73        62.05949
812.14        62.42714
812.55        62.98273
812.96          63.527
813.37        63.58405
813.78        63.12553
814.19        62.54299
814.60        62.02584
815.01        61.61894
815.42        61.38305
815.83        61.37924
816.24         61.5476
816.65         61.6935
817.05        61.76442
817.46        61.80281
817.87         61.8407
818.28        61.87855
818.69        61.92332
819.10        61.94149
819.51        61.97869
819.92        62.13206
820.33        62.40583
820.74        62.76577
821.14        63.09879
821.55        63.21858
821.96        63.09145
822.37        62.77602
822.78        62.39839
823.19        62.17489
823.60        62.17576
824.00        62.36726
824.41        62.62218
824.82        62.81269
825.23        62.87664
825.64         62.8481
826.04         62.7794
826.45         62.7174
826.86        62.69634
827.27        62.71089
827.68        62.70772
828.08        62.62804
828.49        62.42155
828.90        62.12881
829.31         61.8918
829.72        61.93893
830.12        62.32645
830.53        62.93002
830.94        63.52712
831.35        63.69088
831.75        63.33519
832.16        62.58618
832.57        61.72161
832.97        61.16516
833.38        61.04333
833.79        61.21051
834.20        61.57312
834.60         61.9781
835.01        62.35475
835.42         62.7942
835.82         63.2049
836.23        63.34695
836.64        63.20997
837.04        62.80787
837.45        62.41382
837.86         62.5493
838.26        63.32655
838.67        64.55666
839.08        65.80332
839.48         66.2366
839.89        65.64554
840.29        64.34403
840.70        62.92257
841.11        62.05735
841.51        61.93141
841.92        62.31427
842.33         63.0204
842.73        63.71873
843.14        64.16101
843.54        64.49779
843.95        64.71853
844.35        64.85414
844.76        64.90579
845.17        64.82659
845.57        64.66051
845.98        64.48242
846.38        64.34063
846.79        64.23094
847.19        64.13903
847.60        64.00679
848.00        63.83495
848.41        63.62276
848.81        63.43985
849.22        63.31918
849.62        63.31181
850.03        63.40042
850.43        63.53194
850.84        63.55984
851.24        63.49294
851.65        63.30037
852.05        63.18385
852.46        63.39206
852.86        63.94707
853.27        64.72875
853.67         65.4025
854.07        65.61832
854.48        65.30412
854.88        64.60532
855.29        63.71747
855.69         63.1252
856.10        62.93654
856.50         63.0925
856.90        63.42894
857.31        63.67678
857.71         63.7857
858.12        63.77918
858.52        63.72741
858.92        63.63585
859.33        63.50618
859.73        63.35494
860.13        63.16031
860.54        62.92839
860.94        62.71183
861.34         62.5144
861.75        62.37659
862.15        62.39079
862.55        62.54653
862.96        62.77894
863.36        63.05625
863.76        63.24592
864.17        63.29235
864.57        63.26138
864.97        63.11598
865.38        62.81393
865.78        62.40285
866.18        61.89545
866.58        61.45595
866.99         61.3699
867.39         61.7128
867.79          62.381
868.19        63.15945
868.60        63.69825
869.00        63.92751
869.40        63.90318
869.80        63.72304
870.21        63.58854
870.61        63.63148
871.01        63.74624
871.41        63.82042
871.81         63.6982
872.22        63.35231
872.62        62.84064
873.02        62.33645
873.42        62.11384
873.82        62.24198
874.22        62.64017
874.63         63.0808
875.03        63.22357
875.43        62.97759
875.83        62.44742
876.23        61.87119
876.63        61.61927
877.03        61.77959
877.44        62.21514
877.84        62.72289
878.24        62.98108
878.64        62.85357
879.04        62.30797
879.44         61.6433
879.84        61.42729
880.24        61.72952
880.64        62.32381
881.04        62.88111
881.44        62.89579
881.84        62.26532
882.24        61.20229
882.65        60.06516
883.05        59.39498
883.45        59.34452
883.85        59.74606
884.25         60.4183
884.65        61.04383
885.05        61.47992
885.45        61.80798
885.85        62.02119
886.25        62.11199
886.65        62.10164
887.05        61.96806
887.45        61.77806
887.85        61.67129
888.25        61.68347
888.65        61.78855
889.04        61.92599
889.44        62.01579
889.84        62.01685
890.24        61.95126
890.64         61.8366
891.04        61.70542
891.44          61.575
891.84        61.44534
892.24        61.31081
892.64        61.15531
893.04         60.9976
893.44        60.87889
893.83        60.85833
894.23        60.97327
894.63        61.24724
895.03         61.6263
895.43        62.10059
895.83        62.66428
896.23        63.25498
896.63        63.81659
897.02        64.18683
897.42        64.14828
897.82        63.68313
898.22         62.9251
898.62        62.04093
899.01        61.26654
899.41        60.71705
899.81        60.33723
900.21        60.19583
900.61        60.38946
901.00         60.8838
901.40        61.61584
901.80        62.36089
902.20        62.75111
902.59        62.70427
902.99        62.31118
903.39        61.72427
903.79        61.21898
904.18        60.89362
904.58        60.67747
904.98        60.60975
905.38        60.74754
905.77        61.07959
906.17        61.63637
906.57        62.20925
906.96        62.43483
907.36        62.22788
907.76         61.6788
908.15        61.14544
908.55          61.196
908.95         61.9393
909.34        63.19036
909.74         64.4692
910.14        65.06461
910.53         64.7639
910.93        63.82995
911.33        62.60246
911.72        61.59396
912.12        61.04339
912.52         60.8149
912.91        60.80964
913.31        60.89448
913.70         61.0085
914.10        61.16368
914.49        61.44792
914.89        61.90205
915.29        62.52365
915.68        63.27918
916.08        63.87115
916.47         63.9019
916.87        63.33746
917.26        62.29664
917.66        61.28387
918.05        60.91992
918.45        61.32336
918.84        62.35725
919.24         63.5417
919.64         64.1453
920.03        63.96202
920.42        63.17842
920.82        62.25649
921.21         61.8608
921.61        62.13683
922.00        62.90657
922.40        63.76802
922.79        64.15575
923.19        63.87344
923.58        63.16377
923.98        62.34488
924.37        61.80207
924.77        61.65875
925.16        61.75225
925.55        61.98204
925.95        62.16698
926.34        62.24931
926.74        62.28189
927.13        62.24989
927.52        62.05309
927.92        61.74089
928.31         61.3202
928.70        60.94313
929.10         60.8264
929.49         60.9973
929.89        61.34909
930.28        61.84797
930.67        62.31918
931.07        62.65613
931.46        62.96227
931.85        63.09602
932.24         62.8848
932.64         62.3735
933.03        61.59612
933.42        60.88897
933.82         60.7302
934.21        61.20302
934.60        62.21592
934.99        63.40127
935.39         64.0806
935.78        64.09589
936.17        63.55183
936.56        62.81374
936.96        62.46042
937.35        62.63228
937.74          63.147
938.13        63.66735
938.53        63.69227
938.92         63.1238
939.31        62.17405
939.70        61.17015
940.09        60.55547
940.49        60.40812
940.88        60.62101
941.27        61.01717
941.66        61.26904
942.05        61.27765
942.44        61.17992
942.84        61.08464
943.23        61.14272
943.62        61.39451
944.01        61.71185
944.40        62.10382
944.79        62.61843
945.18        63.20514
945.57         63.8432
945.97        64.23071
946.36        63.96502
946.75        62.97983
947.14        61.50319
947.53         59.9918
947.92        59.08357
948.31        58.93236
948.70        59.37863
949.09        60.19095
949.48        60.94594
949.87        61.46401
950.26        61.82089
950.65        62.08211
951.04        62.37377
951.43        62.71028
951.82        62.99582
952.21        63.10847
952.60        62.89332
952.99        62.36503
953.38        61.65173
953.77        60.93624
954.16        60.48333
954.55        60.35346
954.94         60.4352
955.33        60.69081
955.72        61.03297
956.11        61.38868
956.50         61.8104
956.89        62.04189
957.28        61.66969
957.66        60.66149
958.05        59.18747
958.44          57.792
958.83        57.26662
959.22        57.73749
959.61        59.00373
960.00        60.49957
960.39        61.15466
960.78        60.66082
961.16        59.35898
961.55        57.89891
961.94        57.14885
962.33        57.33186
962.72         58.2276
963.11        59.45978
963.49        60.32705
963.88        60.48422
964.27        60.12739
964.66        59.69006
965.04        59.84301
965.43        60.67536
965.82        62.03253
966.21        63.31882
966.60        63.42854
966.98        62.10115
967.37        59.85966
967.76        57.61673
968.15         56.4933
968.53        56.68942
968.92        57.90924
969.31        59.56605
969.69        60.48249
970.08        60.17019
970.47        59.00991
970.86        57.69667
971.24        57.20122
971.63        57.73387
972.02         59.0219
972.40        60.50954
972.79        60.90727
973.17        59.93886
973.56        58.10553
973.95        56.24118
974.33        55.39902
974.72        55.78011
975.11        57.03191
975.49        58.69239
975.88        59.80335
976.26        60.03522
976.65        59.64424
977.04        58.91324
977.42        58.25602
977.81        57.79987
978.19        57.36879
978.58        57.12999
978.96        57.33234
979.35        57.96073
979.74        59.01128
980.12        60.14971
980.51        60.51443
980.89        60.04498
981.28        58.98796
981.66        57.87759
982.05        57.46537
982.43         57.9334
982.82        59.01844
983.20        60.57853
983.59        62.22011
983.97         63.7576
984.35        65.23963
984.74        66.27003
985.12         66.4598
985.51        65.70648
985.89        64.14352
986.28        62.40992
986.66        61.40406
987.04        61.40306
987.43        62.20517
987.81        63.35467
988.20        63.82404
988.58        63.31418
988.96        62.06548
989.35         60.6419
989.73        59.84207
990.12         59.8185
990.50        60.37786
990.88        60.95783
991.27          60.625
991.65        59.21659
992.03        57.11963
992.42        55.18096
992.80          54.518
993.18        55.34857
993.56        57.37907
993.95        59.77739
994.33        61.08863
994.71        60.71352
995.10        59.18726
995.48        57.35051
995.86        56.53288
996.24        57.04291
996.63        58.34203
997.01        60.08188
997.39        61.22514
997.77        61.32186
998.15        60.87025
998.54        59.92454
998.92        58.40891
999.30        56.57468
999.68        54.44093
1000.06        52.84833
1000.45         53.0146
1000.83        55.20948
1001.21        59.27064
1001.59         64.0752
1001.97        66.83369
1002.35        66.46995
1002.73        63.80327
1003.12        60.50513
1003.50        58.73605
1003.88        59.08546
1004.26          60.808
1004.64        63.35196
1005.02        65.49291
1005.40         66.5487
1005.78        67.05109
1006.16         66.6665
1006.54        64.82712
1006.92        61.77787
1007.30        57.79224
1007.69        54.22017
1008.07        52.84005
1008.45        54.15378
1008.83         57.8716
1009.21        62.88217
1009.59        66.25652
1009.97        66.53438
1010.35        64.42294
1010.73        61.15836
1011.11        58.61757
1011.49        57.36592
1011.86        56.84747
1012.24        56.73937
1012.62        56.62653
1013.00        56.36287
1013.38        56.13142
1013.76         56.0941
1014.14        56.44972
1014.52        57.21666
1014.90        58.21374
1015.28        59.01984
1015.66        59.16802
1016.04        58.58584
1016.41         57.3549
1016.79         55.9083
1017.17        55.11153
1017.55        55.20578
1017.93        55.97789
1018.31        56.82658
1018.69        56.83857
1019.06        55.83759
1019.44         54.0503
1019.82         52.0757
1020.20        51.35863
1020.58        52.32961
1020.95        54.18117
1021.33        56.22441
1021.71        57.66697
1022.09        58.40376
1022.46        58.93773
1022.84        58.75932
1023.22        56.91722
1023.60        53.56084
1023.97        49.08007
1024.35        45.58953
1024.73         45.3636
