SpectraSmart Spectrum 2.9.0.0
--------- Device Information -----------
Spectrum Name :  反射率_0
Saving Time :  2024/04/27 00:23:50
Spectro-Module Model Name : SE2030-DUVN
Spectro-Module Serial Number : OS361AC55029948
Wavelength Start : 200
Wavelength End : 1025
Wavelength Unit : Wavelength(nm)
Spectrum Unit : Reflectance(%)
-----------Spectrum Setting ------------
Integration Time : 20ms
Average : 10
Boxcar : 0
Background removal :  enabled
linearity correction :  enabled
SC :  disabled
Intensity correction :  disabled
DWT denoise :  enabled
savitzky-golay :  disabled
FFT :  disabled
Running average :  disabled
Kalman :  disabled
High pass :  disabled
---------------BEGIN--------------------
Wavelength(nm)             Reflectance(%)
200.29               0
200.75        36.31285
201.21        37.92981
201.67        38.77611
202.13        38.29235
202.58         36.4245
203.04        33.54538
203.50        30.19945
203.96        28.40759
204.42        29.59587
204.88        33.23228
205.34        38.23315
205.80        42.16431
206.26        43.81879
206.72         43.9276
207.18        42.40761
207.64        38.77048
208.10        32.75168
208.55        23.19431
209.01        10.98969
209.47        6.456254
209.93        13.93509
210.39        26.10648
210.85         36.2695
211.31        42.67018
211.77        47.17353
212.23        52.06233
212.69          60.965
213.14         78.4804
213.60        81.98337
214.06        73.41483
214.52        65.55596
214.98        59.92297
215.44        54.80229
215.90        48.71012
216.36        43.68448
216.81        43.19579
217.27        48.74519
217.73        62.01538
218.19        79.21761
218.65        80.69342
219.11        62.63879
219.57        40.28962
220.02        25.92417
220.48         23.9479
220.94        32.78008
221.40        53.02135
221.86        84.45406
222.32        107.7258
222.77        104.3467
223.23        86.06644
223.69        66.76768
224.15        54.80957
224.61        49.24082
225.06        46.27065
225.52        45.14899
225.98        45.20942
226.44         46.0026
226.90        47.84883
227.36        49.78495
227.81        49.96239
228.27        48.32856
228.73        45.47114
229.19        42.86933
229.65         42.2839
230.10        43.73273
230.56        46.57416
231.02        49.52184
231.48        50.51649
231.93        49.21929
232.39        46.80762
232.85        44.39087
233.31        43.42358
233.77        44.06295
234.22        45.71214
234.68        47.82971
235.14         49.7283
235.60        51.12621
236.05        52.36368
236.51        53.14631
236.97        52.89268
237.43        51.51488
237.88        49.08836
238.34        46.53861
238.80        45.70482
239.26        47.24221
239.71         51.5379
240.17        57.66715
240.63         62.5447
241.08        64.01556
241.54        61.51444
242.00        57.14917
242.46        55.76975
242.91        60.30657
243.37        71.68758
243.83        89.84007
244.28        103.8529
244.74        100.1853
245.20        81.52098
245.66        61.67588
246.11        51.90884
246.57        52.25536
247.03        58.19048
247.48        66.11369
247.94        69.43813
248.40        67.35497
248.85        63.48786
249.31        59.73824
249.77        56.26709
250.22        52.54173
250.68        47.54075
251.14        41.78479
251.59        38.65796
252.05        40.45979
252.51        46.05644
252.96        51.60807
253.42        53.73463
253.88        52.74938
254.33        49.90958
254.79        48.12424
255.25        49.70752
255.70        54.39267
256.16        61.16029
256.62        67.03247
257.07        67.57368
257.53        63.97364
257.99        58.98561
258.44         54.9049
258.90        53.87183
259.35         54.8813
259.81        57.09447
260.27        59.09031
260.72        59.18431
261.18        57.63744
261.63        55.11556
262.09        52.83533
262.55        51.57447
263.00         51.2177
263.46        51.45258
263.91        51.62052
264.37        51.19527
264.83        50.10682
265.28        48.62358
265.74         47.2509
266.19        46.30312
266.65        45.88839
267.11        45.76215
267.56        45.73226
268.02         45.5132
268.47        45.02213
268.93         44.3994
269.38        43.67245
269.84        42.93291
270.30         42.2028
270.75        41.42381
271.21        40.70937
271.66        40.18351
272.12        39.85142
272.57        39.65182
273.03        39.39593
273.48        38.76608
273.94        37.77733
274.39        36.53347
274.85        35.32383
275.31        34.40826
275.76        33.81414
276.22        33.47322
276.67         33.2387
277.13        32.98878
277.58        32.63072
278.04        32.24025
278.49        31.77655
278.95         31.2925
279.40        30.75926
279.86        30.22977
280.31        29.68059
280.77        29.19095
281.22         28.7313
281.68        28.33523
282.13        27.97541
282.59        27.69264
283.04        27.45028
283.50        27.26024
283.95        27.06716
284.41        26.80122
284.86        26.45947
285.32        26.09734
285.77        25.76998
286.22        25.61153
286.68        25.63344
287.13        25.75016
287.59        25.90477
288.04        25.96545
288.50        25.91759
288.95        25.77758
289.41        25.57779
289.86        25.30268
290.32        25.00648
290.77        24.68897
291.22        24.42657
291.68        24.32046
292.13        24.37775
292.59        24.58205
293.04        24.88303
293.50        25.21503
293.95        25.53885
294.40        25.87094
294.86        26.20189
295.31        26.51259
295.77        26.81188
296.22        27.09371
296.68        27.39269
297.13        27.75279
297.58        28.18981
298.04        28.69361
298.49        29.23643
298.95        29.78698
299.40        30.31975
299.85        30.83752
300.31        31.33654
300.76        31.80451
301.21        32.23824
301.67        32.64498
302.12        33.00065
302.58        33.32939
303.03        33.61185
303.48        33.86726
303.94        34.10981
304.39        34.32634
304.84        34.52843
305.30        34.72589
305.75        34.90256
306.20        35.08649
306.66        35.28542
307.11        35.47744
307.57        35.64409
308.02        35.71051
308.47        35.67944
308.93        35.57835
309.38        35.45166
309.83        35.41524
310.29        35.48789
310.74        35.63163
311.19        35.76455
311.65        35.74727
312.10        35.54891
312.55        35.21983
313.00        34.86339
313.46        34.63129
313.91        34.54403
314.36         34.5619
314.82        34.59978
315.27         34.5307
315.72        34.31857
316.18        34.01663
316.63        33.68351
317.08        33.42299
317.53        33.25915
317.99        33.15015
318.44        33.05752
318.89         32.9106
319.35        32.68987
319.80        32.42165
320.25        32.13131
320.70        31.85679
321.16        31.60881
321.61        31.38391
322.06        31.16946
322.51         30.9503
322.97        30.71753
323.42        30.48114
323.87        30.25442
324.32        30.06196
324.78        29.89478
325.23        29.75899
325.68        29.60332
326.13         29.3568
326.59        29.00943
327.04         28.5963
327.49        28.18169
327.94        27.86747
328.39         27.6711
328.85        27.55101
329.30        27.46992
329.75        27.30811
330.20        27.03695
330.66         26.6909
331.11        26.33849
331.56        26.06426
332.01        25.89258
332.46        25.79224
332.92        25.71656
333.37        25.62992
333.82        25.50092
334.27        25.35137
334.72        25.19557
335.17        25.05284
335.63        24.93075
336.08          24.835
336.53        24.76495
336.98        24.73199
337.43        24.73282
337.88        24.75364
338.34        24.78299
338.79        24.82764
339.24        24.86622
339.69         24.8926
340.14        24.86423
340.59        24.71846
341.05        24.46184
341.50        24.12335
341.95        23.77565
342.40        23.52595
342.85        23.40357
343.30        23.37915
343.75        23.41624
344.20        23.45363
344.66        23.46705
345.11        23.46591
345.56        23.44657
346.01        23.40392
346.46        23.34406
346.91        23.27209
347.36         23.1908
347.81        23.11193
348.26        23.04025
348.72        22.96784
349.17        22.92145
349.62        22.95252
350.07        23.06096
350.52          23.235
350.97        23.38117
351.42        23.35061
351.87        23.12228
352.32        22.74463
352.77         22.3565
353.22        22.16381
353.67        22.20551
354.13        22.42484
354.58        22.68356
355.03        22.75263
355.48        22.57714
355.93        22.23438
356.38          21.865
356.83        21.67864
357.28        21.71767
357.73        21.90616
358.18        22.12867
358.63         22.2003
359.08        22.07221
359.53        21.81349
359.98        21.50705
360.43        21.27135
360.88        21.13966
361.33         21.0698
361.78        21.03029
362.23        20.97645
362.68        20.89187
363.13        20.79645
363.58        20.69422
364.03        20.58456
364.48        20.46971
364.93        20.34649
365.38        20.22023
365.83        20.10505
366.28        20.00549
366.73        19.91856
367.18        19.84432
367.63        19.78016
368.08        19.72346
368.53        19.67623
368.98        19.62669
369.43        19.55612
369.88        19.46062
370.33        19.34065
370.78        19.21654
371.23        19.12583
371.68        19.07381
372.13        19.04685
372.58        19.01327
373.03        18.92064
373.48        18.76058
373.93        18.55828
374.38        18.34326
374.83        18.16265
375.28        18.03461
375.72        17.93972
376.17        17.89141
376.62        17.88649
377.07        17.91634
377.52        17.97839
377.97        18.03862
378.42        18.04339
378.87        17.97887
379.32        17.85236
379.77        17.70491
380.22        17.59925
380.67        17.54724
381.11        17.54087
381.56        17.52253
382.01        17.41445
382.46         17.2101
382.91        16.94856
383.36        16.70695
383.81        16.58681
384.26        16.60139
384.71        16.71675
385.15        16.86132
385.60        16.91991
386.05        16.85871
386.50        16.71144
386.95        16.53808
387.40        16.43281
387.85        16.41561
388.29        16.44116
388.74         16.4803
389.19         16.4569
389.64        16.35732
390.09        16.20498
390.54        16.03776
390.98        15.91237
391.43        15.85572
391.88        15.84654
392.33        15.85064
392.78        15.81938
393.23        15.74452
393.67        15.63653
394.12        15.54048
394.57        15.48991
395.02        15.48947
395.47        15.51775
395.91        15.55008
396.36        15.53704
396.81        15.47644
397.26        15.38995
397.71        15.29065
398.15         15.2057
398.60        15.16186
399.05        15.08678
399.50         15.0046
399.95        15.06109
400.39        15.20768
400.84        15.17173
401.29        14.96441
401.74        14.84075
402.18        14.81685
402.63        14.73656
403.08        14.62542
403.53         14.5913
403.97        14.63795
404.42        14.73395
404.87        14.82334
405.32        14.81373
405.76        14.68732
406.21        14.48711
406.66        14.27397
407.11        14.14312
407.55        14.12283
408.00        14.17626
408.45        14.27084
408.90        14.33933
409.34        14.35324
409.79         14.3346
410.24        14.29257
410.68        14.23428
411.13         14.1698
411.58        14.09145
412.03        14.00711
412.47        13.93945
412.92        13.89302
413.37        13.87092
413.81        13.86478
414.26        13.87043
414.71        13.87941
415.15        13.89529
415.60        13.91082
416.05        13.92517
416.49        13.93687
416.94        13.94116
417.39        13.93581
417.83        13.91848
418.28        13.88805
418.73        13.84354
419.17        13.79284
419.62        13.74927
420.07        13.71595
420.51        13.68676
420.96        13.65396
421.41        13.60164
421.85        13.52406
422.30        13.42663
422.74        13.31542
423.19        13.25877
423.64         13.2389
424.08        13.16917
424.53        13.05798
424.98        13.02371
425.42        13.08065
425.87        13.13528
426.31        13.16528
426.76         13.2321
427.21        13.28736
427.65        13.15569
428.10        12.91183
428.54        12.80782
428.99         12.8707
429.44        13.01952
429.88         13.1753
430.33        13.16538
430.77        13.01429
431.22        12.98908
431.66        13.08967
432.11        13.08734
432.56        12.98707
433.00         12.9621
433.45        12.96627
433.89        12.83303
434.34        12.66163
434.78        12.38688
435.23        12.69472
435.67        12.74527
436.12        12.70899
436.57        12.62806
437.01        12.53425
437.46        12.48753
437.90        12.49406
438.35        12.50019
438.79        12.49698
439.24        12.51483
439.68        12.55088
440.13        12.59339
440.57        12.63416
441.02        12.67236
441.46        12.70166
441.91        12.68819
442.35        12.63575
442.80        12.67449
443.24        12.75341
443.69        12.66051
444.13        12.44006
444.58         12.3603
445.02        12.43486
445.47         12.5248
445.91         12.5993
446.36        12.67063
446.80        12.72225
447.24        12.75361
447.69        12.76043
448.13        12.73081
448.58        12.67193
449.02        12.58596
449.47        12.50471
449.91        12.47332
450.36        12.50222
450.80        12.57482
451.25        12.65987
451.69        12.69957
452.13        12.68168
452.58        12.62182
453.02        12.54319
453.47        12.48575
453.91        12.46195
454.36        12.46176
454.80        12.46861
455.24        12.45529
455.69        12.41958
456.13        12.36299
456.58        12.31467
457.02        12.29638
457.46        12.31647
457.91        12.36295
458.35        12.40132
458.79        12.38025
459.24        12.30446
459.68        12.18793
460.13        12.08036
460.57         12.0225
461.01        12.03422
461.46        12.08727
461.90        12.17197
462.34        12.25987
462.79        12.33198
463.23        12.40037
463.68        12.43797
464.12         12.4096
464.56        12.31566
465.01        12.18852
465.45        12.05731
465.89          11.996
466.34        12.01429
466.78        12.08802
467.22         12.1946
467.67        12.27937
468.11        12.32893
468.55        12.35318
468.99        12.35744
469.44        12.34975
469.88        12.33705
470.32        12.31403
470.77        12.29403
471.21        12.30356
471.65        12.34517
472.10        12.41491
472.54        12.49005
472.98        12.53803
473.42        12.55081
473.87         12.5416
474.31         12.5187
474.75         12.5084
475.20        12.52014
475.64        12.54056
476.08        12.56628
476.52        12.58523
476.97        12.59534
477.41        12.60969
477.85        12.63377
478.29         12.6559
478.74         12.6878
479.18        12.75901
479.62        12.85833
480.06        12.94864
480.50        13.02338
480.95        13.07937
481.39        13.10813
481.83        13.22343
482.27        13.23749
482.72        13.31869
483.16        13.39911
483.60        13.44802
484.04        13.44592
484.48         13.4407
484.93        13.54421
485.37        13.53681
485.81        13.75663
486.25        14.20337
486.69        14.01435
487.14        13.74668
487.58        14.24976
488.02         14.3419
488.46        13.98529
488.90        14.38217
489.34        14.55253
489.79        14.81859
490.23        14.83691
490.67        14.92763
491.11         15.0771
491.55        15.10883
491.99        15.05725
492.43        15.05989
492.88        15.13713
493.32        15.23098
493.76        15.34173
494.20        15.49763
494.64        15.69736
495.08        15.90207
495.52        16.08294
495.96        16.29048
496.41        16.47771
496.85        16.43075
497.29        16.22421
497.73          16.305
498.17        16.47249
498.61        16.71353
499.05        16.89748
499.49         17.0242
499.93        17.04293
500.37         17.1259
500.82        17.26663
501.26        17.37576
501.70        17.45294
502.14         17.5563
502.58        17.69111
503.02        17.83195
503.46        17.97423
503.90        18.12498
504.34         18.2613
504.78        18.34406
505.22        18.36774
505.66        18.34461
506.10        18.30824
506.54        18.31439
506.98        18.37721
507.42        18.48035
507.86        18.60326
508.30        18.70971
508.74        18.78731
509.18          18.849
509.62        18.89656
510.06        18.93327
510.50        18.96292
510.94         18.9803
511.38        19.00079
511.82        19.05056
512.26        19.13341
512.70        19.24515
513.14        19.35713
513.58        19.42115
514.02        19.42799
514.46        19.39077
514.90        19.34707
515.34        19.35867
515.78        19.43701
516.22        19.55898
516.66        19.68365
517.10        19.74592
517.54        19.72956
517.98        19.65787
518.42        19.55859
518.86        19.47581
519.30        19.42539
519.74          19.394
520.18        19.37796
520.62        19.37082
521.06        19.36898
521.50        19.37962
521.93         19.3942
522.37         19.3888
522.81        19.36236
523.25        19.31617
523.69        19.26981
524.13        19.25666
524.57        19.27901
525.01        19.32222
525.45        19.35727
525.89        19.33764
526.32        19.25266
526.76        19.12728
527.20        18.98435
527.64        18.86029
528.08        18.76944
528.52        18.70239
528.96         18.6624
529.40         18.6534
529.83        18.67027
530.27        18.71187
530.71        18.75575
531.15        18.76669
531.59        18.73629
532.03        18.67084
532.46        18.58681
532.90        18.52699
533.34        18.49713
533.78         18.4745
534.22        18.44652
534.66        18.41565
535.09        18.36551
535.53        18.26592
535.97        18.13422
536.41        18.04292
536.85        18.00316
537.28        17.97877
537.72        17.97943
538.16        18.03299
538.60        18.13573
539.04        18.27734
539.47        18.42011
539.91        18.51806
540.35        18.55883
540.79        18.55753
541.22        18.54757
541.66        18.59095
542.10         18.6987
542.54        18.85027
542.97        19.01583
543.41        19.15637
543.85        19.25801
544.29        19.33811
544.72        19.40512
545.16        19.48446
545.60        19.58129
546.04        19.69115
546.47        19.81974
546.91        19.97301
547.35        20.14568
547.79        20.33408
548.22        20.52236
548.66        20.68174
549.10        20.83087
549.53         20.9669
549.97        21.09596
550.41        21.18106
550.84        21.24814
551.28        21.35475
551.72        21.48778
552.15        21.64286
552.59        21.84446
553.03         21.7745
553.46        22.08143
553.90        22.18536
554.34        22.27566
554.77        22.35305
555.21         22.4406
555.65        22.55622
556.08        22.69257
556.52        22.83134
556.96        22.94434
557.39        23.05156
557.83         23.1311
558.27        23.06381
558.70        22.90756
559.14        22.89157
559.57        23.02042
560.01        23.16068
560.45        23.28021
560.88        23.40285
561.32        23.52767
561.75        23.62291
562.19         23.6995
562.63        23.77027
563.06        23.83464
563.50        23.89097
563.93        23.92391
564.37        23.97276
564.80        24.05091
565.24        24.09621
565.68        24.06111
566.11        24.39511
566.55        24.22351
566.98        24.26913
567.42        24.32549
567.85        24.46409
568.29         24.6874
568.72        24.95862
569.16        25.26489
569.60        25.45597
570.03        25.60856
570.47        25.73371
570.90        25.89458
571.34        25.80223
571.77        26.06902
572.21        26.23524
572.64        26.41688
573.08         26.4989
573.51        26.54886
573.95        26.65251
574.38        26.79449
574.82        27.22075
575.25        26.82388
575.69        26.85323
576.12        26.99148
576.56        26.99627
576.99        27.18168
577.42        27.18386
577.86        27.06672
578.29        27.62228
578.73        27.32655
579.16        27.25123
579.60        26.92409
580.03        26.92034
580.47        26.94024
580.90        26.86021
581.33        26.82035
581.77        27.02477
582.20        26.87186
582.64        26.57349
583.07         26.4018
583.51        26.21111
583.94        26.21163
584.37        26.15889
584.81        26.04214
585.24        25.94333
585.68        25.88016
586.11        25.70297
586.54        25.59656
586.98        25.45257
587.41        25.33222
587.85        25.35234
588.28        25.29353
588.71        25.25876
589.15        25.12177
589.58        25.27802
590.01        25.18516
590.45        25.14223
590.88        25.21506
591.31        25.15567
591.75        25.08242
592.18        25.05465
592.61        25.07724
593.05        25.44922
593.48        25.58703
593.91        25.52262
594.35        25.38991
594.78        25.26879
595.21        25.29309
595.65        25.52563
596.08        25.96429
596.51         26.1572
596.94        26.01888
597.38        26.14364
597.81         26.5251
598.24        26.75896
598.68        26.88635
599.11        27.24223
599.54        27.77912
599.97        27.77024
600.41        28.05521
600.84        28.13773
601.27        28.71418
601.70        28.72762
602.14         29.3223
602.57         29.5465
603.00        29.79941
603.43        29.83688
603.87        30.75546
604.30        31.09803
604.73        31.23471
605.16        31.53947
605.60        32.00603
606.03        32.21194
606.46         32.2069
606.89        32.55608
607.32        33.30828
607.76        33.77953
608.19        33.94435
608.62        34.14506
609.05        34.48891
609.48        34.73348
609.92        35.30929
610.35        35.76855
610.78         35.7011
611.21         35.9152
611.64        36.08839
612.07        36.46798
612.50        36.76384
612.94        37.04884
613.37        37.24482
613.80        37.42957
614.23        37.37226
614.66        37.68718
615.09        38.25103
615.52        38.68013
615.96        38.89962
616.39        39.13919
616.82        39.40694
617.25        39.43745
617.68        39.33196
618.11        39.64003
618.54        40.27475
618.97        40.50973
619.40        40.34559
619.84        40.52637
620.27        40.68766
620.70        40.89997
621.13        41.00441
621.56        40.82619
621.99        40.46297
622.42        40.51647
622.85        40.97431
623.28        40.90416
623.71        41.04604
624.14        41.04536
624.57        41.16735
625.00        41.36218
625.43        41.57716
625.86        41.47957
626.29        41.08851
626.72         41.0912
627.15        40.97078
627.58         40.9723
628.01        40.85363
628.44        40.70887
628.87        40.35562
629.30        40.01477
629.73        39.66148
630.16        39.69292
630.59        39.37392
631.02        39.33703
631.45        39.31794
631.88        39.18245
632.31        38.89825
632.74        38.50998
633.17         38.0651
633.60          37.622
634.03        37.21001
634.46         36.8123
634.89        36.41914
635.32        36.02447
635.75        35.62825
636.18        35.20152
636.61        34.77499
637.04         34.4114
637.47        34.11367
637.89        33.85599
638.32        33.58849
638.75        33.26686
639.18        32.88538
639.61        32.46763
640.04        32.06068
640.47        31.73348
640.90        31.50228
641.33         31.3472
641.76        31.23947
642.18        31.13529
642.61        31.00987
643.04        30.87968
643.47        30.75799
643.90        30.66553
644.33        30.60815
644.76        30.57889
645.18         30.5681
645.61        30.55492
646.04         30.5436
646.47        30.54718
646.90        30.58952
647.33        30.70814
647.75        30.89867
648.18        31.15332
648.61        31.46592
649.04        31.76979
649.47        31.99498
649.89        32.51334
650.32        32.49325
650.75        32.76268
651.18        33.10385
651.61        33.51292
652.03        33.96947
652.46        34.44191
652.89        34.89651
653.32        35.18279
653.74        35.38553
654.17        35.60353
654.60        36.29107
655.03        36.48161
655.46        36.32019
655.88        37.20956
656.31        39.33408
656.74        40.56946
657.16        40.04174
657.59         39.7411
658.02        39.37211
658.45        40.10432
658.87        39.71637
659.30        40.11776
659.73        40.54818
660.15        41.29289
660.58        40.80348
661.01        40.98702
661.44        41.42561
661.86        41.54535
662.29        41.36776
662.72        41.79487
663.14        42.03412
663.57        42.33853
664.00        42.48756
664.42        42.76112
664.85        43.16645
665.27         43.5746
665.70        43.90635
666.13        44.12594
666.55        44.22486
666.98        44.17555
667.41        44.04144
667.83        44.21025
668.26         44.2518
668.69        44.50778
669.11        44.80925
669.54        45.08646
669.96        45.31234
670.39        45.54706
670.82        45.78189
671.24         45.8761
671.67        45.87778
672.09        46.01606
672.52        46.28002
672.94        46.43137
673.37        46.46899
673.80          46.524
674.22        46.62897
674.65        46.74175
675.07        46.87289
675.50        47.03626
675.92        47.20456
676.35        47.28514
676.77        47.26367
677.20        47.31707
677.62        47.22075
678.05        47.28499
678.47         47.4432
678.90        47.67775
679.32        47.92662
679.75         48.1053
680.17        48.18726
680.60        48.19774
681.02         48.1849
681.45        48.20541
681.87        48.28519
682.30        48.44622
682.72        48.65692
683.15        48.72009
683.57        48.68366
684.00        48.82059
684.42        49.11637
684.85        49.32383
685.27        49.42293
685.70        49.55641
686.12        49.70519
686.54        49.78976
686.97        49.80476
687.39        49.78036
687.82        49.73323
688.24        49.70458
688.66        49.70997
689.09        49.74122
689.51        49.80559
689.94        49.90013
690.36        50.02745
690.78        50.13911
691.21        50.24684
691.63        50.44549
692.06        50.69395
692.48        50.80827
692.90        50.78453
693.33        50.78698
693.75        50.82729
694.17        50.78514
694.60        50.72284
695.02        50.80829
695.44        51.04037
695.87        51.34838
696.29        51.64238
696.71        51.71967
697.14        51.62996
697.56        51.58464
697.98        51.59872
698.41        51.92239
698.83        51.80119
699.25         52.0021
699.68        52.23751
700.10        52.38753
700.52        52.40915
700.94        52.36203
701.37        52.31963
701.79        52.38455
702.21        52.57584
702.64        52.84452
703.06        53.13046
703.48        53.32415
703.90        53.39377
704.33        53.37341
704.75        53.30492
705.17          53.249
705.59        53.23563
706.01        53.25112
706.44        53.29837
706.86        53.39453
707.28        53.52811
707.70        53.68686
708.12        53.87343
708.55        54.03509
708.97        54.32787
709.39         54.3883
709.81        54.30804
710.23        54.33457
710.66        54.48824
711.08        54.63878
711.50        54.73203
711.92        54.76667
712.34        54.73829
712.76        54.66251
713.19        54.57257
713.61        54.55325
714.03        54.61573
714.45        54.74393
714.87         54.9257
715.29        55.14225
715.71         55.3749
716.13          55.615
716.56        55.83097
716.98        56.01929
717.40        56.13511
717.82        56.22927
718.24        56.29255
718.66        56.06558
719.08        55.96432
719.50        55.70858
719.92        55.49421
720.34        55.42669
720.76        55.53031
721.19        55.74434
721.61        56.04113
722.03        56.33868
722.45        56.58685
722.87        56.79445
723.29         56.9054
723.71        56.83535
724.13        56.58998
724.55        56.20998
724.97        55.81051
725.39        55.58595
725.81         55.5915
726.23        55.76097
726.65        56.02676
727.07        56.39578
727.49        56.61967
727.91        56.88394
728.33        57.12334
728.75        57.33809
729.17        57.51762
729.59        57.63808
730.01        57.70211
730.43        57.72302
730.85        57.71103
731.27        57.67928
731.69        57.62014
732.10        57.52174
732.52        57.39331
732.94        57.22462
733.36        57.08922
733.78        57.05968
734.20        57.15831
734.62        57.29998
735.04        58.03534
735.46        57.59666
735.88        57.91344
736.30        57.84755
736.72        57.98272
737.13        58.33646
737.55         58.7366
737.97        58.87257
738.39        58.68993
738.81        58.27242
739.23        57.80925
739.65        57.84354
740.06         58.2848
740.48        58.49708
740.90        58.42981
741.32        58.50599
741.74        58.74118
742.16        58.91756
742.57        59.01975
742.99        59.09485
743.41         59.1317
743.83        59.09481
744.25        58.99295
744.67        58.83292
745.08        58.68945
745.50        58.66592
745.92        58.78215
746.34        58.99145
746.75        59.22296
747.17         59.3215
747.59        59.25945
748.01        59.17294
748.42        59.07596
748.84        58.84008
749.26        58.59473
749.68        58.62297
750.09        58.89765
750.51         59.3082
750.93        59.66159
751.35        59.50905
751.76        58.96373
752.18        58.71434
752.60        58.80397
753.01         58.8364
753.43        58.78746
753.85        58.76023
754.27        58.74113
754.68        58.89011
755.10          59.194
755.52        58.89446
755.93        58.96144
756.35        59.00358
756.77        59.31583
757.18        59.52385
757.60        59.62938
758.02        59.97052
758.43        60.35331
758.85         60.0757
759.26        59.85067
759.68        59.09008
760.10        59.23743
760.51        59.87806
760.93        59.68926
761.34        59.93719
761.76        60.09582
762.18        59.93885
762.59        59.62359
763.01        59.79945
763.42        60.45222
763.84        60.72837
764.26        60.56126
764.67        60.32569
765.09        60.14993
765.50         59.9999
765.92        59.93834
766.33        59.92699
766.75        59.87843
767.16        59.84586
767.58        59.81047
768.00          59.692
768.41        59.62798
768.83        60.04228
769.24        60.69887
769.66        60.91896
770.07        60.65368
770.49        59.95749
770.90        59.21399
771.32        59.65485
771.73        61.03166
772.15        61.55646
772.56         61.1031
772.97        60.69585
773.39        60.52291
773.80        60.40853
774.22        60.39108
774.63        60.56622
775.05         60.7907
775.46        60.89432
775.88        60.80728
776.29         60.5976
776.70        60.37827
777.12        60.35753
777.53        60.58265
777.95        60.93975
778.36        61.31212
778.77        61.47911
779.19        61.40253
779.60        61.17628
780.02        60.86306
780.43         60.6505
780.84        60.62313
781.26        60.41108
781.67        60.12538
782.09        60.69456
782.50        61.82517
782.91         61.5574
783.33        60.72707
783.74        60.36433
784.15        60.76269
784.57        61.01729
784.98        61.06584
785.39        61.13153
785.81          61.224
786.22        61.43455
786.63        61.73086
787.04        61.92323
787.46        61.99486
787.87        62.01832
788.28        62.04325
788.70        62.02608
789.11        61.95297
789.52        62.05018
789.93        62.22888
790.35        61.91359
790.76        61.27733
791.17        61.28209
791.58         61.8983
792.00        62.08873
792.41        61.78923
792.82        61.96196
793.23        62.46241
793.65        61.83355
794.06        60.51676
794.47        60.75835
794.88        62.26398
795.29        62.84463
795.71          62.294
796.12         62.0525
796.53        62.19572
796.94        61.97061
797.35        61.53871
797.76        61.76967
798.18        62.51588
798.59        62.87581
799.00        62.74334
799.41        62.59143
799.82        62.51728
800.23        62.47962
800.64        62.50972
801.06         62.5801
801.47        62.67365
801.88        62.68395
802.29        62.58699
802.70        62.41516
803.11        62.22147
803.52        62.09186
803.93        62.06672
804.34        62.12574
804.75        62.24725
805.17        62.44102
805.58        62.72675
805.99        62.89603
806.40        62.96284
806.81         63.3875
807.22        63.95503
807.63        63.67095
808.04        62.70592
808.45        62.21461
808.86        62.31122
809.27        62.40419
809.68        62.40107
810.09        62.42253
810.50        62.43932
810.91        62.41764
811.32        62.44306
811.73        62.64425
812.14        63.03094
812.55        63.57481
812.96        64.10812
813.37        64.26707
813.78        63.99753
814.19        63.53628
814.60          63.038
815.01        62.60755
815.42        62.29774
815.83        62.11421
816.24        62.03589
816.65        61.98529
817.05        61.95158
817.46        61.96229
817.87        62.00575
818.28        62.00383
818.69         61.9479
819.10        61.83168
819.51        61.76428
819.92        61.95003
820.33        62.41154
820.74        63.06332
821.14        63.70462
821.55        64.01826
821.96        63.93231
822.37        63.54066
822.78        63.01238
823.19        62.64133
823.60         62.5322
824.00        62.63348
824.41        62.82387
824.82        62.98366
825.23        63.05266
825.64        63.07754
826.04        63.09246
826.45        63.10555
826.86        63.13943
827.27        63.18772
827.68        63.21753
828.08        63.21177
828.49        63.12182
828.90        62.96739
829.31        62.84967
829.72        62.93171
830.12        63.25974
830.53        63.74044
830.94        64.18753
831.35        64.23756
831.75        63.82972
832.16          63.063
832.57        62.23005
832.97        61.77751
833.38        61.81253
833.79        62.17237
834.20        62.67422
834.60        63.02264
835.01          63.128
835.42        63.13451
835.82        63.05395
836.23        62.83332
836.64        62.53314
837.04        62.12397
837.45        61.84505
837.86        62.15058
838.26        63.11724
838.67        64.57714
839.08        66.04466
839.48        66.59876
839.89        66.00269
840.29        64.57803
840.70        62.99316
841.11        62.04423
841.51         61.9433
841.92        62.44449
842.33        63.29179
842.73        64.02367
843.14        64.35381
843.54        64.46027
843.95        64.45338
844.35        64.55173
844.76        64.78996
845.17        65.07154
845.57        65.25294
845.98          65.104
846.38        64.61452
846.79          63.876
847.19        63.12327
847.60        62.69901
848.00        62.69369
848.41        62.98304
848.81        63.39162
849.22        63.54019
849.62        63.36617
850.03        62.98695
850.43         62.5456
850.84        62.20894
851.24        62.08851
851.65        62.06267
852.05        62.24033
852.46        62.70824
852.86         63.4136
853.27        64.28005
853.67        65.00784
854.07        65.29289
854.48        65.07288
854.88         64.4651
855.29        63.62057
855.69        62.95892
856.10        62.57881
856.50        62.45522
856.90        62.49882
857.31        62.55581
857.71          62.615
858.12        62.68306
858.52        62.78062
858.92        62.82219
859.33        62.77635
859.73         62.6762
860.13         62.5321
860.54        62.40541
860.94        62.35648
861.34        62.36156
861.75        62.40837
862.15        62.51073
862.55        62.64408
862.96        62.77271
863.36        62.92198
863.76        63.05951
864.17         63.1498
864.57        63.20822
864.97        63.16043
865.38        62.90639
865.78        62.46876
866.18        61.89227
866.58        61.29668
866.99        60.89285
867.39        60.78308
867.79        60.92044
868.19        61.23999
868.60        61.60875
869.00        61.99795
869.40        62.40383
869.80        62.81293
870.21        63.18443
870.61        63.52971
871.01        63.78665
871.41        63.86596
871.81        63.66572
872.22        63.19017
872.62         62.4706
873.02        61.73546
873.42          61.368
873.82        61.46941
874.22        61.95315
874.63        62.52094
875.03        62.70041
875.43        62.37413
875.83        61.68923
876.23        60.95919
876.63        60.67252
877.03        60.94073
877.44        61.57927
877.84        62.32009
878.24        62.73397
878.64        62.64677
879.04        62.06168
879.44         61.3138
879.84        61.02225
880.24        61.28158
880.64        61.85777
881.04        62.42253
881.44         62.4761
881.84        61.91002
882.24        60.92282
882.65        59.88562
883.05         59.3559
883.45        59.48021
883.85        60.09126
884.25        60.92163
884.65        61.51506
885.05         61.7165
885.45         61.6556
885.85        61.49102
886.25        61.46746
886.65        61.64788
887.05        61.92987
887.45        62.20498
887.85        62.31339
888.25        62.21092
888.65        61.97092
889.04        61.67372
889.44        61.45855
889.84        61.35163
890.24        61.30757
890.64        61.29333
891.04        61.25827
891.44        61.18785
891.84        61.11943
892.24        61.04519
892.64        60.93978
893.04        60.81887
893.44        60.70186
893.83        60.67087
894.23        60.81215
894.63        61.15278
895.03        61.63154
895.43         62.1736
895.83        62.66082
896.23        63.02561
896.63        63.26863
897.02         63.3364
897.42        63.18619
897.82        62.83138
898.22         62.3204
898.62        61.75015
899.01         61.2549
899.41        60.89936
899.81        60.65934
900.21         60.5377
900.61        60.52296
901.00        60.59747
901.40        60.75942
901.80        60.95495
902.20        61.09024
902.59        61.15269
902.99        61.15432
903.39        61.13517
903.79        61.16855
904.18        61.25728
904.58        61.35989
904.98        61.49185
905.38         61.6898
905.77        61.94827
906.17        62.28493
906.57        62.54864
906.96        62.49029
907.36        62.06899
907.76        61.38018
908.15        60.74239
908.55        60.63591
908.95        61.16373
909.34        62.18843
909.74        63.30894
910.14        63.93854
910.53        63.87903
910.93        63.31474
911.33        62.50495
911.72        61.84789
912.12        61.53087
912.52        61.44704
912.91        61.46722
913.31        61.41247
913.70        61.24562
914.10        61.01173
914.49        60.91419
914.89         61.1993
915.29        61.91328
915.68        62.94621
916.08        63.92231
916.47        64.29275
916.87        63.94825
917.26        63.05411
917.66        62.03724
918.05         61.4049
918.45        61.29294
918.84        61.59747
919.24        62.06725
919.64        62.38404
920.03        62.44972
920.42        62.34237
920.82        62.24519
921.21        62.38192
921.61        62.77721
922.00        63.35229
922.40        63.89136
922.79        64.17278
923.19        64.09142
923.58        63.75772
923.98        63.29999
924.37        62.84047
924.77        62.45265
925.16        62.07499
925.55        61.76486
925.95        61.60263
926.34        61.61393
926.74        61.77006
927.13        61.93768
927.52        61.82771
927.92        61.43828
928.31        60.84969
928.70        60.27892
929.10        60.03358
929.49        60.17215
929.89        60.55321
930.28        61.13239
930.67        61.72418
931.07        62.20914
931.46         62.6951
931.85         63.0215
932.24          62.979
932.64        62.59931
933.03        61.91553
933.42        61.27422
933.82        61.17901
934.21        61.71928
934.60        62.79147
934.99        64.01845
935.39        64.70841
935.78         64.6898
936.17        64.06051
936.56        63.18246
936.96        62.62708
937.35        62.54159
937.74        62.77029
938.13        62.97778
938.53        62.66099
938.92        61.75436
939.31        60.49907
939.70        59.29103
940.09        58.66879
940.49         58.7188
940.88         59.2905
941.27        60.13193
941.66        60.77602
942.05         61.0468
942.44        61.08553
942.84        61.00237
943.23        60.96643
943.62        61.04554
944.01        61.13107
944.40        61.25303
944.79         61.4967
945.18        61.83913
945.57        62.25634
945.97         62.5399
946.36        62.42242
946.75        61.83485
947.14         60.9449
947.53        59.98838
947.92        59.28968
948.31        58.94758
948.70        58.87524
949.09        59.06776
949.48         59.5027
949.87        60.11943
950.26        60.90064
950.65        61.67023
951.04        62.14384
951.43         62.2292
951.82        61.95229
952.21        61.46558
952.60        61.04651
952.99        60.80793
953.38        60.74263
953.77         60.7402
954.16        60.61214
954.55        60.32103
954.94        59.89488
955.33        59.59254
955.72        59.84529
956.11        60.71554
956.50        62.06733
956.89        63.34588
957.28        63.62635
957.66        62.72372
958.05        61.00568
958.44        59.16781
958.83         58.2162
959.22        58.35443
959.61         59.2695
960.00        60.52024
960.39         61.2724
960.78        61.22468
961.16        60.66414
961.55        59.86329
961.94        59.12517
962.33        58.58426
962.72        58.14294
963.11         57.8703
963.49        57.96859
963.88        58.38546
964.27        59.03748
964.66        59.81865
965.04        60.60401
965.43         61.2731
965.82        61.87789
966.21        62.11622
966.60        61.49164
966.98        59.98805
967.37        57.92124
967.76        55.96349
968.15        54.92171
968.53         54.9324
968.92        55.84148
969.31        57.19312
969.69        58.03336
970.08        57.95971
970.47        57.23422
970.86        56.47218
971.24        56.58451
971.63        57.74929
972.02        59.70289
972.40         61.7938
972.79        62.51136
973.17        61.50162
973.56        59.33827
973.95        56.98451
974.33        55.66413
974.72        55.62916
975.11        56.49377
975.49        57.83508
975.88         58.7707
976.26        58.98985
976.65        58.74415
977.04        58.22533
977.42        57.68371
977.81        57.21014
978.19        56.67392
978.58        56.28944
978.96        56.40287
979.35        57.01889
979.74        58.05996
980.12        59.22703
980.51        59.71848
980.89        59.46654
981.28        58.74028
981.66        57.86643
982.05        57.28391
982.43        57.14495
982.82        57.24101
983.20        57.83383
983.59         59.2953
983.97        61.64697
984.35        64.75369
984.74        67.59501
985.12         68.6898
985.51        67.65423
985.89        64.95103
986.28        61.85274
986.66        60.23734
987.04        60.61665
987.43        62.47134
987.81        64.94828
988.20        66.24142
988.58        65.74766
988.96        64.00698
989.35        61.77571
989.73        60.08715
990.12        59.21666
990.50        58.87309
990.88        58.71129
991.27        58.22454
991.65        57.30832
992.03        56.21492
992.42        55.38674
992.80         55.3555
993.18        56.22138
993.56        57.83051
993.95        59.58638
994.33        60.53623
994.71        60.26917
995.10        59.14948
995.48        57.84991
995.86        57.47576
996.24        58.27081
996.63        59.78121
997.01        61.66291
997.39        62.86127
997.77        62.90804
998.15         62.2494
998.54        61.00131
998.92        59.18888
999.30        57.10816
999.68        54.83759
1000.06        53.09806
1000.45         52.8963
1000.83        54.47905
1001.21        57.69137
1001.59        61.78447
1001.97        64.75712
1002.35        65.69522
1002.73         65.0697
1003.12         63.7835
1003.50        63.01561
1003.88        63.18936
1004.26        63.79922
1004.64        64.75134
1005.02        65.82558
1005.40         66.7971
1005.78        67.94859
1006.16        68.63052
1006.54         67.7559
1006.92        65.36343
1007.30        61.84859
1007.69        58.65667
1008.07        57.71221
1008.45         59.5406
1008.83        63.74759
1009.21        68.97523
1009.59        71.85197
1009.97        70.85287
1010.35        67.00805
1010.73         62.0093
1011.11        58.26659
1011.49        56.48143
1011.86        55.95494
1012.24        56.24571
1012.62        56.80755
1013.00        57.43058
1013.38        58.33113
1013.76        59.55996
1014.14        60.93384
1014.52        62.19644
1014.90         63.1542
1015.28        63.47088
1015.66        62.87508
1016.04        61.41643
1016.41        59.19389
1016.79        56.82573
1017.17        55.52849
1017.55        55.63922
1017.93         56.8164
1018.31        58.29715
1018.69        58.94139
1019.06        58.46981
1019.44        57.14233
1019.82        55.34387
1020.20        54.10533
1020.58        53.88761
1020.95        54.22312
1021.33        54.84602
1021.71        55.36303
1022.09         55.7045
1022.46        56.21066
1022.84        56.59563
1023.22        56.19394
1023.60        54.96523
1023.97        53.00918
1024.35        51.66232
1024.73        52.42624
