SpectraSmart Spectrum 2.9.0.0
--------- Device Information -----------
Spectrum Name :  反射率_0
Saving Time :  2024/04/27 00:25:44
Spectro-Module Model Name : SE2030-DUVN
Spectro-Module Serial Number : OS361AC55029948
Wavelength Start : 200
Wavelength End : 1025
Wavelength Unit : Wavelength(nm)
Spectrum Unit : Reflectance(%)
-----------Spectrum Setting ------------
Integration Time : 20ms
Average : 10
Boxcar : 0
Background removal :  enabled
linearity correction :  enabled
SC :  disabled
Intensity correction :  disabled
DWT denoise :  enabled
savitzky-golay :  disabled
FFT :  disabled
Running average :  disabled
Kalman :  disabled
High pass :  disabled
---------------BEGIN--------------------
Wavelength(nm)             Reflectance(%)
200.29               0
200.75        16.56276
201.21        17.91758
201.67        18.88898
202.13          18.766
202.58        17.41692
203.04        15.26863
203.50        12.15999
203.96        8.488271
204.42        5.053008
204.88        1.681687
205.34       0.3422572
205.80        3.751463
206.26        10.96768
206.72        19.74981
207.18        26.26729
207.64         27.3792
208.10        23.00126
208.55        13.04358
209.01       -2.248578
209.47       -12.40367
209.93        -10.0509
210.39       -1.362198
210.85        7.134562
211.31        13.09633
211.77        18.13734
212.23        25.75112
212.69        42.91821
213.14        75.71037
213.60        81.74874
214.06         63.2446
214.52        48.25853
214.98        40.24616
215.44        35.31824
215.90        30.96537
216.36        27.28284
216.81        24.68435
217.27        23.62372
217.73        24.65758
218.19         27.3078
218.65        28.29277
219.11        26.57534
219.57        23.90425
220.02        22.87181
220.48        25.48267
220.94        32.02946
221.40        43.59403
221.86        59.61856
222.32        69.04879
222.77        63.18464
223.23        50.00324
223.69        37.97554
224.15        31.70663
224.61        30.06608
225.06        30.55619
225.52        32.23359
225.98        34.29385
226.44        36.46609
226.90         39.0561
227.36        41.54689
227.81        42.79755
228.27        42.68595
228.73         41.4888
229.19        40.05901
229.65        39.43062
230.10        39.72656
230.56        40.72395
231.02        41.83316
231.48        42.12002
231.93        41.41984
232.39        40.30175
232.85        39.40635
233.31        39.63771
233.77        40.99086
234.22        43.07212
234.68        45.16325
235.14        46.25499
235.60        46.03792
236.05         44.8341
236.51        42.86087
236.97        40.71318
237.43        38.82804
237.88         37.1697
238.34        36.03275
238.80        35.99863
239.26        37.23194
239.71        40.14156
240.17        44.17348
240.63        47.49536
241.08        48.82428
241.54        47.67275
242.00        45.04023
242.46        43.51758
242.91        44.53523
243.37        47.62474
243.83        52.93732
244.28        57.44463
244.74        56.69784
245.20        51.78371
245.66        44.50505
246.11        35.20696
246.57        24.58151
247.03        12.10818
247.48        1.407335
247.94       -0.538945
248.40        5.374726
248.85        14.05676
249.31        21.33727
249.77        24.65166
250.22        24.28357
250.68        21.02683
251.14        16.18781
251.59         14.4506
252.05        18.25549
252.51        25.06694
252.96        30.78263
253.42        32.01791
253.88        29.53697
254.33        25.33031
254.79         22.2204
255.25        22.41058
255.70        25.77274
256.16        31.26538
256.62         36.7774
257.07        38.93262
257.53         38.0308
257.99        35.87133
258.44        34.00462
258.90         33.9785
259.35        35.21706
259.81        37.17179
260.27        38.89003
260.72        39.23189
261.18        38.35091
261.63        36.70205
262.09        35.16165
262.55         34.3113
263.00        34.08121
263.46        34.25336
263.91        34.32531
264.37        33.83812
264.83        32.78579
265.28        31.42506
265.74        30.21808
266.19        29.52538
266.65        29.42728
267.11        29.68744
267.56        30.10229
268.02        30.34228
268.47         30.3005
268.93        30.10324
269.38        29.75372
269.84        29.29953
270.30         28.7698
270.75        28.12655
271.21        27.52707
271.66        27.18276
272.12        27.11929
272.57        27.26723
273.03        27.40517
273.48        27.16266
273.94        26.51797
274.39        25.59169
274.85        24.67045
275.31        24.04519
275.76        23.75346
276.22        23.70084
276.67        23.72894
277.13        23.67437
277.58        23.45132
278.04        23.13335
278.49        22.72525
278.95        22.32027
279.40         21.9064
279.86        21.51501
280.31         21.0873
280.77          20.619
281.22        20.10115
281.68        19.59966
282.13        19.16742
282.59        18.92538
283.04        18.85683
283.50        18.91953
283.95         19.0199
284.41        19.01571
284.86        18.86358
285.32        18.61722
285.77        18.31661
286.22        18.06149
286.68        17.87635
287.13        17.71456
287.59        17.56312
288.04        17.37143
288.50        17.15448
288.95        16.92585
289.41        16.72606
289.86        16.56539
290.32        16.46734
290.77        16.40766
291.22        16.39429
291.68        16.43272
292.13        16.50975
292.59        16.63127
293.04        16.76575
293.50         16.8804
293.95        16.96281
294.40        17.02502
294.86        17.10201
295.31        17.24572
295.77        17.47184
296.22        17.76211
296.68        18.08471
297.13        18.37952
297.58        18.63749
298.04        18.87907
298.49        19.13605
298.95        19.46864
299.40        19.88041
299.85         20.3459
300.31        20.81916
300.76        21.23266
301.21        21.56519
301.67        21.84009
302.12        22.07158
302.58         22.3237
303.03        22.59144
303.48        22.87314
303.94        23.14077
304.39        23.33419
304.84        23.45646
305.30        23.54095
305.75        23.62129
306.20        23.78761
306.66        24.05416
307.11        24.37383
307.57        24.69332
308.02        24.90265
308.47        24.98445
308.93        24.97819
309.38        24.91986
309.83        24.89982
310.29        24.94163
310.74        25.01627
311.19        25.08996
311.65        25.10457
312.10        25.04294
312.55        24.92657
313.00        24.79781
313.46        24.71564
313.91        24.68346
314.36        24.68988
314.82        24.68929
315.27        24.61625
315.72        24.45739
316.18        24.24406
316.63        24.02441
317.08        23.88337
317.53        23.83673
317.99        23.85017
318.44         23.8809
318.89        23.84995
319.35        23.73402
319.80        23.55662
320.25        23.34286
320.70        23.13349
321.16        22.94307
321.61        22.76797
322.06        22.60197
322.51        22.43834
322.97        22.27232
323.42        22.11226
323.87        21.97019
324.32        21.86588
324.78        21.79227
325.23        21.75234
325.68        21.69815
326.13        21.55905
326.59        21.32315
327.04        21.02226
327.49        20.71935
327.94         20.5152
328.39        20.43036
328.85        20.42857
329.30        20.47137
329.75        20.44869
330.20        20.32883
330.66        20.14084
331.11        19.93727
331.56        19.78704
332.01        19.70927
332.46        19.67303
332.92        19.64364
333.37        19.59834
333.82        19.51313
334.27        19.40808
334.72        19.28272
335.17         19.1312
335.63        18.96083
336.08        18.78682
336.53        18.64023
336.98        18.58029
337.43        18.61645
337.88        18.72366
338.34        18.86335
338.79        18.98615
339.24        19.05788
339.69        19.08953
340.14        19.06112
340.59        18.94734
341.05         18.7643
341.50        18.52468
341.95        18.29143
342.40         18.1611
342.85        18.15454
343.30        18.24311
343.75        18.37949
344.20        18.48215
344.66        18.52394
345.11        18.52267
345.56        18.48402
346.01        18.42076
346.46        18.34549
346.91         18.2555
347.36        18.16908
347.81        18.11859
348.26        18.11163
348.72         18.1443
349.17        18.19915
349.62        18.25515
350.07        18.30182
350.52        18.34109
350.97        18.36532
351.42         18.3652
351.87        18.33823
352.32        18.28325
352.77        18.21139
353.22        18.13947
353.67        18.07325
354.13         18.0168
354.58        17.95797
355.03        17.88173
355.48        17.79001
355.93        17.69105
356.38        17.61262
356.83        17.59521
357.28        17.63932
357.73        17.72379
358.18        17.80609
358.63        17.81831
359.08        17.74232
359.53        17.60038
359.98        17.42066
360.43        17.24497
360.88        17.08923
361.33        16.94466
361.78        16.81342
362.23        16.69971
362.68        16.60398
363.13         16.5284
363.58        16.46599
364.03        16.40157
364.48        16.32862
364.93        16.24729
365.38        16.15688
365.83        16.05989
366.28        15.95802
366.73        15.84976
367.18        15.73821
367.63        15.62867
368.08        15.52252
368.53        15.42055
368.98        15.31944
369.43        15.21217
369.88        15.09794
370.33        14.97955
370.78        14.86416
371.23        14.76418
371.68        14.68364
372.13        14.62007
372.58        14.56729
373.03         14.5138
373.48        14.45633
373.93        14.39793
374.38        14.34133
374.83        14.29292
375.28        14.25096
375.72        14.20199
376.17        14.15453
376.62        14.10384
377.07        14.04899
377.52         13.9965
377.97         13.9315
378.42         13.8312
378.87        13.69929
379.32        13.54555
379.77         13.4129
380.22        13.36358
380.67        13.40283
381.11        13.51218
381.56        13.62761
382.01        13.65055
382.46        13.55803
382.91        13.38944
383.36        13.19794
383.81        13.05686
384.26        12.98388
384.71        12.95441
385.15        12.95612
385.60         12.9739
386.05        12.99519
386.50        13.02714
386.95        13.05303
387.40        13.04548
387.85        13.00218
388.29        12.92179
388.74        12.84341
389.19         12.7955
389.64        12.78176
390.09        12.78913
390.54        12.79798
390.98        12.77165
391.43        12.71247
391.88        12.63673
392.33        12.55697
392.78        12.48955
393.23        12.43961
393.67         12.3918
394.12         12.3658
394.57        12.36737
395.02        12.39132
395.47        12.42861
395.91        12.45455
396.36        12.41821
396.81        12.32179
397.26        12.19083
397.71        12.05169
398.15        11.94985
398.60        11.91134
399.05        11.86952
399.50        11.83983
399.95        11.93279
400.39          12.106
400.84        12.14273
401.29        12.03233
401.74        11.94894
402.18        11.89963
402.63        11.76736
403.08         11.5997
403.53        11.52644
403.97        11.56338
404.42        11.67649
404.87        11.80146
405.32         11.8311
405.76        11.74112
406.21        11.57346
406.66        11.39527
407.11        11.31138
407.55        11.34918
408.00        11.46987
408.45        11.61783
408.90        11.68786
409.34        11.64763
409.79        11.53593
410.24        11.40261
410.68        11.31297
411.13        11.28727
411.58        11.30039
412.03        11.33093
412.47        11.34554
412.92         11.3281
413.37        11.29692
413.81        11.25879
414.26        11.22899
414.71        11.20826
415.15        11.19278
415.60        11.17997
416.05        11.17605
416.49        11.18257
416.94        11.19797
417.39        11.21725
417.83        11.23103
418.28        11.23544
418.73        11.22981
419.17        11.22102
419.62        11.22108
420.07        11.23174
420.51        11.24623
420.96        11.25361
421.41        11.23536
421.85        11.18558
422.30         11.1098
422.74        11.02081
423.19        10.98734
423.64        10.99735
424.08        10.97831
424.53        10.92417
424.98         10.9123
425.42        10.95013
425.87        10.96454
426.31        10.95827
426.76        11.01685
427.21         11.1066
427.65        11.07054
428.10         10.9415
428.54        10.88676
428.99        10.92269
429.44        10.99892
429.88         11.0757
430.33        11.04953
430.77         10.9495
431.22        10.98233
431.66        11.13653
432.11        11.19821
432.56        11.16144
433.00        11.18058
433.45        11.20875
433.89        11.08591
434.34        10.90007
434.78        10.60506
435.23        10.80633
435.67        10.81136
436.12        10.77304
436.57        10.71996
437.01        10.67541
437.46         10.6819
437.90        10.73696
438.35        10.79418
438.79        10.83424
439.24        10.86649
439.68        10.88826
440.13        10.89585
440.57        10.89542
441.02        10.91061
441.46        10.94361
441.91        10.95585
442.35        10.94796
442.80        11.03017
443.24        11.15457
443.69        11.13506
444.13        10.99346
444.58        10.94054
445.02        10.98546
445.47         11.0162
445.91         11.0227
446.36        11.04379
446.80        11.07297
447.24        11.09925
447.69        11.11989
448.13        11.12454
448.58        11.11453
449.02        11.09362
449.47        11.06584
449.91        11.03234
450.36        10.99984
450.80        10.96793
451.25        10.94826
451.69        10.95278
452.13        10.98147
452.58        11.02504
453.02        11.06918
453.47        11.09216
453.91        11.08809
454.36        11.06808
454.80        11.02923
455.24        10.96654
455.69        10.88984
456.13        10.79455
456.58        10.72165
457.02        10.71435
457.46        10.78001
457.91        10.89987
458.35        11.01693
458.79        11.04087
459.24        10.96615
459.68        10.81932
460.13        10.66625
460.57        10.57465
461.01        10.57158
461.46         10.6237
461.90        10.71454
462.34        10.80524
462.79        10.87428
463.23         10.9368
463.68        10.97482
464.12        10.96579
464.56        10.90837
465.01        10.82344
465.45        10.72627
465.89        10.66952
466.34        10.66158
466.78        10.68882
467.22        10.73784
467.67        10.77268
468.11        10.78787
468.55        10.78765
468.99        10.78457
469.44        10.79727
469.88        10.82969
470.32        10.87321
470.77        10.91395
471.21        10.93412
471.65        10.92907
472.10        10.90903
472.54        10.88498
472.98        10.87862
473.42        10.89515
473.87        10.93013
474.31        10.96928
474.75        11.00198
475.20        11.02665
475.64        11.04281
476.08        11.05509
476.52        11.06407
476.97        11.07158
477.41        11.08252
477.85        11.10185
478.29        11.12145
478.74        11.15092
479.18        11.21741
479.62        11.30566
480.06        11.37315
480.50        11.41449
480.95         11.4312
481.39        11.42446
481.83        11.50896
482.27        11.52071
482.72        11.59448
483.16        11.67097
483.60        11.72131
484.04        11.72926
484.48        11.75856
484.93        11.87661
485.37        11.85544
485.81        11.98025
486.25        12.30549
486.69        11.89294
487.14        11.81578
487.58        12.55322
488.02        12.59501
488.46        12.30161
488.90        12.43614
489.34        12.37421
489.79        12.56179
490.23        12.70854
490.67        12.91163
491.11        13.10353
491.55        13.12654
491.99        13.03343
492.43        13.04848
492.88        13.19364
493.32        13.33145
493.76        13.43686
494.20        13.54667
494.64        13.65972
495.08        13.73871
495.52        13.79743
495.96        13.95006
496.41        14.17038
496.85        14.23505
497.29        14.16783
497.73        14.34084
498.17        14.54399
498.61        14.68675
499.05        14.69477
499.49         14.7249
499.93        14.75523
500.37        14.85779
500.82        15.00916
501.26        15.13026
501.70        15.21109
502.14        15.30722
502.58        15.41959
503.02        15.51798
503.46        15.59869
503.90        15.66739
504.34        15.72075
504.78        15.75378
505.22         15.7683
505.66        15.76983
506.10        15.76441
506.54        15.76133
506.98        15.76648
507.42         15.7798
507.86        15.81143
508.30        15.87563
508.74         15.9717
509.18         16.0926
509.62        16.21625
510.06        16.30824
510.50        16.35894
510.94        16.37519
511.38        16.37448
511.82        16.38673
512.26        16.42123
512.70        16.47166
513.14        16.52534
513.58        16.56118
514.02        16.57536
514.46        16.57621
514.90        16.58028
515.34        16.61283
515.78         16.6771
516.22        16.76087
516.66        16.84373
517.10        16.89433
517.54        16.90414
517.98         16.8837
518.42        16.84425
518.86         16.8041
519.30        16.77165
519.74         16.7428
520.18        16.72094
520.62        16.71062
521.06         16.7118
521.50        16.72523
521.93        16.74394
522.37        16.74849
522.81        16.73611
523.25         16.7079
523.69         16.6725
524.13        16.64504
524.57        16.62715
525.01        16.61311
525.45        16.59139
525.89        16.54306
526.32        16.46628
526.76        16.37755
527.20        16.28906
527.64        16.22084
528.08        16.17748
528.52        16.14708
528.96        16.13415
529.40        16.14508
529.83        16.17528
530.27         16.2261
530.71        16.26043
531.15        16.22076
531.59        16.10152
532.03        15.91988
532.46        15.73799
532.90        15.66583
533.34        15.71919
533.78        15.85416
534.22        15.99914
534.66        16.06267
535.09        16.00978
535.53        15.84135
535.97        15.62341
536.41         15.4997
536.85        15.49844
537.28        15.56019
537.72        15.65354
538.16        15.73963
538.60        15.79937
539.04        15.84911
539.47        15.88399
539.91         15.9043
540.35         15.9112
540.79        15.90271
541.22        15.89888
541.66        15.94067
542.10        16.03207
542.54        16.16227
542.97        16.30124
543.41        16.40643
543.85        16.46673
544.29        16.49932
544.72         16.5244
545.16        16.58513
545.60        16.68926
546.04        16.82585
546.47        16.98615
546.91        17.15209
547.35        17.31238
547.79          17.471
548.22        17.62251
548.66        17.75492
549.10         17.8887
549.53        18.01744
549.97        18.14544
550.41        18.23839
550.84        18.31558
551.28        18.43227
551.72        18.57665
552.15        18.72801
552.59        18.90208
553.03        18.88538
553.46        19.13111
553.90        19.22643
554.34        19.30481
554.77        19.37278
555.21        19.44535
555.65        19.53174
556.08        19.62797
556.52         19.7196
556.96        19.79932
557.39        19.91029
557.83        20.03453
558.27        20.05681
558.70        19.99873
559.14        20.01604
559.57        20.10373
560.01        20.16119
560.45        20.18254
560.88        20.22221
561.32        20.29027
561.75         20.3498
562.19        20.40734
562.63        20.46905
563.06        20.53055
563.50        20.59316
563.93        20.63699
564.37         20.6835
564.80        20.74332
565.24        20.76657
565.68        20.71985
566.11        21.00536
566.55        20.87302
566.98        20.93214
567.42        21.00391
567.85        21.16266
568.29         21.3965
568.72        21.64602
569.16        21.90531
569.60        22.04584
570.03        22.13137
570.47        22.26073
570.90        22.37455
571.34        22.19543
571.77        22.47305
572.21        22.59583
572.64        22.62807
573.08        22.86237
573.51        22.74486
573.95         22.9046
574.38         23.1202
574.82        23.32646
575.25        22.91826
575.69        22.90594
576.12        23.07074
576.56        23.23127
576.99        23.43989
577.42        23.01458
577.86        23.22483
578.29        23.49356
578.73        23.26912
579.16        23.20725
579.60        23.01315
580.03        23.06268
580.47        23.05451
580.90        23.01945
581.33        23.05756
581.77        23.17399
582.20        22.71868
582.64        22.73837
583.07        22.46699
583.51        22.40457
583.94        22.46452
584.37        22.51744
584.81        22.39707
585.24        22.22988
585.68        22.08809
586.11        21.80902
586.54        21.92289
586.98        21.83931
587.41        21.72536
587.85        21.66892
588.28        21.68698
588.71        21.65621
589.15        21.65772
589.58        21.64578
590.01        21.61807
590.45        21.68732
590.88        21.87731
591.31        21.81766
591.75        21.61733
592.18        21.53037
592.61        21.51831
593.05        21.98191
593.48        21.94329
593.91        21.66906
594.35        21.66458
594.78        21.67573
595.21        21.90898
595.65        22.10142
596.08        22.28958
596.51        22.42721
596.94        22.44171
597.38        22.57563
597.81        22.80872
598.24        23.00754
598.68        23.19841
599.11         23.4137
599.54        23.72734
599.97        23.77844
600.41        24.08351
600.84        24.16043
601.27        24.50205
601.70        24.83888
602.14        25.21333
602.57         25.4285
603.00        25.55653
603.43        25.68633
603.87        26.45439
604.30        26.76909
604.73        26.86869
605.16        27.09286
605.60        27.47486
606.03        27.71882
606.46        27.81285
606.89        28.27417
607.32        28.73585
607.76        29.11135
608.19        29.34777
608.62        29.50567
609.05        29.72214
609.48        29.99189
609.92        30.61615
610.35        31.05677
610.78        30.58901
611.21        30.70422
611.64        30.91767
612.07        31.33965
612.50        31.65257
612.94        31.96042
613.37        32.18962
613.80        32.34312
614.23        32.32203
614.66         32.5369
615.09        32.91874
615.52        33.11118
615.96        33.11066
616.39        33.31926
616.82        33.58042
617.25        33.75327
617.68        33.99984
618.11        34.21075
618.54        34.44678
618.97         34.6451
619.40         34.7953
619.84        35.03018
620.27        35.01474
620.70        35.12222
621.13        35.24332
621.56        35.06419
621.99        34.81274
622.42        34.82383
622.85        35.15901
623.28        35.10365
623.71        35.12695
624.14        35.38347
624.57        35.42859
625.00        35.49127
625.43        35.46402
625.86        35.30699
626.29        35.06042
626.72        35.03518
627.15        34.86027
627.58        34.84805
628.01        34.83075
628.44        34.70361
628.87        34.48787
629.30        34.26996
629.73        34.16884
630.16        34.09744
630.59        33.81915
631.02         33.6277
631.45        33.44789
631.88        33.25335
632.31        33.03747
632.74        32.81107
633.17        32.56094
633.60        32.25813
634.03        31.90241
634.46        31.50387
634.89        31.08427
635.32        30.68674
635.75        30.32693
636.18        29.96406
636.61        29.61235
637.04        29.30517
637.47        29.03572
637.89        28.80844
638.32        28.59239
638.75        28.31281
639.18        27.95401
639.61        27.73986
640.04        27.34157
640.47        27.11287
640.90        26.95553
641.33        26.86338
641.76        26.79222
642.18        26.67968
642.61        26.50761
643.04        26.29769
643.47        26.09855
643.90        25.98644
644.33         25.9787
644.76        26.05086
645.18        26.15791
645.61        26.22236
646.04        26.22563
646.47        26.19112
646.90          26.162
647.33        26.19971
647.75        26.31696
648.18        26.53098
648.61        26.81252
649.04        27.02496
649.47        27.13502
649.89        27.54492
650.32        27.57734
650.75        27.96334
651.18         28.4457
651.61        28.86398
652.03        29.21578
652.46        29.49125
652.89        29.70382
653.32        30.08541
653.74        30.68696
654.17        30.50697
654.60        30.94835
655.03        31.29032
655.46        31.42893
655.88        31.98447
656.31        33.22752
656.74        33.93657
657.16        33.67096
657.59         33.5904
658.02        33.51671
658.45        34.41315
658.87        34.15285
659.30        34.25221
659.73        34.46769
660.15        34.95102
660.58        34.90823
661.01        35.10193
661.44        35.32404
661.86        35.42097
662.29         35.4086
662.72        35.86781
663.14        36.08865
663.57        36.31049
664.00        36.36614
664.42         36.5621
664.85        36.91294
665.27        37.27145
665.70        37.55869
666.13        37.70292
666.55        37.76591
666.98        37.66734
667.41        37.49155
667.83        37.57883
668.26        37.57142
668.69        37.75952
669.11         37.9968
669.54        38.23328
669.96         38.4472
670.39        38.64958
670.82        38.84207
671.24        39.00845
671.67        39.14268
672.09        39.23302
672.52        39.29846
672.94        39.34946
673.37         39.3985
673.80        39.44575
674.22        39.49982
674.65        39.54827
675.07        39.60303
675.50        39.66245
675.92        39.73416
676.35        39.82128
676.77        39.92373
677.20        40.03405
677.62        40.14908
678.05        40.26278
678.47        40.37099
678.90        40.47978
679.32        40.57691
679.75        40.65192
680.17        40.70263
680.60        40.73428
681.02        40.77768
681.45        40.87094
681.87        41.01618
682.30        41.23398
682.72         41.5002
683.15        41.61567
683.57        41.54148
684.00        41.82371
684.42        41.59829
684.85        41.68853
685.27         41.8335
685.70        42.03136
686.12        42.21346
686.54        42.30173
686.97        42.28539
687.39        42.19258
687.82        42.07285
688.24        42.01473
688.66        42.04376
689.09        42.13365
689.51        42.27038
689.94        42.40886
690.36        42.53677
690.78        42.65417
691.21        42.77016
691.63        42.89283
692.06        43.02417
692.48        43.16329
692.90        43.27923
693.33        43.33023
693.75        43.31443
694.17        43.22915
694.60        43.14837
695.02        43.20924
695.44        43.41759
695.87        43.69954
696.29        43.97295
696.71        44.05991
697.14        43.96703
697.56        43.85994
697.98        43.81435
698.41        43.82257
698.83        43.89877
699.25         44.1108
699.68        44.36563
700.10        44.50717
700.52        44.48828
700.94        44.36425
701.37        44.23415
701.79        44.26294
702.21        44.47883
702.64        44.81563
703.06        45.17408
703.48        45.38312
703.90        45.39697
704.33        45.27232
704.75        45.08609
705.17        44.95479
705.59        44.92502
706.01        44.96549
706.44         45.0562
706.86        45.18653
707.28        45.33525
707.70        45.47845
708.12        45.62055
708.55        45.82617
708.97        46.05701
709.39        46.13758
709.81        46.08144
710.23        46.08444
710.66        46.16114
711.08        46.21171
711.50        46.21576
711.92        46.20437
712.34        46.18156
712.76        46.15178
713.19        46.12241
713.61        46.12938
714.03        46.17188
714.45        46.24722
714.87        46.36107
715.29        46.52169
715.71        46.71963
716.13        46.94189
716.56        47.15676
716.98         47.3298
717.40        47.41259
717.82        47.49727
718.24        47.59679
718.66        47.29267
719.08          47.306
719.50        47.09945
719.92        46.93395
720.34        46.86813
720.76        46.92305
721.19         47.0549
721.61        47.25273
722.03        47.47861
722.45        47.69782
722.87        47.90665
723.29        48.05328
723.71        48.05786
724.13        47.91648
724.55        47.66381
724.97         47.3773
725.39        47.19164
725.81        47.15018
726.23         47.2039
726.65        47.32678
727.07        47.57665
727.49        47.75641
727.91         48.0106
728.33        48.25494
728.75         48.4367
729.17        48.53712
729.59        48.56001
730.01        48.53483
730.43        48.51724
730.85        48.52513
731.27        48.54393
731.69        48.56564
732.10        48.57514
732.52        48.56775
732.94        48.56462
733.36        48.58033
733.78        48.53907
734.20        48.43228
734.62        48.45326
735.04        48.66969
735.46         48.2829
735.88        48.73045
736.30        48.84146
736.72         49.0255
737.13         49.2077
737.55         49.3371
737.97        49.52237
738.39        49.69304
738.81        49.55161
739.23        49.20143
739.65        49.21124
740.06        49.53234
740.48        49.67753
740.90        49.61467
741.32        49.64275
741.74        49.78114
742.16        49.90223
742.57         49.9995
742.99        50.09201
743.41        50.15805
743.83        50.15156
744.25        50.07169
744.67        49.92766
745.08        49.78486
745.50        49.73352
745.92         49.8019
746.34         49.9599
746.75        50.14838
747.17        50.25971
747.59        50.27345
748.01        50.22047
748.42         50.1436
748.84        50.13544
749.26        50.21772
749.68        50.28743
750.09        50.32495
750.51        50.46558
750.93        50.61962
751.35        50.45555
751.76        50.04719
752.18        49.82356
752.60        49.82101
753.01        49.82808
753.43        49.81562
753.85        49.85386
754.27        49.93714
754.68        50.05528
755.10        50.19376
755.52        50.32333
755.93         50.4223
756.35        50.48806
756.77        50.56979
757.18         50.6092
757.60        50.59708
758.02        50.81018
758.43        51.19634
758.85         50.5023
759.26        50.55391
759.68        50.12141
760.10        50.44908
760.51        50.50131
760.93        50.49363
761.34         50.5212
761.76        50.86929
762.18        50.98689
762.59        51.00256
763.01        51.13285
763.42        51.38622
763.84        51.47672
764.26         51.3976
764.67        51.23084
765.09        51.06192
765.50        50.97494
765.92        51.01595
766.33        51.02921
766.75        50.87845
767.16        51.09547
767.58        50.66992
768.00        50.54131
768.41        50.50872
768.83        50.88308
769.24        51.47623
769.66        51.57523
770.07        51.23384
770.49        51.07833
770.90        51.20089
771.32        51.45609
771.73         51.7305
772.15        51.80054
772.56        51.66585
772.97        51.36694
773.39        50.98865
773.80        51.23006
774.22        51.11512
774.63        51.44952
775.05        51.80203
775.46        52.02953
775.88        52.04964
776.29        51.94476
776.70        51.79692
777.12        51.72723
777.53        51.78334
777.95        51.89386
778.36        52.02568
778.77        52.09836
779.19        52.09488
779.60        52.06073
780.02        51.98854
780.43        51.88643
780.84        51.77704
781.26        51.56035
781.67         51.3429
782.09        51.49023
782.50         51.9267
782.91        52.13191
783.33        52.06495
783.74        52.10274
784.15          52.229
784.57        52.20954
784.98        52.10432
785.39        52.09284
785.81        52.21455
786.22        52.48557
786.63        52.81731
787.04         52.9953
787.46        52.99244
787.87        52.88743
788.28        52.74556
788.70        52.62569
789.11        52.54059
789.52        52.50227
789.93        52.49427
790.35        52.47221
790.76        52.44054
791.17        52.42745
791.58        52.45863
792.00        52.49987
792.41        52.56212
792.82        52.74667
793.23        52.94484
793.65        52.84091
794.06        52.54488
794.47        52.43443
794.88        52.47549
795.29        53.02825
795.71         52.6245
796.12        52.84383
796.53        53.20943
796.94        53.18665
797.35        52.85867
797.76        53.04299
798.18         53.6669
798.59        53.92114
799.00        53.73877
799.41        53.56599
799.82        53.48495
800.23        53.42951
800.64         53.4232
801.06        53.45956
801.47        53.52327
801.88        53.51198
802.29        53.40088
802.70        53.21719
803.11        53.00081
803.52        52.81975
803.93        52.71483
804.34        52.67631
804.75        52.69958
805.17        52.83459
805.58         53.1118
805.99        53.28294
806.40        53.36298
806.81        53.90173
807.22        54.63462
807.63        54.35629
808.04        53.27461
808.45         52.7881
808.86        53.02532
809.27        53.26023
809.68        53.34328
810.09        53.35959
810.50         53.2635
810.91        53.03798
811.32        52.83382
811.73        52.88732
812.14        53.23915
812.55        53.81937
812.96        54.42566
813.37        54.67278
813.78        54.45824
814.19        53.93546
814.60        53.30949
815.01        52.84967
815.42        52.62687
815.83        52.56135
816.24        52.61842
816.65        52.72701
817.05        52.85166
817.46        53.00906
817.87        53.16254
818.28        53.20816
818.69         53.1315
819.10        52.93071
819.51        52.72329
819.92        52.73479
820.33        53.01099
820.74        53.48124
821.14        53.96415
821.55        54.16663
821.96        54.02057
822.37          53.611
822.78        53.10723
823.19        52.79911
823.60        52.77776
824.00         52.9818
824.41        53.24863
824.82        53.37466
825.23        53.28849
825.64        53.06465
826.04        52.81011
826.45        52.66014
826.86        52.66916
827.27        52.79454
827.68        52.96213
828.08        53.07543
828.49        53.05905
828.90        52.95578
829.31        52.85476
829.72         52.8983
830.12        53.13619
830.53        53.48521
830.94        53.81089
831.35        53.85357
831.75        53.56879
832.16        53.01997
832.57        52.43977
832.97        52.17382
833.38         52.3051
833.79        52.72326
834.20        53.23512
834.60        53.53373
835.01        53.53942
835.42        53.36515
835.82        53.14772
836.23        53.06441
836.64         53.1939
837.04        53.44265
837.45         53.7553
837.86        54.10394
838.26        54.46508
838.67        54.80928
839.08        55.02708
839.48        54.89342
839.89        54.38343
840.29        53.60288
840.70        52.84016
841.11        52.37412
841.51        52.28294
841.92        52.46703
842.33        52.85625
842.73        53.31724
843.14        53.69554
843.54         54.0593
843.95        54.34254
844.35         54.4957
844.76        54.49766
845.17        54.34062
845.57        54.10822
845.98         53.9293
846.38        53.86094
846.79        53.87783
847.19        53.91669
847.60        53.85009
848.00        53.66258
848.41        53.38085
848.81        53.11787
849.22        52.99205
849.62         53.0661
850.03        53.28674
850.43        53.56289
850.84        53.69881
851.24        53.67568
851.65        53.49607
852.05        53.32504
852.46        53.37158
852.86        53.67601
853.27        54.14524
853.67        54.55587
854.07        54.69038
854.48         54.4889
854.88         54.0398
855.29        53.44889
855.69        53.00671
856.10        52.77016
856.50        52.73822
856.90        52.79227
857.31        52.73796
857.71        52.57251
858.12        52.31736
858.52        52.12672
858.92        52.16178
859.33        52.43789
859.73         52.9044
860.13        53.39146
860.54        53.64625
860.94        53.62624
861.34        53.39437
861.75        53.04713
862.15        52.78062
862.55        52.64913
862.96        52.57738
863.36         52.5883
863.76        52.65725
864.17        52.75175
864.57        52.91524
864.97        53.04704
865.38        52.99115
865.78        52.74371
866.18         52.3255
866.58        51.88526
866.99        51.69299
867.39        51.83648
867.79        52.24468
868.19        52.73724
868.60        53.01661
869.00        53.03423
869.40        52.83784
869.80        52.60034
870.21        52.64058
870.61        53.07364
871.01        53.73441
871.41        54.33027
871.81        54.46432
872.22        54.07188
872.62        53.27082
873.02        52.36307
873.42         51.8665
873.82        51.92767
874.22        52.39153
874.63        52.95213
875.03        53.13635
875.43        52.81897
875.83        52.17602
876.23         51.4574
876.63        51.04255
877.03        51.03487
877.44        51.26971
877.84        51.62416
878.24        51.94726
878.64        52.10909
879.04        51.99464
879.44         51.7375
879.84        51.68583
880.24        51.87486
880.64        52.13564
881.04        52.33527
881.44        52.31386
881.84        52.03693
882.24        51.58111
882.65        51.10452
883.05        50.83929
883.45        50.84996
883.85         51.0744
884.25        51.41036
884.65        51.67714
885.05         51.8103
885.45        51.85913
885.85        51.87696
886.25        51.94689
886.65        52.09321
887.05        52.28072
887.45        52.46832
887.85        52.59797
888.25        52.64718
888.65        52.62878
889.04        52.57906
889.44        52.57856
889.84        52.62932
890.24        52.70758
890.64        52.74897
891.04        52.65414
891.44        52.41226
891.84        52.07285
892.24        51.72313
892.64        51.48154
893.04         51.3869
893.44        51.42649
893.83        51.56406
894.23         51.6877
894.63        51.78342
895.03        51.85898
895.43        51.98016
895.83        52.26011
896.23        52.68984
896.63        53.18992
897.02        53.59469
897.42        53.68007
897.82        53.39881
898.22         52.8575
898.62        52.19366
899.01        51.60115
899.41        51.17171
899.81        50.86771
900.21        50.70376
900.61        50.69744
901.00        50.82805
901.40        51.07372
901.80        51.37331
902.20        51.61755
902.59        51.77275
902.99        51.85426
903.39        51.83183
903.79        51.67117
904.18        51.38335
904.58         50.9856
904.98        50.63406
905.38        50.57122
905.77        50.83742
906.17        51.39075
906.57           51.99
906.96        52.22473
907.36         51.9901
907.76        51.41055
908.15        50.81786
908.55        50.72389
908.95        51.24535
909.34        52.22603
909.74         53.2734
910.14        53.81356
910.53        53.66557
910.93        53.03182
911.33        52.19466
911.72        51.58083
912.12        51.36781
912.52        51.42344
912.91        51.59584
913.31        51.66938
913.70          51.584
914.10        51.38219
914.49        51.22897
914.89        51.32312
915.29        51.71523
915.68        52.33931
916.08        52.89161
916.47        52.93043
916.87        52.39653
917.26         51.4356
917.66        50.48605
918.05        50.08548
918.45        50.34135
918.84        51.12511
919.24        52.06266
919.64        52.60384
920.03        52.58137
920.42         52.1291
920.82        51.57535
921.21         51.3778
921.61        51.64299
922.00        52.25571
922.40        52.92304
922.79        53.25163
923.19        53.10103
923.58        52.63659
923.98        52.12071
924.37        51.88432
924.77        52.01428
925.16        52.36689
925.55        52.78464
925.95        52.98661
926.34         52.8987
926.74        52.60961
927.13        52.20445
927.52        51.75079
927.92        51.34087
928.31         50.9423
928.70        50.64342
929.10        50.55926
929.49        50.68147
929.89        50.93725
930.28        51.29892
930.67          51.617
931.07        51.80406
931.46        51.94876
931.85        51.92686
932.24        51.59217
932.64        50.99756
933.03        50.18429
933.42        49.47783
933.82        49.33783
934.21        49.83901
934.60        50.88476
934.99        52.11431
935.39        52.86376
935.78        52.95844
936.17        52.49544
936.56        51.80639
936.96        51.42611
937.35        51.48603
937.74        51.81894
938.13        52.13127
938.53        51.98802
938.92        51.32174
939.31        50.34209
939.70        49.34098
940.09        48.70276
940.49        48.50161
940.88        48.63979
941.27        48.99585
941.66         49.3425
942.05        49.58104
942.44        49.77882
942.84        49.95114
943.23        50.10828
943.62        50.25949
944.01        50.34734
944.40        50.39569
944.79        50.47661
945.18        50.58663
945.57        50.70435
945.97        50.70844
946.36        50.47949
946.75        49.98564
947.14        49.33969
947.53         48.6895
947.92        48.22591
948.31        48.00737
948.70        47.98564
949.09        48.15545
949.48        48.49724
949.87        48.96895
950.26        49.55263
950.65        50.13949
951.04        50.55969
951.43        50.74939
951.82        50.71229
952.21        50.52256
952.60        50.32315
952.99        50.18059
953.38        50.10518
953.77        50.04193
954.16        49.89714
954.55        49.65252
954.94        49.30933
955.33        49.04815
955.72        49.16621
956.11        49.71198
956.50        50.61858
956.89        51.46425
957.28        51.54583
957.66        50.72944
958.05        49.27667
958.44        47.79838
958.83        47.17748
959.22        47.58105
959.61        48.77029
960.00        50.20441
960.39        50.87244
960.78        50.46911
961.16        49.32045
961.55        48.01361
961.94          47.335
962.33        47.48053
962.72        48.24094
963.11        49.24496
963.49        49.81583
963.88        49.65832
964.27        48.98288
964.66         48.2421
965.04        48.10871
965.43        48.68009
965.82        49.81154
966.21        50.96145
966.60        51.11275
966.98        50.01638
967.37        48.13285
967.76        46.26935
968.15        45.43105
968.53        45.79308
968.92        47.07839
969.31        48.73963
969.69        49.67643
970.08        49.43264
970.47        48.36035
970.86         47.0974
971.24        46.53235
971.63        46.86519
972.02        47.85646
972.40        49.03456
972.79        49.32027
973.17         48.4874
973.56        46.95804
973.95        45.44228
974.33        44.83395
974.72        45.29265
975.11        46.50183
975.49        48.03207
975.88        49.02357
976.26        49.17373
976.65        48.72684
977.04        47.93077
977.42        47.14767
977.81        46.50497
978.19        45.86036
978.58        45.45199
978.96         45.6236
979.35        46.38414
979.74        47.67947
980.12        49.09274
980.51        49.63913
980.89        49.19167
981.28        48.02448
981.66        46.70453
982.05         46.0109
982.43         46.1575
982.82        46.90742
983.20        48.12191
983.59        49.46986
983.97        50.77592
984.35        52.06944
984.74         53.0727
985.12        53.55687
985.51         53.4131
985.89        52.72051
986.28        51.76087
986.66        50.90751
987.04        50.34621
987.43        49.99545
987.81        49.86924
988.20        49.90951
988.58        50.07651
988.96        50.31752
989.35        50.54405
989.73        50.63643
990.12        50.54708
990.50        50.34932
990.88        49.90454
991.27        49.05303
991.65        47.86135
992.03        46.43166
992.42        45.26215
992.80        45.02294
993.18        45.81194
993.56        47.50448
993.95        49.41824
994.33        50.33591
994.71        49.79558
995.10        48.23581
995.48        46.45903
995.86        45.73848
996.24        46.36392
996.63        47.87403
997.01        49.85777
997.39        51.18361
997.77        51.34972
998.15        50.80579
998.54        49.74625
998.92        48.33751
999.30        46.85254
999.68        45.27792
1000.06        44.14843
1000.45         44.2244
1000.83         45.7008
1001.21        48.48306
1001.59        51.95708
1001.97        54.46039
1002.35        55.23719
1002.73        54.66951
1003.12         53.5428
1003.50        52.86562
1003.88         53.0041
1004.26        53.53915
1004.64        54.34875
1005.02        55.16656
1005.40         55.7774
1005.78        56.42348
1006.16        56.65362
1006.54        55.70131
1006.92        53.62403
1007.30        50.73697
1007.69        48.11036
1008.07        47.08765
1008.45        48.07954
1008.83        50.81795
1009.21        54.40987
1009.59        56.60508
1009.97        56.32223
1010.35        54.15873
1010.73        51.18376
1011.11        48.95847
1011.49        47.92099
1011.86        47.62211
1012.24        47.67316
1012.62        47.58236
1013.00        47.20825
1013.38        46.72999
1013.76        46.36977
1014.14        46.54126
1014.52        47.34328
1014.90        48.49361
1015.28        49.56994
1015.66        50.08624
1016.04        49.97038
1016.41        49.41682
1016.79        48.57848
1017.17        47.79945
1017.55        47.25706
1017.93        46.83514
1018.31        46.68784
1018.69        47.02989
1019.06        47.87832
1019.44        49.33713
1019.82        50.89845
1020.20        51.37041
1020.58        50.34094
1020.95        48.10083
1021.33        45.86161
1021.71        44.95852
1022.09        45.59748
1022.46        47.71716
1022.84        50.27654
1023.22        50.68062
1023.60        48.12658
1023.97        43.45046
1024.35         39.3071
1024.73        38.69091
