SpectraSmart Spectrum 2.9.0.0
--------- Device Information -----------
Spectrum Name :  反射率_0
Saving Time :  2024/04/27 00:25:06
Spectro-Module Model Name : SE2030-DUVN
Spectro-Module Serial Number : OS361AC55029948
Wavelength Start : 200
Wavelength End : 1025
Wavelength Unit : Wavelength(nm)
Spectrum Unit : Reflectance(%)
-----------Spectrum Setting ------------
Integration Time : 20ms
Average : 10
Boxcar : 0
Background removal :  enabled
linearity correction :  enabled
SC :  disabled
Intensity correction :  disabled
DWT denoise :  enabled
savitzky-golay :  disabled
FFT :  disabled
Running average :  disabled
Kalman :  disabled
High pass :  disabled
---------------BEGIN--------------------
Wavelength(nm)             Reflectance(%)
200.29               0
200.75        28.96548
201.21        25.77002
201.67        22.82514
202.13         20.5485
202.58        18.67944
203.04        17.12619
203.50        15.97789
203.96        15.70686
204.42        16.59142
204.88        18.44397
205.34        20.64548
205.80        21.95041
206.26        21.93146
206.72        21.11091
207.18        19.49764
207.64        16.77869
208.10        12.65375
208.55        6.125402
209.01       -2.006925
209.47       -4.470026
209.93        1.342275
210.39        10.21541
210.85        17.04303
211.31        20.00395
211.77        19.75901
212.23        15.64976
212.69        4.003019
213.14       -9.117229
213.60        1.126731
214.06        18.00117
214.52        26.40289
214.98        28.63294
215.44        27.71995
215.90        24.89334
216.36        21.27882
216.81         18.1386
217.27        16.22411
217.73        15.47705
218.19        14.82772
218.65        11.93618
219.11        8.027572
219.57         5.29885
220.02        5.623085
220.48        10.47731
220.94        20.66094
221.40        38.25829
221.86         63.5094
222.32        81.87052
222.77        79.23058
223.23        64.54721
223.69        48.95778
224.15        39.25223
224.61        34.74112
225.06        32.52658
225.52        32.09776
225.98        33.07312
226.44        35.06322
226.90        38.25762
227.36        41.57693
227.81         42.9282
228.27        42.07935
228.73        39.66338
229.19        37.27363
229.65          36.808
230.10         38.3936
230.56        41.45657
231.02        44.61861
231.48        45.69492
231.93        44.31618
232.39        41.57594
232.85        38.98845
233.31        38.52171
233.77        40.31564
234.22        43.68468
234.68        47.23306
235.14        48.86219
235.60        47.98062
236.05        45.12134
236.51        41.36291
236.97        39.07283
237.43        39.26429
237.88        41.42294
238.34        44.43893
238.80        46.60699
239.26        47.35371
239.71        47.34437
240.17        46.79278
240.63        46.98513
241.08        48.83583
241.54        51.55581
242.00        55.31302
242.46        60.77679
242.91        69.08492
243.37        81.80483
243.83        98.83952
244.28        111.0372
244.74        106.5768
245.20        86.61507
245.66        65.12609
246.11        53.55434
246.57        51.73762
247.03        55.90095
247.48        61.78576
247.94        61.96319
248.40        56.65485
248.85        50.16727
249.31        44.91832
249.77        41.61362
250.22        39.61996
250.68        37.99964
251.14        36.86615
251.59         37.1234
252.05        39.23315
252.51        42.83471
252.96        45.64958
253.42        45.89234
253.88        44.00306
254.33        40.70824
254.79        38.53859
255.25        39.47911
255.70        43.25107
256.16        49.02886
256.62        54.08641
257.07         54.3686
257.53         50.9741
257.99        46.41197
258.44        42.84307
258.90        42.24306
259.35        43.67719
259.81        46.26473
260.27        48.60785
260.72        49.01113
261.18         47.6823
261.63         45.3541
262.09         43.1865
262.55        41.96717
263.00         41.6323
263.46        41.87206
263.91         42.1135
264.37        41.88057
264.83        41.09434
265.28        39.95747
265.74        38.91865
266.19         38.2757
266.65        38.10353
267.11        38.17846
267.56        38.23428
268.02        37.85955
268.47        36.98711
268.93        35.82893
269.38          34.581
269.84        33.57585
270.30        32.89346
270.75        32.40286
271.21        32.11039
271.66         31.9815
272.12        31.95918
272.57        32.02431
273.03        31.98013
273.48        31.50526
273.94        30.61231
274.39        29.40068
274.85         28.1915
275.31        27.31804
275.76        26.82868
276.22        26.63979
276.67        26.57396
277.13        26.43956
277.58        26.14143
278.04        25.76124
278.49        25.31997
278.95        24.94244
279.40          24.608
279.86        24.32805
280.31        23.99781
280.77        23.56322
281.22          23.001
281.68        22.39718
282.13        21.83778
282.59        21.49749
283.04         21.3684
283.50        21.40527
283.95         21.4831
284.41        21.41053
284.86        21.14769
285.32        20.78211
285.77        20.41076
286.22        20.21559
286.68        20.22564
287.13        20.34811
287.59        20.51159
288.04        20.57397
288.50        20.51724
288.95        20.37012
289.41        20.18593
289.86        19.98973
290.32        19.82515
290.77        19.67114
291.22        19.55637
291.68        19.51449
292.13        19.54604
292.59        19.66485
293.04        19.85001
293.50         20.0793
293.95        20.33686
294.40        20.62635
294.86        20.96143
295.31        21.36064
295.77        21.82358
296.22        22.32524
296.68        22.83531
297.13         23.2996
297.58        23.71202
298.04        24.09307
298.49        24.46511
298.95        24.87746
299.40        25.33676
299.85        25.82861
300.31         26.3399
300.76        26.84552
301.21        27.33252
301.67        27.81179
302.12        28.25785
302.58        28.68136
303.03        29.06058
303.48        29.41237
303.94        29.74002
304.39        30.02365
304.84        30.27634
305.30        30.51307
305.75        30.74199
306.20        31.02314
306.66        31.36633
307.11        31.73765
307.57        32.09378
308.02        32.32715
308.47        32.42918
308.93        32.43622
309.38        32.40009
309.83        32.44652
310.29        32.59801
310.74        32.80936
311.19         33.0046
311.65        33.05487
312.10        32.92865
312.55        32.67553
313.00        32.37875
313.46        32.15834
313.91        32.03434
314.36        31.97903
314.82         31.9403
315.27        31.84496
315.72        31.66852
316.18        31.44414
316.63        31.20111
317.08        30.99534
317.53        30.83878
317.99        30.70842
318.44        30.57523
318.89        30.38513
319.35        30.12806
319.80         29.8223
320.25        29.51108
320.70        29.26092
321.16         29.0854
321.61        28.97616
322.06        28.88042
322.51        28.71524
322.97        28.45521
323.42        28.12228
323.87        27.78345
324.32        27.55236
324.78        27.44186
325.23        27.43589
325.68        27.41716
326.13        27.19767
326.59        26.74224
327.04        26.12731
327.49        25.50422
327.94        25.10705
328.39        24.98396
328.85        25.05392
329.30        25.20767
329.75        25.19802
330.20        24.95078
330.66        24.54119
331.11         24.0785
331.56        23.71641
332.01        23.50406
332.46        23.38107
332.92        23.30538
333.37        23.25029
333.82        23.17776
334.27        23.11131
334.72        23.02229
335.17        22.85273
335.63        22.59983
336.08        22.29594
336.53        21.99736
336.98         21.8129
337.43        21.76825
337.88        21.81892
338.34        21.93399
338.79        22.07776
339.24        22.20749
339.69        22.33371
340.14        22.37676
340.59        22.21443
341.05        21.85036
341.50        21.32657
341.95        20.79802
342.40        20.50393
342.85        20.49491
343.30        20.70275
343.75         20.9952
344.20        21.14752
344.66        21.09781
345.11        20.91321
345.56         20.6747
346.01        20.51298
346.46        20.46826
346.91        20.48975
347.36         20.5429
347.81        20.58354
348.26         20.5919
348.72        20.58644
349.17        20.56397
349.62        20.52448
350.07        20.47014
350.52        20.40088
350.97        20.31194
351.42        20.20124
351.87        20.07553
352.32        19.94119
352.77        19.82504
353.22        19.76224
353.67         19.7553
354.13        19.79424
354.58        19.83932
355.03        19.82977
355.48           19.75
355.93        19.61665
356.38        19.46774
356.83        19.36206
357.28        19.30972
357.73        19.28821
358.18        19.26398
358.63        19.18448
359.08        19.03903
359.53        18.85144
359.98         18.6469
360.43        18.45884
360.88        18.29699
361.33        18.14991
361.78        18.01676
362.23        17.89693
362.68        17.79084
363.13        17.70585
363.58        17.62786
364.03        17.53236
364.48        17.41344
364.93        17.26935
365.38        17.13093
365.83         17.0515
366.28        17.03695
366.73        17.06934
367.18        17.08825
367.63        16.99992
368.08        16.78858
368.53        16.48573
368.98        16.16411
369.43        15.93851
369.88        15.83886
370.33         15.8351
370.78        15.86567
371.23         15.8269
371.68        15.69016
372.13        15.48667
372.58        15.27324
373.03        15.13888
373.48        15.10273
373.93        15.13154
374.38        15.16988
374.83        15.13242
375.28        15.00169
375.72        14.80978
376.17        14.61491
376.62        14.48182
377.07        14.42981
377.52        14.43622
377.97        14.48011
378.42        14.53002
378.87        14.56743
379.32        14.59229
379.77        14.60539
380.22        14.60826
380.67        14.59863
381.11          14.578
381.56        14.51652
382.01        14.38653
382.46        14.19619
382.91        13.96894
383.36        13.75941
383.81        13.63732
384.26          13.611
384.71        13.66042
385.15        13.73684
385.60        13.76107
386.05        13.70978
386.50        13.60757
386.95        13.49232
387.40        13.42391
387.85        13.41551
388.29         13.4345
388.74         13.4699
389.19        13.47967
389.64         13.4535
390.09        13.40041
390.54        13.33257
390.98        13.26585
391.43         13.2141
391.88        13.17031
392.33        13.12125
392.78        13.04764
393.23        12.95056
393.67        12.83633
394.12        12.73782
394.57        12.67551
395.02        12.65229
395.47        12.65314
395.91        12.66844
396.36        12.67294
396.81        12.66523
397.26        12.65488
397.71         12.6316
398.15        12.58784
398.60         12.5428
399.05        12.44834
399.50        12.34407
399.95        12.37894
400.39         12.5185
400.84        12.52603
401.29        12.39978
401.74         12.3327
402.18        12.33035
402.63        12.27117
403.08        12.16912
403.53        12.10193
403.97        12.07763
404.42         12.0775
404.87         12.0816
405.32        12.05634
405.76        11.99266
406.21         11.9068
406.66        11.82584
407.11        11.79298
407.55        11.81886
408.00         11.8841
408.45        11.95186
408.90        11.95196
409.34        11.86823
409.79        11.72853
410.24        11.58157
410.68        11.49083
411.13        11.47398
411.58        11.51079
412.03         11.5708
412.47         11.6013
412.92        11.58162
413.37        11.53317
413.81        11.47823
414.26        11.45732
414.71         11.4746
415.15         11.5177
415.60        11.56539
416.05        11.59072
416.49         11.5852
416.94        11.55795
417.39        11.52079
417.83        11.49034
418.28        11.47084
418.73        11.45438
419.17        11.44187
419.62        11.43544
420.07        11.43377
420.51        11.43525
420.96        11.43018
421.41        11.40077
421.85        11.34159
422.30        11.25633
422.74        11.15942
423.19        11.12326
423.64        11.13587
424.08         11.1238
424.53        11.07677
424.98        11.06596
425.42        11.09739
425.87        11.09833
426.31        11.07924
426.76        11.13888
427.21        11.24523
427.65        11.23516
428.10        11.12999
428.54        11.08194
428.99        11.10457
429.44        11.15278
429.88        11.19732
430.33        11.15053
430.77        11.04592
431.22        11.08699
431.66        11.25528
432.11        11.32323
432.56        11.28272
433.00        11.29584
433.45        11.32033
433.89        11.20358
434.34        11.03543
434.78         10.7602
435.23        10.99273
435.67        11.03328
436.12        11.03412
436.57        11.02345
437.01        11.00798
437.46        11.00267
437.90        11.00253
438.35        10.97261
438.79        10.92247
439.24        10.90386
439.68        10.92246
440.13        10.96166
440.57        11.00927
441.02        11.05586
441.46        11.09272
441.91        11.09311
442.35        11.06319
442.80        11.12096
443.24         11.2212
443.69        11.17241
444.13        11.00611
444.58        10.94984
445.02        11.01377
445.47        11.08078
445.91        11.12468
446.36        11.15807
446.80        11.16984
447.24        11.15916
447.69        11.13615
448.13        11.11136
448.58        11.09231
449.02        11.07381
449.47        11.05904
449.91        11.04837
450.36        11.04343
450.80        11.04266
451.25        11.04339
451.69        11.03446
452.13        11.01445
452.58        10.98429
453.02        10.94796
453.47        10.91396
453.91        10.88576
454.36         10.8649
454.80        10.84452
455.24        10.81189
455.69        10.76944
456.13        10.71337
456.58        10.67102
457.02        10.66463
457.46        10.70142
457.91        10.77199
458.35        10.83728
458.79        10.83701
459.24        10.77254
459.68        10.65767
460.13        10.55137
460.57        10.51264
461.01        10.56126
461.46        10.66434
461.90         10.7902
462.34        10.87413
462.79        10.89106
463.23        10.86601
463.68        10.80303
464.12        10.71851
464.56        10.62533
465.01        10.53447
465.45        10.45311
465.89        10.42097
466.34        10.43931
466.78        10.49598
467.22        10.57013
467.67        10.61186
468.11        10.61248
468.55        10.58088
468.99        10.53473
469.44        10.50273
469.88        10.49508
470.32        10.50218
470.77        10.52112
471.21        10.55037
471.65         10.5845
472.10        10.62558
472.54         10.6633
472.98        10.68537
473.42         10.6892
473.87        10.68173
474.31        10.66258
474.75        10.64313
475.20        10.63109
475.64        10.62175
476.08        10.62249
476.52        10.63773
476.97        10.66846
477.41        10.71911
477.85        10.78639
478.29        10.84746
478.74        10.90557
479.18        10.98755
479.62        11.08247
480.06        11.15668
480.50         11.2069
480.95        11.23311
481.39        11.23115
481.83        11.30465
482.27        11.29218
482.72         11.3329
483.16        11.37932
483.60        11.41288
484.04        11.42817
484.48        11.48618
484.93        11.64144
485.37        11.64155
485.81        11.81792
486.25        12.03663
486.69        11.94149
487.14        11.74385
487.58        12.64597
488.02        12.38522
488.46        12.21946
488.90        12.27184
489.34        12.15022
489.79        12.34782
490.23        12.55849
490.67        12.79572
491.11        12.97662
491.55        12.98778
491.99        12.88945
492.43        12.90734
492.88        13.06643
493.32        13.22324
493.76        13.35052
494.20        13.48383
494.64        13.61923
495.08        13.72023
495.52        13.79104
495.96        13.93014
496.41        14.11125
496.85        14.11978
497.29        13.99948
497.73         14.1466
498.17          14.359
498.61        14.53778
499.05        14.59755
499.49        14.67269
499.93        14.73343
500.37        14.85948
500.82        15.02306
501.26        15.13819
501.70        15.19738
502.14        15.25729
502.58        15.34048
503.02        15.45198
503.46        15.59461
503.90        15.76559
504.34        15.93122
504.78        16.03481
505.22        16.06362
505.66        16.03411
506.10        15.98351
506.54        15.97236
506.98        16.01742
507.42        16.10233
507.86         16.2025
508.30        16.27627
508.74        16.31186
509.18        16.32418
509.62        16.32977
510.06        16.35405
510.50         16.4038
510.94        16.46768
511.38        16.53582
511.82        16.59407
512.26        16.63753
512.70        16.67253
513.14        16.70092
513.58        16.72457
514.02        16.74615
514.46        16.76478
514.90        16.78614
515.34        16.82003
515.78        16.86704
516.22        16.92282
516.66        16.97786
517.10        17.01737
517.54        17.03536
517.98        17.03317
518.42        17.01501
518.86        16.98821
519.30        16.95704
519.74        16.92381
520.18        16.88491
520.62         16.8337
521.06        16.77219
521.50        16.70448
521.93        16.65035
522.37        16.63444
522.81        16.66124
523.25        16.71796
523.69        16.77625
524.13        16.79271
524.57        16.75678
525.01        16.68108
525.45        16.58425
525.89        16.49831
526.32         16.4332
526.76        16.38367
527.20        16.34438
527.64        16.30838
528.08        16.27209
528.52        16.23885
528.96        16.20618
529.40        16.16858
529.83        16.12416
530.27        16.07324
530.71        16.01668
531.15        15.95901
531.59        15.90297
532.03        15.84905
532.46         15.7955
532.90        15.74986
533.34        15.71175
533.78        15.67348
534.22        15.63766
534.66        15.62704
535.09        15.62968
535.53        15.60505
535.97        15.55935
536.41        15.54379
536.85         15.5614
537.28        15.58522
537.72        15.60841
538.16        15.63147
538.60         15.6519
539.04        15.66956
539.47        15.68867
539.91        15.72568
540.35        15.78041
540.79        15.85074
541.22        15.92617
541.66        15.99579
542.10        16.05455
542.54        16.10559
542.97        16.15952
543.41        16.23928
543.85        16.34702
544.29         16.4789
544.72        16.61369
545.16        16.73106
545.60        16.82472
546.04        16.90398
546.47        16.99494
546.91        17.13633
547.35        17.32955
547.79        17.55622
548.22        17.78105
548.66        17.94785
549.10        18.06784
549.53        18.15388
549.97        18.22644
550.41        18.27673
550.84        18.33588
551.28        18.44425
551.72        18.59295
552.15        18.78279
552.59        19.02883
553.03        19.04788
553.46        19.38479
553.90        19.49847
554.34        19.55106
554.77        19.55765
555.21        19.55853
555.65        19.60319
556.08        19.69719
556.52        19.81371
556.96        19.93025
557.39        20.06619
557.83        20.19678
558.27        20.21646
558.70         20.1486
559.14         20.1517
559.57        20.22396
560.01        20.26197
560.45        20.27211
560.88        20.32821
561.32        20.44214
561.75        20.57238
562.19        20.70471
562.63        20.81036
563.06          20.879
563.50        20.92454
563.93        20.94794
564.37        21.00237
564.80        21.10419
565.24        21.18953
565.68         21.2017
566.11        21.52129
566.55        21.37387
566.98        21.38896
567.42        21.39736
567.85        21.51814
568.29        21.74037
568.72        21.94601
569.16        22.14463
569.60        22.29728
570.03        22.47626
570.47        22.65831
570.90        22.88251
571.34        22.81774
571.77        23.13407
572.21        23.27691
572.64        23.41999
573.08        23.55297
573.51        23.68999
573.95         23.7758
574.38        23.83464
574.82        23.90356
575.25        23.68989
575.69        23.67844
576.12        23.74732
576.56        23.84493
576.99        24.11345
577.42        23.75179
577.86        23.89929
578.29        24.24541
578.73        24.09534
579.16        24.05424
579.60        23.81011
580.03        23.84595
580.47        23.86021
580.90        23.87102
581.33        23.80874
581.77        24.00705
582.20        23.66439
582.64        23.60331
583.07        23.24435
583.51        23.08844
583.94        23.10569
584.37        23.09204
584.81         22.9953
585.24        22.87345
585.68        22.78811
586.11        22.43066
586.54        22.39371
586.98        22.27208
587.41        22.22811
587.85        22.19001
588.28        22.18661
588.71        21.98567
589.15        22.09377
589.58        22.08562
590.01        22.04106
590.45        22.06171
590.88        22.09243
591.31        22.07222
591.75        22.06813
592.18        21.92258
592.61        21.63369
593.05        22.34558
593.48        22.69317
593.91        22.24921
594.35        22.42739
594.78        22.27897
595.21         22.3652
595.65        22.61003
596.08        23.01469
596.51        23.18331
596.94        23.03792
597.38        23.12287
597.81        23.43337
598.24        23.64232
598.68        23.78425
599.11        23.95734
599.54        24.45797
599.97        24.36468
600.41        24.85138
600.84        24.91417
601.27         25.2482
601.70        25.48092
602.14        25.71471
602.57        26.06968
603.00        26.56487
603.43           26.65
603.87        27.32319
604.30        27.64235
604.73        27.93835
605.16        28.16253
605.60        28.35981
606.03        28.61406
606.46         28.9112
606.89        29.23822
607.32        29.85658
607.76        30.10073
608.19         30.4492
608.62         30.6604
609.05         30.9146
609.48        31.11649
609.92        31.71986
610.35        31.78298
610.78        31.93623
611.21        32.28165
611.64        32.44417
612.07        32.75444
612.50        32.88826
612.94        33.06868
613.37        33.22212
613.80        33.49934
614.23        33.36647
614.66        33.64167
615.09        34.11378
615.52        34.43334
615.96        34.57256
616.39        34.76656
616.82        35.02272
617.25        35.20832
617.68         35.3297
618.11        35.43315
618.54        35.54735
618.97        35.73866
619.40        35.98359
619.84        36.16721
620.27        36.18129
620.70        36.26262
621.13        36.36017
621.56        36.23718
621.99        35.96385
622.42        35.96408
622.85        36.16125
623.28        36.32367
623.71        36.37852
624.14        36.60743
624.57        36.81377
625.00        36.68584
625.43        36.73775
625.86        36.60487
626.29        36.54086
626.72        36.03691
627.15        36.17329
627.58        36.07153
628.01        35.99203
628.44        35.84103
628.87        35.60957
629.30        35.31563
629.73        35.00792
630.16        34.78723
630.59        34.66649
631.02        34.60752
631.45        34.54711
631.88        34.38491
632.31        34.09214
632.74        33.70025
633.17        33.25063
633.60        32.81218
634.03        32.41387
634.46        32.03818
634.89         31.6813
635.32        31.34322
635.75        31.02182
636.18        30.68951
636.61        30.35671
637.04        30.05215
637.47        29.77362
637.89        29.50535
638.32        29.22186
638.75        28.91665
639.18        28.59193
639.61        28.25557
640.04        27.93534
640.47        27.66969
640.90        27.46678
641.33        27.32087
641.76        27.20483
642.18        27.07626
642.61        26.91865
643.04        26.74724
643.47         26.5994
643.90        26.53539
644.33        26.56415
644.76        26.66384
645.18        26.78645
645.61        26.84814
646.04        26.83673
646.47        26.78603
646.90        26.74492
647.33        26.79265
647.75        26.94272
648.18        27.17629
648.61        27.48988
649.04        27.81948
649.47        28.10173
649.89         28.6867
650.32         28.8101
650.75        29.12647
651.18        29.43928
651.61        29.77405
652.03        30.15123
652.46        30.61084
652.89         31.0773
653.32        31.37846
653.74        31.68385
654.17         31.7462
654.60        32.23071
655.03         33.1202
655.46        33.14889
655.88        33.34386
656.31        35.51479
656.74        37.19308
657.16        36.89295
657.59        36.69155
658.02        35.76758
658.45        35.99493
658.87        36.24204
659.30         36.3822
659.73        36.52792
660.15        37.08989
660.58        36.95915
661.01        37.16459
661.44        37.37373
661.86        37.42139
662.29        37.32228
662.72         37.7421
663.14        37.94322
663.57        38.14872
664.00        38.19593
664.42        38.43986
664.85        38.89305
665.27        39.37554
665.70        39.76295
666.13        39.96836
666.55        39.96704
666.98         39.7491
667.41        39.42857
667.83        39.44473
668.26        39.43904
668.69        39.69475
669.11        40.01899
669.54        40.28776
669.96        40.46223
670.39        40.59602
670.82        40.69056
671.24        40.81313
671.67         40.9642
672.09        41.07541
672.52        41.15511
672.94        41.27838
673.37        41.41262
673.80         41.3886
674.22        41.24847
674.65        41.19521
675.07        41.26406
675.50         41.3353
675.92        41.40887
676.35        41.52522
676.77        41.67846
677.20        41.85185
677.62        42.02511
678.05         42.1641
678.47        42.25633
678.90        42.31231
679.32        42.34235
679.75        42.36572
680.17        42.38728
680.60        42.42922
681.02        42.49155
681.45         42.5109
681.87          42.522
682.30        42.65572
682.72         42.8849
683.15        43.01486
683.57        43.03577
684.00        43.03223
684.42        43.05246
684.85        43.13052
685.27        43.26981
685.70        43.48563
686.12        43.70631
686.54        43.77394
686.97        43.69517
687.39        43.63596
687.82        43.62962
688.24        43.62747
688.66        43.64499
689.09         43.7324
689.51        43.87668
689.94        44.00036
690.36        44.09105
690.78        44.15316
691.21        44.20867
691.63        44.28947
692.06        44.40351
692.48        44.54448
692.90        44.66503
693.33        44.69691
693.75        44.62751
694.17        44.45996
694.60        44.29396
695.02        44.27561
695.44        44.41232
695.87        44.72308
696.29        45.08451
696.71        45.02105
697.14        44.64339
697.56        44.65115
697.98         45.0237
698.41        45.23458
698.83        45.13991
699.25        45.22669
699.68         45.4095
700.10        45.47057
700.52        45.38125
700.94        45.21597
701.37        45.06682
701.79        45.08223
702.21         45.2858
702.64        45.61674
703.06        45.97062
703.48         46.1686
703.90        46.16261
704.33        46.00467
704.75        45.78445
705.17        45.64244
705.59        45.62775
706.01        45.70168
706.44         45.8194
706.86         45.9306
707.28        46.00768
707.70        46.04171
708.12        46.06886
708.55        46.20038
708.97        46.40808
709.39        46.50262
709.81        46.47499
710.23          46.483
710.66         46.5297
711.08        46.52739
711.50        46.47355
711.92        46.42666
712.34        46.39687
712.76        46.37748
713.19        46.36379
713.61        46.37289
714.03        46.39933
714.45        46.44996
714.87        46.53532
715.29        46.67134
715.71        46.85157
716.13        47.05224
716.56        47.24046
716.98        47.42514
717.40        47.56824
717.82        47.67601
718.24        47.70945
718.66        47.60931
719.08        47.38939
719.50        47.08861
719.92        46.81356
720.34        46.72511
720.76        46.85392
721.19        47.13615
721.61        47.50192
722.03        47.79354
722.45        47.94759
722.87         47.9951
723.29        47.94548
723.71        47.82188
724.13        47.65227
724.55        47.44062
724.97        47.22652
725.39        47.08479
725.81        47.04037
726.23        47.06566
726.65        47.15166
727.07         47.3801
727.49        47.56189
727.91         47.8283
728.33        48.08548
728.75         48.2692
729.17         48.3553
729.59        48.35093
730.01        48.29118
730.43         48.2386
730.85        48.21492
731.27        48.20805
731.69        48.20284
732.10        48.17133
732.52        48.10939
732.94        48.04378
733.36        48.01029
733.78        47.96808
734.20        47.91237
734.62        48.02211
735.04        48.33126
735.46        47.99881
735.88        48.41816
736.30        48.50559
736.72        48.75336
737.13        48.88171
737.55        48.87313
737.97        48.87338
738.39        48.87058
738.81        48.67747
739.23        48.38857
739.65        48.44461
740.06        48.75668
740.48        48.87676
740.90         48.7579
741.32        48.64881
741.74         48.6193
742.16        48.65166
742.57        48.76205
742.99        48.98049
743.41        49.21545
743.83        49.20455
744.25        48.97451
744.67        48.81193
745.08        48.78139
745.50        48.74966
745.92        48.73732
746.34        48.84625
746.75        49.02127
747.17        49.08302
747.59        49.01218
748.01        48.90591
748.42         48.8003
748.84        48.69759
749.26        48.66736
749.68         48.7654
750.09         48.9583
750.51        49.27138
750.93        49.55593
751.35        49.39832
751.76        48.90364
752.18        48.66158
752.60        48.71318
753.01        48.75808
753.43        48.75668
753.85        48.75094
754.27          48.723
754.68        48.92071
755.10        48.89697
755.52        48.98537
755.93        49.03413
756.35        49.03938
756.77        49.08034
757.18        49.13874
757.60        49.21434
758.02         49.6345
758.43        50.23158
758.85        49.56448
759.26        49.45167
759.68        48.96153
760.10        48.67238
760.51        49.56797
760.93        49.58272
761.34        49.82512
761.76        49.69987
762.18        49.46432
762.59         49.2793
763.01        49.46875
763.42        50.00936
763.84        50.21232
764.26        50.03529
764.67        49.88812
765.09        49.84874
765.50        49.71433
765.92         49.5665
766.33        49.56079
766.75        49.61077
767.16        49.62866
767.58        49.57028
768.00        49.33419
768.41        49.07632
768.83        49.38865
769.24         50.0767
769.66        50.23364
770.07        49.86953
770.49        49.51874
770.90        49.37682
771.32        49.75865
771.73        50.48657
772.15        50.71787
772.56        50.38977
772.97        49.99242
773.39        49.69178
773.80        49.53267
774.22        49.55761
774.63        49.79478
775.05        50.10384
775.46        50.30109
775.88        50.30746
776.29        50.19352
776.70        50.04021
777.12        49.99848
777.53        50.11005
777.95        50.28875
778.36         50.4734
778.77        50.54345
779.19        50.48282
779.60        50.35735
780.02         50.1864
780.43        50.06029
780.84        50.02217
781.26        49.82742
781.67        49.59493
782.09        50.00072
782.50        50.82005
782.91        50.88068
783.33        50.23656
783.74        50.01082
784.15        50.25102
784.57        50.29594
784.98        50.15722
785.39        50.15282
785.81        50.29409
786.22        50.50339
786.63         50.7242
787.04        50.86509
787.46        50.90842
787.87        50.86108
788.28        50.79719
788.70        50.79693
789.11        50.85747
789.52        51.02846
789.93        51.21477
790.35        51.11856
790.76        50.78246
791.17        50.56107
791.58        50.51917
792.00        50.42604
792.41        50.30327
792.82        50.43912
793.23        50.75872
793.65        50.70479
794.06        50.40583
794.47        50.68021
794.88        51.38349
795.29        51.64744
795.71        51.40204
796.12        51.18463
796.53        51.08328
796.94        50.89335
797.35        50.72372
797.76        50.95991
798.18        51.45234
798.59        51.64581
799.00        51.45565
799.41        51.15643
799.82        50.88257
800.23        50.75417
800.64         50.8193
801.06        51.00617
801.47        51.25029
801.88        51.37411
802.29        51.32554
802.70        51.16328
803.11         50.9393
803.52        50.73786
803.93        50.60714
804.34        50.52359
804.75        50.51257
805.17        50.64885
805.58         50.9594
805.99        51.27633
806.40        51.54145
806.81        51.96561
807.22        52.36062
807.63        52.04002
808.04        51.18878
808.45        50.74337
808.86        50.81549
809.27        50.94802
809.68         51.0341
810.09        51.09014
810.50        51.07428
810.91        50.99105
811.32        50.92983
811.73         51.0282
812.14        51.30719
812.55        51.71259
812.96        52.11895
813.37        52.29657
813.78        52.17995
814.19        51.85852
814.60        51.45046
815.01        51.11204
815.42        50.88782
815.83        50.73238
816.24        50.65032
816.65        50.64954
817.05        50.72824
817.46        50.87651
817.87         51.0469
818.28        51.12231
818.69        51.07798
819.10        50.92109
819.51         50.7469
819.92        50.73854
820.33        50.93195
820.74        51.26339
821.14        51.58979
821.55        51.68008
821.96        51.48687
822.37        51.09481
822.78        50.63547
823.19        50.33046
823.60        50.25776
824.00        50.36954
824.41         50.5821
824.82        50.82074
825.23        51.03018
825.64        51.22945
826.04        51.39141
826.45        51.44287
826.86         51.3857
827.27        51.23733
827.68        51.03672
828.08        50.88326
828.49        50.77392
828.90        50.70584
829.31        50.70932
829.72        50.82576
830.12         51.0674
830.53        51.38163
830.94        51.67015
831.35        51.72721
831.75         51.5196
832.16         51.0887
832.57         50.5993
832.97        50.30228
833.38        50.26575
833.79         50.4074
834.20        50.64016
834.60        50.81956
835.01        50.90059
835.42         50.9599
835.82        51.00405
836.23        50.98528
836.64        50.92835
837.04        50.80939
837.45        50.74294
837.86        50.96907
838.26        51.53312
838.67        52.33617
839.08        53.10421
839.48        53.31494
839.89        52.84557
840.29        51.88371
840.70        50.87365
841.11        50.32153
841.51        50.35249
841.92        50.79915
842.33        51.45868
842.73        51.96342
843.14        52.09898
843.54        52.02205
843.95        51.83217
844.35         51.7283
844.76        51.75554
845.17        51.83241
845.57        51.91825
845.98        51.93695
846.38        51.88212
846.79        51.79095
847.19        51.67793
847.60        51.54242
848.00         51.3992
848.41        51.21711
848.81        51.05827
849.22        50.96712
849.62        50.98341
850.03        51.09738
850.43        51.22608
850.84        51.18074
851.24        50.95734
851.65         50.5549
852.05        50.20771
852.46         50.2519
852.86        50.73988
853.27        51.52825
853.67        52.26854
854.07        52.56382
854.48        52.32861
854.88         51.7051
855.29        50.89383
855.69        50.35545
856.10        50.20672
856.50        50.38623
856.90        50.71693
857.31        50.90831
857.71        50.90781
858.12        50.75574
858.52        50.59673
858.92        50.57674
859.33        50.72223
859.73        51.00053
860.13        51.25978
860.54         51.2824
860.94        51.05395
861.34        50.63895
861.75        50.20317
862.15        50.04408
862.55        50.21573
862.96        50.59825
863.36        51.06647
863.76        51.34719
864.17        51.33867
864.57        51.15581
864.97        50.82636
865.38        50.39796
865.78        49.94516
866.18        49.45838
866.58        49.05986
866.99        48.96712
867.39        49.23513
867.79        49.78987
868.19        50.48217
868.60        51.06493
869.00        51.48226
869.40        51.75951
869.80        51.90115
870.21         51.9314
870.61        51.91129
871.01        51.79098
871.41        51.57236
871.81        51.26056
872.22        50.86918
872.62         50.4206
873.02        49.99774
873.42         49.7243
873.82        49.63729
874.22        49.70538
874.63         49.8373
875.03        49.90133
875.43        49.84571
875.83        49.70814
876.23        49.54733
876.63        49.46491
877.03        49.49028
877.44        49.55209
877.84        49.62774
878.24        49.74392
878.64         49.8281
879.04        49.68411
879.44        49.41834
879.84         49.3508
880.24        49.49821
880.64        49.72295
881.04        49.84642
881.44        49.62395
881.84        49.02751
882.24        48.16866
882.65        47.33141
883.05        46.94759
883.45        47.11684
883.85        47.71125
884.25        48.49928
884.65        49.07428
885.05        49.29765
885.45          49.281
885.85        49.14051
886.25        49.06429
886.65        49.10975
887.05        49.19397
887.45        49.28669
887.85        49.35448
888.25        49.37599
888.65        49.38241
889.04         49.3448
889.44        49.22803
889.84        49.02332
890.24        48.73977
890.64        48.44407
891.04        48.25264
891.44        48.19646
891.84         48.2542
892.24        48.34843
892.64        48.35171
893.04        48.24741
893.44        48.08778
893.83        47.97623
894.23        48.03584
894.63        48.31118
895.03        48.73675
895.43        49.23043
895.83        49.66846
896.23        49.98199
896.63         50.1673
897.02        50.21054
897.42        50.12651
897.82        49.92656
898.22        49.64095
898.62        49.26741
899.01        48.79165
899.41         48.2613
899.81        47.71269
900.21        47.28508
900.61        47.19123
901.00        47.46114
901.40        48.00985
901.80        48.66224
902.20        49.13271
902.59        49.33611
902.99        49.33234
903.39         49.1843
903.79        49.01108
904.18        48.85389
904.58        48.66922
904.98        48.50694
905.38        48.45141
905.77        48.51787
906.17        48.73315
906.57        48.95793
906.96        48.94774
907.36        48.65384
907.76        48.14801
908.15        47.71153
908.55        47.77667
908.95        48.41931
909.34        49.49756
909.74        50.60173
910.14        51.12409
910.53        50.88433
910.93        50.09887
911.33        49.07385
911.72        48.28264
912.12        47.92282
912.52        47.85367
912.91        47.95767
913.31        48.06248
913.70        48.10671
914.10        48.12582
914.49        48.20024
914.89         48.3834
915.29        48.69461
915.68        49.11081
916.08        49.44167
916.47        49.43858
916.87        49.08337
917.26         48.4411
917.66        47.85419
918.05        47.73576
918.45        48.15298
918.84        49.01542
919.24        49.94776
919.64        50.39212
920.03         50.1996
920.42        49.51574
920.82        48.71936
921.21        48.34958
921.61        48.53108
922.00        49.12376
922.40        49.82814
922.79        50.21611
923.19        50.13006
923.58        49.75871
923.98        49.30091
924.37        48.99836
924.77        48.93235
925.16         48.9682
925.55        49.09156
925.95        49.27662
926.34        49.48875
926.74        49.73041
927.13        49.85988
927.52        49.58211
927.92        48.92193
928.31         47.9854
928.70        47.06685
929.10          46.597
929.49        46.65517
929.89        47.06944
930.28        47.73642
930.67        48.37298
931.07        48.82728
931.46        49.23927
931.85        49.43436
932.24        49.17833
932.64        48.51717
933.03         47.4912
933.42        46.55424
933.82        46.38103
934.21        47.08007
934.60        48.50102
934.99        50.11686
935.39        50.95508
935.78        50.76111
936.17        49.74368
936.56        48.42655
936.96        47.64643
937.35        47.62413
937.74        48.10221
938.13        48.69205
938.53        48.80053
938.92        48.29192
939.31        47.41433
939.70        46.46663
940.09        45.83993
940.49        45.61948
940.88        45.70049
941.27        45.96244
941.66        46.19344
942.05        46.31863
942.44        46.42183
942.84        46.56804
943.23         46.8379
943.62        47.23978
944.01        47.67319
944.40        48.09498
944.79          48.467
945.18         48.7449
945.57        48.93917
945.97          48.904
946.36         48.4931
946.75        47.69928
947.14        46.64803
947.53        45.62316
947.92        45.00944
948.31        44.88934
948.70        45.17333
949.09        45.68001
949.48        46.07747
949.87         46.2466
950.26        46.25831
950.65        46.22086
951.04        46.32851
951.43        46.62349
951.82        47.01395
952.21        47.37589
952.60        47.52939
952.99        47.44983
953.38        47.23365
953.77        46.99632
954.16        46.91298
954.55        47.02077
954.94        47.22342
955.33        47.50249
955.72        47.82228
956.11         48.1309
956.50        48.45935
956.89        48.59462
957.28         48.1879
957.66        47.22797
958.05        45.89392
958.44        44.62756
958.83        44.05849
959.22        44.29134
959.61        45.14901
960.00        46.24934
960.39        46.86341
960.78        46.74083
961.16         46.0887
961.55        45.24028
961.94        44.63825
962.33        44.41113
962.72        44.44396
963.11        44.59488
963.49        44.63721
963.88         44.4623
964.27        44.17506
964.66        43.98906
965.04        44.22137
965.43        44.87771
965.82        45.88684
966.21        46.90237
966.60        47.25919
966.98        46.76025
967.37        45.68755
967.76        44.52121
968.15        43.87257
968.53        43.87345
968.92        44.36682
969.31        45.10581
969.69        45.58981
970.08        45.58508
970.47        45.26887
970.86        44.92638
971.24        44.96465
971.63        45.46444
972.02        46.28014
972.40        47.15419
972.79         47.4327
973.17        46.98454
973.56        46.05366
973.95        44.99949
974.33         44.2503
974.72        43.90917
975.11        43.82422
975.49        43.92949
975.88        44.09048
976.26        44.26487
976.65        44.47884
977.04        44.65358
977.42        44.62947
977.81          44.355
978.19        43.83852
978.58        43.36636
978.96        43.36007
979.35        43.88834
979.74        44.84034
980.12        45.90582
980.51        46.33274
980.89        46.04045
981.28        45.24799
981.66        44.37178
982.05        43.95111
982.43        44.14316
982.82        44.77183
983.20        45.75603
983.59        46.89206
983.97        48.05551
984.35        49.23611
984.74        50.15142
985.12        50.56502
985.51        50.36549
985.89        49.65811
986.28        48.70284
986.66        47.82488
987.04        47.20059
987.43        46.75602
987.81        46.54934
988.20         46.6194
988.58        46.94758
988.96        47.45498
989.35        47.96271
989.73        48.23964
990.12        48.20409
990.50        47.92496
990.88         47.3574
991.27        46.50656
991.65        45.47412
992.03        44.34069
992.42        43.40116
992.80        43.03068
993.18        43.29313
993.56        44.12936
993.95        45.20502
994.33        45.97288
994.71        46.13964
995.10        45.88446
995.48        45.48752
995.86        45.48742
996.24        46.00287
996.63        46.75618
997.01        47.61684
997.39        48.08338
997.77        47.96146
998.15        47.53661
998.54        46.85426
998.92        45.85836
999.30        44.71449
999.68        43.46602
1000.06        42.64503
1000.45        42.99283
1000.83        44.70215
1001.21        47.67605
1001.59         51.2078
1001.97        53.48456
1002.35        53.76212
1002.73        52.52465
1003.12        50.81831
1003.50        49.98944
1003.88        50.44369
1004.26        51.66322
1004.64        53.33206
1005.02        54.73902
1005.40        55.45763
1005.78        55.85897
1006.16        55.54191
1006.54        53.83778
1006.92        50.92559
1007.30        47.13683
1007.69         43.7429
1008.07        42.38519
1008.45        43.50862
1008.83        46.77689
1009.21        51.14051
1009.59        53.89974
1009.97        53.74732
1010.35         51.4314
1010.73        48.02078
1011.11        45.11405
1011.49        43.26113
1011.86        42.01303
1012.24        41.31536
1012.62        41.16685
1013.00        41.47928
1013.38        42.38579
1013.76        43.64285
1014.14        44.47485
1014.52        44.52464
1014.90        43.89659
1015.28        42.99318
1015.66        42.48196
1016.04        42.51299
1016.41        42.88233
1016.79        43.41106
1017.17        43.78407
1017.55        43.87454
1017.93        43.81632
1018.31         43.6815
1018.69        43.53873
1019.06        43.41069
1019.44        43.28201
1019.82        43.14394
1020.20         43.0489
1020.58        42.98555
1020.95        42.87661
1021.33         42.8354
1021.71        42.90779
1022.09        43.14609
1022.46         43.7258
1022.84        44.35138
1023.22        44.27291
1023.60        43.32134
1023.97        41.52828
1024.35        40.28202
1024.73        41.18274
