SpectraSmart Spectrum 2.9.0.0
--------- Device Information -----------
Spectrum Name :  反射率_0
Saving Time :  2024/04/26 01:21:46
Spectro-Module Model Name : SE2030-DUVN
Spectro-Module Serial Number : OS361AC55029948
Wavelength Start : 200
Wavelength End : 1025
Wavelength Unit : Wavelength(nm)
Spectrum Unit : Reflectance(%)
-----------Spectrum Setting ------------
Integration Time : 20ms
Average : 10
Boxcar : 0
Background removal :  enabled
linearity correction :  enabled
SC :  disabled
Intensity correction :  disabled
DWT denoise :  enabled
savitzky-golay :  disabled
FFT :  disabled
Running average :  disabled
Kalman :  disabled
High pass :  disabled
---------------BEGIN--------------------
Wavelength(nm)             Reflectance(%)
200.29               0
200.75        102.5547
201.21        97.57063
201.67        91.25366
202.13        87.19358
202.58        85.92448
203.04        86.98123
203.50        88.56225
203.96        87.83708
204.42        84.69296
204.88        80.50598
205.34         77.3294
205.80        77.32668
206.26        81.51241
206.72        92.55979
207.18        115.3224
207.64        137.0729
208.10        126.9038
208.55        101.4209
209.01        84.61897
209.47        78.52608
209.93          78.663
210.39        82.66399
210.85        87.70808
211.31        88.12526
211.77        82.37603
212.23        72.77959
212.69        64.14765
213.14        63.83092
213.60        72.74545
214.06        88.33629
214.52        105.0556
214.98        114.4971
215.44         114.667
215.90        108.6796
216.36        100.0053
216.81        93.42432
217.27        90.72998
217.73        90.24316
218.19        90.67128
218.65        90.49071
219.11        88.95412
219.57        85.83437
220.02        81.52238
220.48        78.84835
220.94        78.94351
221.40        81.34772
221.86        81.83813
222.32        76.04453
222.77        65.45618
223.23        53.65816
223.69         44.6901
224.15        42.75614
224.61        46.97899
225.06        54.92145
225.52        63.00359
225.98         66.6127
226.44        64.89377
226.90        59.74211
227.36        53.52716
227.81        49.46616
228.27        48.61732
228.73        49.67612
229.19        51.67229
229.65         53.2094
230.10        53.83818
230.56        54.15004
231.02          54.353
231.48        54.61404
231.93        54.96593
232.39        55.30227
232.85        55.61129
233.31        55.99241
233.77        56.45308
234.22        57.01299
234.68        57.59341
235.14        57.96194
235.60        58.07189
236.05        58.01434
236.51        57.99009
236.97        58.29047
237.43        59.07029
237.88        60.45913
238.34        62.40757
238.80        64.78168
239.26        67.26798
239.71        69.88642
240.17        72.21287
240.63        74.27712
241.08        76.18233
241.54         77.7158
242.00        79.26621
242.46        81.73143
242.91         86.5696
243.37        96.96743
243.83        126.2772
244.28        211.5795
244.74        290.3987
245.20        224.1024
245.66        174.9553
246.11         163.361
246.57        174.0493
247.03        218.7475
247.48        357.1342
247.94        305.3933
248.40        161.9452
248.85        115.8403
249.31        101.3161
249.77        98.52757
250.22        101.8438
250.68         110.604
251.14        124.3808
251.59        134.1949
252.05         130.788
252.51        118.1632
252.96        104.3838
253.42        97.38084
253.88         96.6964
254.33        99.35617
254.79        104.2134
255.25        109.0958
255.70        112.7299
256.16        115.9429
256.62        117.7559
257.07        117.0497
257.53        114.6924
257.99        110.7774
258.44        106.3242
258.90        103.7735
259.35        102.2153
259.81        101.2205
260.27         99.4362
260.72        95.51101
261.18        90.30164
261.63        84.26376
262.09        78.71506
262.55        74.34624
263.00        71.13776
263.46         68.9199
263.91        67.08096
264.37        65.40239
264.83        63.57315
265.28        61.55286
265.74        59.53907
266.19        57.52917
266.65        55.82615
267.11        54.38259
267.56        53.07201
268.02        51.74923
268.47        50.25972
268.93        48.65479
269.38        47.03436
269.84        45.80463
270.30        45.06369
270.75        44.71474
271.21        44.49522
271.66        43.99558
272.12        43.11872
272.57        41.98252
273.03        40.85065
273.48        40.02408
273.94        39.60347
274.39        39.42371
274.85        39.31238
275.31        38.98992
275.76        38.37673
276.22        37.60219
276.67        36.76327
277.13        36.11868
277.58        35.65593
278.04         35.3369
278.49         34.9971
278.95        34.49759
279.40        33.77593
279.86         32.9655
280.31        32.12875
280.77        31.48959
281.22        31.04363
281.68         30.7564
282.13        30.54681
282.59         30.3549
283.04        30.13978
283.50        29.96896
283.95        29.79364
284.41        29.57125
284.86        29.29391
285.32        28.98499
285.77        28.74886
286.22        28.81882
286.68        29.18673
287.13        29.72819
287.59        30.22399
288.04        30.32716
288.50        30.01051
288.95        29.38005
289.41        28.65217
289.86        28.03184
290.32        27.65714
290.77        27.45437
291.22        27.44643
291.68        27.62214
292.13        27.96738
292.59        28.50164
293.04        29.18366
293.50        29.94098
293.95        30.73014
294.40        31.52867
294.86        32.33887
295.31        33.18599
295.77        34.08149
296.22        35.01562
296.68        35.95818
297.13         36.8294
297.58        37.63514
298.04        38.42583
298.49        39.28445
298.95        40.38799
299.40         41.7557
299.85        43.32579
300.31        44.98882
300.76        46.56661
301.21        47.97482
301.67        49.28596
302.12        50.46854
302.58        51.58364
303.03        52.63486
303.48        53.63986
303.94        54.72778
304.39        56.03619
304.84        57.59576
305.30        59.35935
305.75        61.12631
306.20        62.61066
306.66        63.77423
307.11        64.65897
307.57        65.47466
308.02        66.41974
308.47        67.59808
308.93        68.94373
309.38        70.33784
309.83        71.64761
310.29          72.816
310.74        73.85308
311.19        74.81528
311.65        75.78508
312.10        76.77533
312.55        77.77599
313.00         78.6912
313.46        79.37599
313.91        79.79459
314.36        80.01143
314.82        80.22579
315.27        80.69472
315.72        81.50156
316.18        82.56505
316.63        83.70045
317.08        84.55849
317.53        85.03643
317.99         85.2159
318.44        85.30214
318.89        85.63817
319.35        86.28426
319.80          87.161
320.25        88.01117
320.70        88.41219
321.16        88.27771
321.61        87.76252
322.06        87.15991
322.51        86.92413
322.97        87.14935
323.42         87.7355
323.87        88.46242
324.32        88.95109
324.78        89.07502
325.23        88.98592
325.68        88.81172
326.13        88.78968
326.59        88.96693
327.04          89.281
327.49        89.66062
327.94        90.02521
328.39        90.34091
328.85        90.63795
329.30         90.9363
329.75        91.10253
330.20        91.14651
330.66        91.08274
331.11        91.13428
331.56        91.58842
332.01        92.51072
332.46        93.80149
332.92        95.19836
333.37        96.40095
333.82        97.18292
334.27        97.62256
334.72        97.77389
335.17        97.76885
335.63        97.69824
336.08        97.58295
336.53        97.52276
336.98        97.71896
337.43         98.2132
337.88        98.96185
338.34        99.85179
338.79        100.7687
339.24        101.6064
339.69        102.4037
340.14        103.0618
340.59         103.426
341.05        103.4914
341.50        103.2829
341.95        103.0376
342.40        103.1378
342.85        103.6574
343.30        104.4984
343.75        105.4072
344.20        105.9259
344.66        105.9461
345.11         105.603
345.56        105.1232
346.01         104.847
346.46        104.8748
346.91        105.0986
347.36        105.4232
347.81        105.7083
348.26        105.9057
348.72        106.0824
349.17        106.2334
349.62        106.3895
350.07        106.5542
350.52        106.6976
350.97        106.8048
351.42        106.8713
351.87        106.8929
352.32        106.8699
352.77        106.8071
353.22        106.7115
353.67        106.5834
354.13        106.4357
354.58        106.2283
355.03        105.9568
355.48        105.6206
355.93        105.2267
356.38         104.796
356.83        104.3602
357.28         103.928
357.73         103.495
358.18         103.045
358.63        102.5474
359.08        102.0045
359.53        101.4403
359.98         100.874
360.43        100.3336
360.88        99.81906
361.33        99.30008
361.78         98.7906
362.23        98.31689
362.68        97.87724
363.13        97.47871
363.58        97.03027
364.03        96.38371
364.48        95.52885
364.93        94.51664
365.38        93.52212
365.83        92.82984
366.28        92.49162
366.73        92.40514
367.18        92.38464
367.63        92.12499
368.08        91.54764
368.53        90.76678
368.98         89.8852
369.43        89.05161
369.88        88.32464
370.33        87.65683
370.78        87.07863
371.23        86.64926
371.68        86.36838
372.13        86.22572
372.58         86.1445
373.03        85.98149
373.48        85.69728
373.93        85.32976
374.38          84.921
374.83        84.54034
375.28        84.20919
375.72        83.89006
376.17        83.60368
376.62        83.36411
377.07        83.15738
377.52        82.95985
377.97        82.73353
378.42        82.41517
378.87        81.99941
379.32        81.53368
379.77        81.00849
380.22        80.40237
380.67         79.7226
381.11        78.96788
381.56        78.25979
382.01        77.80569
382.46        77.65086
382.91        77.76079
383.36        77.91194
383.81        77.74094
384.26         77.1851
384.71         76.3503
385.15        75.51346
385.60        75.16142
386.05         75.3234
386.50         75.8273
386.95        76.34857
387.40        76.34315
387.85          75.726
388.29         74.7205
388.74        73.71324
389.19        72.94722
389.64        72.48325
390.09         72.1875
390.54        72.09072
390.98        72.24832
391.43         72.6069
391.88        73.11533
392.33        73.52715
392.78        73.39969
393.23        72.71829
393.67        71.82674
394.12        71.05281
394.57        70.21209
395.02        69.59022
395.47        70.03833
395.91        71.35525
396.36        72.15182
396.81        72.22432
397.26         72.2429
397.71        72.20956
398.15        71.80487
398.60        71.16875
399.05        70.40305
399.50        69.65326
399.95        68.94144
400.39        68.61858
400.84        68.38774
401.29        68.28628
401.74        68.33846
402.18        68.47417
402.63        68.39797
403.08        68.24403
403.53        68.42779
403.97        68.96416
404.42        69.62503
404.87        70.14028
405.32        70.13724
405.76        69.53996
406.21        68.54342
406.66        67.49836
407.11         66.9324
407.55        66.96828
408.00        67.39288
408.45        67.97633
408.90        68.33695
409.34        68.27049
409.79         67.7495
410.24        67.02644
410.68        66.61777
411.13        66.62174
411.58        66.78224
412.03        67.03846
412.47        67.37286
412.92        67.67793
413.37        67.98714
413.81        68.20189
414.26        68.20781
414.71        67.97849
415.15         67.5403
415.60        67.02751
416.05        66.68321
416.49        66.58076
416.94        66.68042
417.39        66.84251
417.83        66.80495
418.28        66.52634
418.73        66.10035
419.17        65.71898
419.62        65.69462
420.07         66.0398
420.51        66.63098
420.96        67.24911
421.41        67.45957
421.85        67.13949
422.30        66.74174
422.74        66.33022
423.19        65.61644
423.64        64.86426
424.08        65.16389
424.53        66.31271
424.98        66.93759
425.42        66.87435
425.87        66.96509
426.31        67.25129
426.76        67.21131
427.21        66.99883
427.65        67.18494
428.10        67.73193
428.54        68.35439
428.99        69.00719
429.44        69.37927
429.88        69.46317
430.33        70.17082
430.77        70.90182
431.22        69.83846
431.66          67.465
432.11        65.86297
432.56        65.42713
433.00        66.07811
433.45        67.65676
433.89        69.42783
434.34        70.03625
434.78        71.54843
435.23        67.69316
435.67        66.61399
436.12        68.58038
436.57        69.65552
437.01         70.0233
437.46        70.22139
437.90        70.45751
438.35        69.98714
438.79        70.58411
439.24        70.47318
439.68        70.21275
440.13        69.76978
440.57        69.49135
441.02         70.2517
441.46        71.69583
441.91         72.6189
442.35        72.71808
442.80        71.99795
443.24        70.87069
443.69        71.36971
444.13        73.12319
444.58        73.01469
445.02         71.2911
445.47        70.99393
445.91        72.05684
446.36        72.39687
446.80        71.94173
447.24        71.83867
447.69        72.16362
448.13        72.24223
448.58        72.61849
449.02        72.89574
449.47        73.17987
449.91        73.38371
450.36        73.49255
450.80        73.50194
451.25        73.42693
451.69        73.27843
452.13        73.09563
452.58        72.89015
453.02        72.72105
453.47         72.7208
453.91        72.88085
454.36        73.15691
454.80        73.45116
455.24        73.49812
455.69         73.2578
456.13        72.98502
456.58        72.77326
457.02          72.195
457.46        71.51424
457.91        71.79817
458.35         72.4967
458.79        72.81589
459.24        72.60145
459.68        72.39545
460.13        72.23168
460.57        71.96896
461.01        71.70123
461.46        71.20301
461.90        70.49432
462.34        71.06798
462.79         70.6679
463.23        71.04575
463.68        71.40778
464.12        71.74689
464.56        71.95423
465.01        71.92801
465.45        71.63612
465.89        71.55633
466.34        71.55637
466.78        70.64697
467.22        69.28791
467.67        68.86732
468.11        69.67294
468.55        70.40737
468.99        70.77618
469.44        70.53397
469.88        69.86385
470.32        69.78183
470.77        70.23713
471.21        70.25077
471.65        69.78638
472.10        69.52629
472.54        69.53783
472.98        69.59243
473.42        69.67635
473.87         69.9955
474.31        70.35635
474.75        70.19183
475.20        69.62349
475.64        69.35732
476.08        69.46748
476.52        69.38707
476.97        69.09816
477.41        69.20526
477.85        69.72417
478.29        69.27339
478.74        69.62269
479.18        69.85617
479.62        68.87206
480.06         69.5133
480.50        69.84435
480.95        70.12166
481.39        69.86397
481.83        69.33783
482.27        69.50182
482.72        68.86493
483.16        67.95914
483.60        68.22233
484.04        69.70716
484.48        70.06705
484.93        69.81299
485.37        71.47668
485.81        71.98659
486.25        70.87586
486.69        95.37514
487.14        77.04379
487.58        48.45029
488.02         59.2181
488.46        67.30001
488.90        67.07998
489.34        68.95942
489.79        67.81429
490.23         69.3811
490.67        70.02198
491.11        69.32903
491.55        69.53812
491.99        70.14514
492.43        70.05406
492.88        69.32426
493.32        69.16396
493.76        69.14664
494.20        69.30807
494.64        69.44166
495.08        69.69389
495.52        70.03742
495.96        70.14061
496.41        69.94077
496.85         70.2021
497.29        70.73383
497.73        69.53915
498.17        67.60665
498.61        67.90881
499.05        70.40345
499.49        70.89083
499.93        70.86924
500.37        70.59994
500.82        70.01497
501.26        69.96696
501.70        70.22279
502.14        70.58076
502.58         70.4527
503.02        70.38979
503.46          70.246
503.90        69.94306
504.34        69.59492
504.78        69.34076
505.22        69.27663
505.66        69.60515
506.10        70.18194
506.54        70.39065
506.98        70.12058
507.42        69.94106
507.86        69.78997
508.30        69.20737
508.74        69.59962
509.18        69.77451
509.62        70.03951
510.06        70.18019
510.50         70.1606
510.94        70.02261
511.38        69.84978
511.82          69.808
512.26        69.93055
512.70         70.1575
513.14         70.3905
513.58        70.52071
514.02        70.51532
514.46        70.32967
514.90        70.02231
515.34        70.10468
515.78        69.89967
516.22        69.99779
516.66        70.13477
517.10        70.06345
517.54        69.75755
517.98        69.88635
518.42        69.64522
518.86        69.73158
519.30        69.89767
519.74        70.17675
520.18        70.49243
520.62        70.71677
521.06        70.82185
521.50        70.83811
521.93        70.79047
522.37        70.71894
522.81        70.65159
523.25        70.58218
523.69        70.53535
524.13         70.5507
524.57        70.63257
525.01        70.76891
525.45        70.93186
525.89        71.07191
526.32        71.16028
526.76         71.2038
527.20        71.19391
527.64        71.13877
528.08        71.06431
528.52        70.91593
528.96        70.68975
529.40        70.58113
529.83        70.63844
530.27        70.08952
530.71        70.33694
531.15         70.2921
531.59        70.36939
532.03        70.51675
532.46         70.7272
532.90        70.95489
533.34        71.15891
533.78        71.33957
534.22        71.46033
534.66        71.47884
535.09        71.38219
535.53        71.21426
535.97        70.99948
536.41        70.79929
536.85        70.64413
537.28        70.52979
537.72         70.4649
538.16        70.47169
538.60        70.54593
539.04        70.62196
539.47        70.67055
539.91        70.83727
540.35        71.03176
540.79        70.96544
541.22        70.68916
541.66        70.57414
542.10        70.63669
542.54        70.66807
542.97        70.66007
543.41        70.71179
543.85        70.80758
544.29        70.95077
544.72        71.03834
545.16        70.93753
545.60        70.62849
546.04        70.14996
546.47        69.70254
546.91        69.62543
547.35        69.95911
547.79        70.61053
548.22          71.279
548.66        71.48113
549.10        71.15199
549.53        70.44286
549.97        69.83164
550.41        69.46981
550.84        69.48724
551.28        69.88843
551.72        70.51461
552.15        70.76434
552.59        70.48512
553.03        70.91299
553.46        70.32981
553.90        70.18368
554.34        70.36593
554.77        70.45705
555.21        70.50042
555.65         70.6294
556.08        70.87437
556.52        70.36279
556.96        70.72257
557.39        70.49924
557.83        70.25527
558.27        70.14119
558.70        70.20839
559.14        70.33839
559.57        70.49686
560.01        70.79966
560.45        71.12106
560.88        71.20571
561.32        71.06057
561.75        70.73505
562.19        70.39268
562.63        70.17042
563.06        70.11533
563.50        70.23504
563.93        70.42712
564.37        70.56718
564.80        70.57195
565.24        70.44116
565.68        70.23746
566.11        70.13423
566.55        70.20041
566.98        70.32525
567.42        70.48499
567.85        70.67091
568.29        70.90345
568.72        70.97432
569.16        71.04357
569.60        71.44495
570.03        71.84151
570.47        71.69777
570.90        71.34095
571.34        69.59297
571.77        70.52921
572.21        70.48882
572.64        69.93632
573.08        68.92443
573.51         66.1881
573.95        68.75136
574.38        72.86642
574.82        71.08399
575.25        70.22578
575.69         68.3554
576.12        67.15614
576.56        66.44674
576.99        68.30885
577.42        70.94813
577.86        71.35169
578.29        70.51382
578.73         74.1039
579.16        68.31178
579.60         62.6786
580.03        65.59017
580.47        69.67345
580.90        71.42258
581.33        69.93521
581.77        69.16043
582.20        75.92859
582.64        75.65811
583.07        64.50491
583.51        63.31433
583.94        62.25287
584.37        65.03281
584.81        68.25247
585.24        71.86664
585.68        73.62361
586.11         72.3698
586.54         67.5551
586.98        65.31223
587.41        65.85276
587.85        69.46758
588.28        71.97069
588.71        68.52767
589.15        66.19152
589.58        67.62634
590.01        67.83961
590.45        68.92323
590.88        69.76778
591.31        69.13464
591.75        68.69567
592.18        68.71857
592.61        70.21837
593.05        70.70451
593.48        73.77987
593.91        74.76369
594.35         68.5441
594.78        66.92016
595.21        66.49383
595.65        69.54391
596.08        72.45603
596.51        69.61966
596.94        67.50994
597.38        68.10125
597.81         70.8501
598.24        72.82121
598.68        71.36497
599.11        69.98505
599.54        72.74493
599.97        74.22697
600.41         69.0448
600.84        69.21424
601.27        70.72629
601.70        69.43627
602.14        69.66132
602.57        68.53459
603.00        68.94753
603.43        70.49827
603.87        72.21317
604.30        71.94403
604.73         70.0898
605.16        68.26532
605.60        69.19405
606.03        70.27507
606.46        71.57809
606.89        70.98371
607.32        68.96265
607.76        68.78341
608.19        71.16953
608.62        70.39044
609.05        69.31427
609.48        69.76003
609.92        69.43159
610.35        69.06467
610.78        71.52107
611.21        71.93867
611.64        68.86055
612.07         69.4862
612.50        69.89404
612.94        70.32667
613.37        69.72672
613.80        70.05195
614.23        70.56326
614.66        70.40097
615.09         70.6982
615.52         70.6335
615.96        70.47356
616.39        70.48666
616.82        69.49232
617.25        69.33398
617.68        70.10285
618.11        70.64843
618.54        70.86697
618.97        70.48172
619.40        69.84772
619.84        69.75069
620.27        70.70373
620.70        71.24916
621.13        71.39664
621.56         70.7349
621.99        69.61066
622.42        70.38731
622.85        72.55138
623.28        71.90424
623.71        71.50401
624.14        71.25619
624.57        70.98978
625.00        70.99644
625.43        71.02859
625.86        70.52825
626.29        70.82607
626.72         71.1964
627.15        71.03719
627.58        71.13558
628.01        71.19536
628.44         71.3427
628.87         71.6249
629.30        71.52151
629.73        71.95829
630.16         72.0516
630.59        71.79768
631.02        71.26961
631.45        71.00026
631.88        70.72802
632.31        70.63612
632.74        70.68947
633.17        70.83098
633.60        70.94077
634.03        70.97631
634.46        70.98141
634.89        70.97041
635.32        70.95459
635.75        70.94195
636.18        70.93587
636.61        70.95954
637.04        70.93999
637.47        71.06943
637.89        71.19463
638.32        71.30598
638.75         71.3343
639.18        71.26572
639.61        71.12704
640.04         70.9587
640.47           70.83
640.90        70.76703
641.33        70.74726
641.76        70.74299
642.18        70.80993
642.61        70.93543
643.04        70.94293
643.47        70.78169
643.90        71.28968
644.33        70.99188
644.76        71.08125
645.18        71.10242
645.61        71.04943
646.04         70.9084
646.47        70.68011
646.90         70.4818
647.33        70.44772
647.75        70.61888
648.18        70.99759
648.61        71.35343
649.04        71.31272
649.47        70.83341
649.89        69.94682
650.32        69.08394
650.75         68.9895
651.18        69.66176
651.61        70.52374
652.03        71.16675
652.46        71.25892
652.89        71.07258
653.32        70.39493
653.74        69.69106
654.17        70.80074
654.60        71.60081
655.03        69.35535
655.46        70.51624
655.88        74.30992
656.31        79.06828
656.74        176.7758
657.16        114.5246
657.59        40.30384
658.02        30.43901
658.45        53.16005
658.87        68.06887
659.30        71.10887
659.73        70.90131
660.15        68.28889
660.58        70.64362
661.01        72.36324
661.44        70.23642
661.86          69.388
662.29        69.07067
662.72        69.78815
663.14        71.26199
663.57        71.22159
664.00        69.93466
664.42        69.69296
664.85         70.5689
665.27        71.11599
665.70        71.09927
666.13        70.95474
666.55        70.66015
666.98        70.08451
667.41        69.44904
667.83         69.1733
668.26        69.34631
668.69        69.81602
669.11          70.311
669.54        70.73618
669.96        70.34464
670.39        69.79815
670.82        69.16328
671.24        68.93068
671.67         69.2207
672.09        69.75256
672.52        70.23369
672.94        70.89967
673.37        70.44519
673.80        70.15675
674.22        69.82275
674.65        69.64492
675.07        69.65903
675.50        69.65076
675.92        69.61804
676.35        69.68455
676.77        69.84181
677.20        69.98239
677.62        70.09721
678.05        70.17587
678.47        70.20114
678.90        70.18771
679.32        70.16122
679.75        70.03324
680.17        70.09201
680.60        70.11389
681.02        70.12853
681.45        70.02732
681.87        69.81208
682.30        69.50887
682.72        69.24024
683.15        69.22032
683.57        69.49559
684.00        69.90378
684.42        70.43327
684.85         70.6768
685.27        70.60465
685.70        70.30932
686.12        69.92245
686.54        69.69887
686.97        69.69014
687.39        69.83971
687.82        70.03313
688.24        70.13509
688.66        70.08305
689.09        69.92945
689.51        69.77708
689.94        69.75751
690.36        69.90878
690.78        70.17513
691.21        70.45042
691.63        70.57433
692.06        70.51297
692.48        70.32941
692.90        70.12623
693.33        70.04739
693.75        70.13115
694.17        70.33576
694.60        70.59103
695.02        70.76256
695.44        70.77582
695.87        70.84286
696.29        70.98023
696.71        70.69601
697.14        70.22105
697.56        70.69064
697.98        71.77883
698.41        71.89872
698.83        70.88617
699.25         70.3651
699.68        70.38804
700.10        70.31361
700.52        70.16644
700.94         70.3316
701.37        70.71865
701.79          71.047
702.21        71.22311
702.64        71.33253
703.06        71.35595
703.48        71.25584
703.90        71.05453
704.33        70.75703
704.75        70.44111
705.17        70.32483
705.59        70.45886
706.01        70.67403
706.44        70.84885
706.86         71.3934
707.28        71.30985
707.70        71.38426
708.12        71.36303
708.55        71.27218
708.97        71.12311
709.39        70.97896
709.81        70.88789
710.23         70.8576
710.66        70.90337
711.08        71.08037
711.50        71.28175
711.92        71.33113
712.34         71.1956
712.76        70.90703
713.19        70.61201
713.61        70.58054
714.03        70.84853
714.45        71.33564
714.87        71.81465
715.29        71.92518
715.71        71.59907
716.13        70.95837
716.56        70.25078
716.98        69.90572
717.40        70.02647
717.82        70.48455
718.24        71.07299
718.66        71.43856
719.08        71.47177
719.50        71.27901
719.92        70.98055
720.34        70.78461
720.76        70.75958
721.19        70.72288
721.61        70.85052
722.03        70.93875
722.45        71.02333
722.87        71.11769
723.29        71.23461
723.71        71.37745
724.13        71.53768
724.55        71.70439
724.97        71.83136
725.39        71.85487
725.81        71.76775
726.23        71.59264
726.65        71.40506
727.07        71.32185
727.49        71.37445
727.91        71.54084
728.33        71.74718
728.75        71.86509
729.17        71.85513
729.59        71.74471
730.01        71.62113
730.43        71.61503
730.85        71.75906
731.27         72.0384
731.69        72.32668
732.10        72.39951
732.52        72.21349
732.94        71.88412
733.36        71.60592
733.78        71.55003
734.20         71.7632
734.62        72.49026
735.04        73.46037
735.46        73.50034
735.88        72.82919
736.30        73.11717
736.72        74.32085
737.13        74.77695
737.55        74.25358
737.97        74.15508
738.39        74.49282
738.81        73.73267
739.23        72.35056
739.65        73.08054
740.06        75.41585
740.48        75.66982
740.90        73.92728
741.32        73.15603
741.74        73.60906
742.16        73.81776
742.57        73.82614
742.99        74.43674
743.41        75.44002
743.83         76.0502
744.25        76.13367
744.67        75.88644
745.08        75.53261
745.50        75.43784
745.92        75.71356
746.34        76.22458
746.75        76.79478
747.17        77.13155
747.59        77.17814
748.01        77.02857
748.42        76.86677
748.84        76.97813
749.26        77.43418
749.68        78.07536
750.09        78.73161
750.51        79.23215
750.93        79.46178
751.35        79.21284
751.76        78.66393
752.18        78.48704
752.60        78.67904
753.01        78.66692
753.43        78.48421
753.85        78.60985
754.27        79.05879
754.68        79.67017
755.10        80.33044
755.52        80.63448
755.93        81.10487
756.35        81.22636
756.77        81.25838
757.18        81.21687
757.60          81.158
758.02        81.32627
758.43        81.50557
758.85        80.89801
759.26        79.96993
759.68         79.3248
760.10        81.02164
760.51        81.34711
760.93        80.75961
761.34        79.92446
761.76        79.80167
762.18         79.3997
762.59        79.12012
763.01        79.48975
763.42         80.4678
763.84        81.13644
764.26        81.37364
764.67        81.55812
765.09        81.62238
765.50        81.36435
765.92        80.80551
766.33        79.67348
766.75        78.41663
767.16        78.14014
767.58        78.95947
768.00        80.39068
768.41        82.06029
768.83        83.35519
769.24         83.7401
769.66        82.78912
770.07        81.10776
770.49        79.65028
770.90        78.77944
771.32        79.64847
771.73        81.60547
772.15        81.06848
772.56        78.51486
772.97        78.13111
773.39        79.79295
773.80        80.33886
774.22        79.54928
774.63        79.36534
775.05        79.78712
775.46        80.00098
775.88        79.92806
776.29        79.80611
776.70        79.69415
777.12         79.7115
777.53        79.89498
777.95         80.1431
778.36        80.33935
778.77        80.28211
779.19        79.97676
779.60        79.49145
780.02        79.01184
780.43         78.9156
780.84        79.32401
781.26        79.67117
781.67        79.93075
782.09          81.008
782.50        82.35629
782.91        81.49087
783.33        79.09076
783.74        78.34558
784.15        79.41391
784.57        80.19946
784.98        80.37462
785.39        80.48157
785.81        80.42792
786.22        79.90202
786.63        79.24883
787.04        79.13647
787.46        79.63908
787.87        80.55081
788.28        81.51878
788.70        81.93501
789.11        81.66718
789.52        80.95462
789.93        80.12542
790.35        79.62828
790.76        79.58408
791.17        79.89097
791.58        80.41238
792.00        80.79563
792.41        80.91267
792.82        81.08882
793.23        81.37403
793.65        80.95766
794.06        80.21622
794.47        81.20295
794.88        83.16986
795.29        82.75182
795.71        80.18325
796.12        78.13983
796.53        77.22172
796.94        76.77458
797.35        76.97092
797.76        78.35171
798.18        80.25784
798.59        81.33167
799.00        81.16604
799.41        80.10336
799.82        78.68732
800.23        77.83002
800.64        77.77203
801.06        78.14839
801.47        78.80463
801.88        79.37235
802.29         79.6971
802.70        79.93675
803.11        80.06404
803.52        80.00243
803.93        79.76585
804.34        79.31109
804.75        78.85088
805.17         78.7748
805.58        79.18784
805.99        79.91908
806.40        80.62216
806.81         80.8963
807.22         80.5134
807.63        79.21053
808.04        77.56715
808.45        76.86147
808.86        77.28981
809.27        78.35268
809.68         79.5823
810.09        80.25136
810.50        80.09269
810.91        79.34348
811.32        78.37994
811.73        77.80642
812.14        77.79477
812.55        78.11578
812.96        78.61964
813.37        79.04032
813.78        79.25388
814.19        79.40735
814.60        79.39437
815.01        79.02538
815.42        78.31629
815.83         77.2815
816.24        76.31052
816.65        76.09853
817.05        76.83901
817.46        78.30494
817.87        79.93996
818.28        80.73172
818.69        80.40083
819.10        79.18159
819.51        77.70386
819.92        77.04968
820.33        77.49961
820.74        78.72777
821.14          80.121
821.55        80.58392
821.96        79.89384
822.37        78.44392
822.78        76.82436
823.19        75.89489
823.60        75.88224
824.00         76.5673
824.41        77.52978
824.82        78.15981
825.23        78.20419
825.64         77.8838
826.04        77.41243
826.45        77.09429
826.86        77.01732
827.27        77.03522
827.68        77.10139
828.08        77.19608
828.49        77.23334
828.90         77.3129
829.31          77.357
829.72        77.20222
830.12        76.86482
830.53        76.37352
830.94        75.97595
831.35        76.01263
831.75        76.57738
832.16        77.51266
832.57        78.58853
832.97        79.31284
833.38        79.44354
833.79        79.10977
834.20         78.5676
834.60         78.2104
835.01        78.17242
835.42         78.3401
835.82        78.52106
836.23        78.31615
836.64        77.69115
837.04        76.81415
837.45        75.98928
837.86        75.68283
838.26        76.00679
838.67        76.78194
839.08        77.73114
839.48        78.35164
839.89        78.44131
840.29        78.15353
840.70        77.67486
841.11        77.28141
841.51         77.0668
841.92        76.91507
842.33        76.80647
842.73        76.72724
843.14        76.63162
843.54        76.60387
843.95        76.55791
844.35        76.40099
844.76        76.11439
845.17        75.73122
845.57        75.38371
845.98        75.29294
846.38        75.48868
846.79        75.87038
847.19        76.30083
847.60        76.44104
848.00         76.2484
848.41        75.82448
848.81        75.32901
849.22        74.92068
849.62        74.71644
850.03        74.67194
850.43        74.86253
850.84        75.33352
851.24        76.08802
851.65         76.9039
852.05        77.77271
852.46        78.49784
852.86         79.0134
853.27        79.41909
853.67        79.32621
854.07        78.27765
854.48        76.38821
854.88        73.84126
855.29        71.53852
855.69        70.78777
856.10        71.82142
856.50        74.49639
856.90        77.86531
857.31        79.72289
857.71        79.36575
858.12        77.37291
858.52         74.8737
858.92        73.36463
859.33         73.1667
859.73        73.87449
860.13        75.14546
860.54        76.25056
860.94        76.92629
861.34        77.38097
861.75        77.67737
862.15         77.9923
862.55        78.34732
862.96        78.60151
863.36         78.7941
863.76        79.00483
864.17        79.23953
864.57        79.55462
864.97        79.87575
865.38        80.05787
865.78        80.12789
866.18        80.05154
866.58        79.96272
866.99        80.07948
867.39        80.50525
867.79        81.21244
868.19        81.88037
868.60        81.90062
869.00        81.15722
869.40        79.84782
869.80        78.67016
870.21        78.70275
870.61        80.25718
871.01         82.9803
871.41        86.04288
871.81        88.02446
872.22        88.49857
872.62        87.85146
873.02        86.76923
873.42        86.48363
873.82        87.15953
874.22        88.19881
874.63         89.2411
875.03        89.60821
875.43        88.97284
875.83        88.32874
876.23        86.77399
876.63        86.22122
877.03        86.69669
877.44        88.45857
877.84        102.5289
878.24        94.99165
878.64        94.52612
879.04        93.40134
879.44        89.28564
879.84        87.35614
880.24        91.14713
880.64        93.60815
881.04        95.47025
881.44        96.58412
881.84         95.9951
882.24        94.12969
882.65        92.13516
883.05        91.22162
883.45        91.61572
883.85        93.18302
884.25         95.2459
884.65        96.39706
885.05        96.20678
885.45        95.15751
885.85        94.01361
886.25        93.82574
886.65         94.7833
887.05        96.48895
887.45        98.36996
887.85        99.41731
888.25          99.297
888.65        98.39478
889.04        97.08088
889.44         95.9722
889.84        95.28158
890.24        94.79536
890.64        94.58456
891.04        94.77326
891.44        95.30705
891.84        96.19707
892.24        97.05566
892.64        97.14547
893.04         96.3776
893.44        95.07216
893.83        93.75743
894.23        93.21936
894.63        93.59879
895.03        94.59229
895.43        96.04501
895.83        97.62843
896.23        99.08936
896.63        100.5103
897.02         101.439
897.42        101.1683
897.82        99.68887
898.22        97.25936
898.62        94.78639
899.01        93.61165
899.41        94.02113
899.81        95.59982
900.21        97.60155
900.61        98.78516
901.00         98.7952
901.40        98.01103
901.80        96.94569
902.20        96.40122
902.59        96.59591
902.99        97.24466
903.39        97.97291
903.79        98.17159
904.18        97.68021
904.58        96.78127
904.98         95.8455
905.38        95.42142
905.77        95.60693
906.17          96.174
906.57         96.8466
906.96        97.27548
907.36        97.29992
907.76         97.0679
908.15         96.6329
908.55        95.96289
908.95         95.1712
909.34        94.24248
909.74        93.42936
910.14        92.95433
910.53        92.89532
910.93        93.25028
911.33        93.90959
911.72        94.65154
912.12         95.2761
912.52        95.74601
912.91        96.13313
913.31        96.58011
913.70        97.17083
914.10        97.87185
914.49        98.42937
914.89        98.16142
915.29        96.96589
915.68        95.10252
916.08        93.46632
916.47        92.81496
916.87        93.21384
917.26        94.42976
917.66         95.7365
918.05        95.97816
918.45        94.89846
918.84        92.93877
919.24        90.95052
919.64        90.16488
920.03        90.89501
920.42         92.7458
920.82        95.08387
921.21        96.91782
921.61        97.68232
922.00        97.68575
922.40        97.11909
922.79        96.25034
923.19        95.27494
923.58        94.06362
923.98         92.6777
924.37        91.60506
924.77        91.24996
925.16        89.74963
925.55         90.6586
925.95        91.51431
926.34        93.28209
926.74        95.51157
927.13        97.62765
927.52        98.44357
927.92        97.81224
928.31        96.10313
928.70        93.84973
929.10        91.98271
929.49        90.78378
929.89        90.06043
930.28        89.92549
930.67          90.556
931.07        91.76335
931.46        93.55647
931.85        95.26904
932.24        95.90027
932.64        95.27966
933.03         93.5512
933.42        91.17735
933.82        89.30965
934.21        88.33602
934.60         88.0452
934.99        88.10338
935.39        88.19186
935.78        88.26675
936.17        88.15166
936.56        87.58914
936.96         88.5631
937.35        87.41074
937.74        87.11845
938.13        86.94836
938.53         87.4272
938.92         88.5818
939.31        90.38252
939.70         92.3789
940.09        93.22132
940.49        92.45306
940.88        90.64816
941.27        88.65498
941.66         87.4641
942.05         87.2354
942.44        87.62946
942.84        88.46297
943.23        89.52489
943.62        90.55771
944.01        91.60375
944.40        92.42757
944.79        92.66009
945.18        92.21745
945.57        91.09515
945.97        89.49486
946.36        88.12669
946.75        87.44718
947.14        87.34009
947.53        87.62206
947.92        88.05199
948.31        88.57091
948.70        89.29682
949.09        90.13297
949.48        90.77349
949.87        91.03349
950.26        90.85123
950.65        90.45996
951.04        90.28889
951.43        90.42152
951.82        90.77235
952.21        90.94517
952.60        90.30933
952.99        88.80096
953.38        86.67679
953.77        84.59802
954.16        83.50063
954.55        83.55616
954.94        84.54475
955.33        85.75745
955.72        85.98729
956.11        84.95004
956.50        82.97783
956.89        80.95511
957.28        80.51698
957.66        82.17655
958.05        85.13032
958.44        88.38776
958.83        90.49682
959.22         91.0422
959.61        90.42011
960.00        89.04469
960.39        87.58672
960.78        86.34208
961.16        85.17025
961.55        84.02073
961.94         82.8903
962.33        81.85009
962.72        81.04837
963.11        80.61934
963.49        80.65529
963.88        81.12099
964.27        81.99918
964.66        83.00908
965.04        83.57602
965.43        83.39767
965.82        82.67329
966.21        81.86884
966.60        81.63202
966.98        82.08702
967.37         83.0023
967.76        84.04215
968.15        84.52699
968.53        84.24901
968.92        83.43586
969.31        82.44734
969.69        81.72255
970.08        81.38064
970.47         81.2984
970.86        81.31896
971.24         81.1867
971.63        80.81512
972.02        80.29941
972.40        79.85798
972.79        79.82053
973.17        80.37657
973.56        81.29831
973.95          82.317
974.33        82.87401
974.72         82.6936
975.11         81.9214
975.49        80.96642
975.88        80.48372
976.26        80.55439
976.65        81.04249
977.04        81.45654
977.42        80.68795
977.81        78.52396
978.19        75.55199
978.58        73.19248
978.96        72.75285
979.35        74.38911
979.74         77.8326
980.12        82.47343
980.51        85.72765
980.89        86.72635
981.28        85.97508
981.66        84.36164
982.05        83.08845
982.43        82.45524
982.82        82.12868
983.20        82.20078
983.59        82.90732
983.97        84.33695
984.35        86.55929
984.74        89.05329
985.12        90.84334
985.51        91.11496
985.89        89.93095
986.28        87.68423
986.66        85.06648
987.04        82.77945
987.43        80.97366
987.81        79.52381
988.20        78.09607
988.58        76.43096
988.96         74.2193
989.35        72.05179
989.73        72.58319
990.12         76.8446
990.50        83.25236
990.88        88.15174
991.27        89.14146
991.65        86.76167
992.03        81.76416
992.42        75.99247
992.80        72.86761
993.18        73.55676
993.56        76.30754
993.95        79.58226
994.33        82.12712
994.71        83.49648
995.10        84.39317
995.48         84.5966
995.86        83.49695
996.24        81.04034
996.63        77.03812
997.01        72.47837
997.39        70.51647
997.77        72.51633
998.15        77.68682
998.54        83.44582
998.92        86.38036
999.30        85.37496
999.68        81.43322
1000.06        75.42254
1000.45        69.80637
1000.83        66.00161
1001.21        63.45097
1001.59        62.47783
1001.97        63.46692
1002.35        66.28133
1002.73        71.54693
1003.12        77.74493
1003.50        79.65276
1003.88        74.95641
1004.26        66.09609
1004.64        57.72693
1005.02        53.93639
1005.40        55.12786
1005.78        61.09706
1006.16        72.38729
1006.54        83.19228
1006.92        86.52732
1007.30        84.61337
1007.69        81.49788
1008.07        79.93719
1008.45         80.0788
1008.83        81.37038
1009.21        83.49152
1009.59         80.8148
1009.97        52.08359
1010.35       -12.68052
1010.73       -26.43389
1011.11        1.779732
1011.49        27.94852
1011.86        48.46096
1012.24        60.50996
1012.62         65.6746
1013.00        66.64504
1013.38        64.74831
1013.76        62.06009
1014.14        65.30516
1014.52        80.00562
1014.90        107.3669
1015.28        140.7057
1015.66        160.5117
1016.04        154.2468
1016.41        124.6939
1016.79        87.61661
1017.17        61.83923
1017.55        50.73497
1017.93        47.05767
1018.31        47.66968
1018.69        51.62576
1019.06        58.75637
1019.44        70.38282
1019.82        88.75389
1020.20         111.466
1020.58        133.8714
1020.95        152.2584
1021.33        160.4359
1021.71         8.19224
1022.09        120.1836
1022.46        126.2579
1022.84         128.588
1023.22        131.2742
1023.60        137.1312
1023.97        180.8047
1024.35        111.7365
1024.73        122.8142
