SpectraSmart Spectrum 2.9.0.0
--------- Device Information -----------
Spectrum Name :  反射率_0
Saving Time :  2024/04/26 01:21:32
Spectro-Module Model Name : SE2030-DUVN
Spectro-Module Serial Number : OS361AC55029948
Wavelength Start : 200
Wavelength End : 1025
Wavelength Unit : Wavelength(nm)
Spectrum Unit : Reflectance(%)
-----------Spectrum Setting ------------
Integration Time : 20ms
Average : 10
Boxcar : 0
Background removal :  enabled
linearity correction :  enabled
SC :  disabled
Intensity correction :  disabled
DWT denoise :  enabled
savitzky-golay :  disabled
FFT :  disabled
Running average :  disabled
Kalman :  disabled
High pass :  disabled
---------------BEGIN--------------------
Wavelength(nm)             Reflectance(%)
200.29               0
200.75        107.9807
201.21        101.2616
201.67        92.20263
202.13        85.94431
202.58        83.34479
203.04        83.37395
203.50        84.25614
203.96        83.33115
204.42        80.37729
204.88        76.74892
205.34        74.01894
205.80        73.67807
206.26        76.43101
206.72        84.22245
207.18        100.5157
207.64        116.2909
208.10        109.3514
208.55        91.08634
209.01         79.4289
209.47        76.50314
209.93        78.96278
210.39        85.02989
210.85        91.70081
211.31        92.41451
211.77        85.34445
212.23        73.33815
212.69        61.57851
213.14         57.9032
213.60        63.62082
214.06        76.32304
214.52        91.34695
214.98        101.4805
215.44        104.4851
215.90        102.5036
216.36        97.71573
216.81        93.05412
217.27        89.97202
217.73        87.64753
218.19        85.09846
218.65        80.82719
219.11        73.96212
219.57        63.73296
220.02        51.42094
220.48        44.55759
220.94        47.31535
221.40        57.65007
221.86        67.72719
222.32        69.44355
222.77        63.55696
223.23        54.50928
223.69        46.57555
224.15        44.14137
224.61        46.79295
225.06        52.37503
225.52        57.97519
225.98        60.03389
226.44        57.93447
226.90        53.27839
227.36        48.10305
227.81        45.06938
228.27        45.04512
228.73        46.91283
229.19        49.56052
229.65        51.36954
230.10        51.93145
230.56        51.89801
231.02        51.80048
231.48        52.23084
231.93        53.20764
232.39        54.42765
232.85        55.60078
233.31        56.38709
233.77        56.66657
234.22        56.58899
234.68        56.18059
235.14        55.45644
235.60        54.58274
236.05        53.70039
236.51        53.04078
236.97        52.87073
237.43        53.30838
237.88        54.45514
238.34        56.46729
238.80        59.54985
239.26        63.44819
239.71        68.06049
240.17        72.21231
240.63        74.68065
241.08        75.30901
241.54        74.21938
242.00        72.78666
242.46        73.15917
242.91        76.96999
243.37         87.3653
243.83        118.1955
244.28        205.2085
244.74         278.494
245.20        207.1712
245.66        156.7213
246.11        143.1289
246.57        149.3342
247.03        181.9333
247.48        284.3376
247.94        242.9452
248.40        135.7578
248.85        101.9323
249.31        91.83082
249.77        90.92146
250.22        95.24805
250.68        104.6584
251.14        119.0674
251.59        129.9396
252.05        127.9086
252.51        116.5547
252.96        103.3098
253.42        95.71402
253.88        93.54709
254.33        94.13461
254.79        97.23273
255.25        101.8856
255.70        106.7225
256.16        111.7826
256.62        115.2261
257.07         115.136
257.53        112.4579
257.99        107.7186
258.44        102.4388
258.90        99.56987
259.35        98.21642
259.81        97.67442
260.27         96.3055
260.72        92.50602
261.18        87.16531
261.63        80.89326
262.09        75.21177
262.55        71.05029
263.00        68.33721
263.46        66.73314
263.91        65.42914
264.37        64.00124
264.83        62.15884
265.28        59.94772
265.74        57.72573
266.19        55.73154
266.65        54.27667
267.11        53.20467
267.56        52.22269
268.02        50.99686
268.47        49.37146
268.93        47.46867
269.38        45.52752
269.84        44.19867
270.30        43.64411
270.75        43.67994
271.21        43.88834
271.66        43.63099
272.12        42.75465
272.57        41.44763
273.03         40.0784
273.48        39.10817
273.94        38.67507
274.39        38.55891
274.85        38.51752
275.31        38.17159
275.76         37.4326
276.22        36.48933
276.67        35.49753
277.13        34.79053
277.58        34.37246
278.04        34.16139
278.49        33.97672
278.95         33.6604
279.40        33.12904
279.86        32.50999
280.31        31.82284
280.77        31.22497
281.22        30.71066
281.68        30.27773
282.13        29.89755
282.59        29.58484
283.04         29.3188
283.50        29.14306
283.95        28.99923
284.41        28.82681
284.86        28.60365
285.32         28.3541
285.77        28.15989
286.22        28.21704
286.68        28.51575
287.13        28.94875
287.59        29.32078
288.04        29.32573
288.50        28.94695
288.95        28.27539
289.41        27.53024
289.86        26.92204
290.32        26.57942
290.77        26.42691
291.22        26.45062
291.68        26.58162
292.13        26.80284
292.59        27.15656
293.04        27.65055
293.50        28.29283
293.95        29.05683
294.40        29.88653
294.86        30.75478
295.31        31.63969
295.77        32.53436
296.22        33.44936
296.68        34.33176
297.13        35.06751
297.58        35.66523
298.04        36.17907
298.49        36.76712
298.95        37.72228
299.40        39.08097
299.85        40.75072
300.31        42.51411
300.76        44.01978
301.21        45.15528
301.67        46.05518
302.12        46.81823
302.58        47.68726
303.03        48.70311
303.48        49.82098
303.94        51.06004
304.39        52.39576
304.84         53.8213
305.30        55.34148
305.75        56.85143
306.20        58.20887
306.66        59.40129
307.11        60.41702
307.57        61.37199
308.02        62.33656
308.47        63.38887
308.93        64.51467
309.38        65.67252
309.83        66.84308
310.29        68.00172
310.74        69.12567
311.19        70.22184
311.65        71.30038
312.10        72.35191
312.55        73.38121
313.00        74.32291
313.46        75.07939
313.91        75.61816
314.36        75.97818
314.82        76.30614
315.27        76.78733
315.72        77.49667
316.18        78.38692
316.63        79.33369
317.08         80.0863
317.53        80.57181
317.99        80.84313
318.44        81.07233
318.89         81.5462
319.35        82.30559
319.80        83.28895
320.25        84.23338
320.70        84.70503
321.16        84.61585
321.61        84.11145
322.06        83.51237
322.51        83.32342
322.97        83.64492
323.42        84.36018
323.87        85.20322
324.32        85.71328
324.78        85.74703
325.23         85.4889
325.68        85.11697
326.13        84.94553
326.59         85.0551
327.04        85.36905
327.49        85.80733
327.94        86.27218
328.39         86.7113
328.85        87.14437
329.30        87.58412
329.75        87.88783
330.20         88.0523
330.66        88.09634
331.11        88.18567
331.56        88.52282
332.01        89.17233
332.46        90.06216
332.92        91.07635
333.37        92.16777
333.82        93.18622
334.27        94.14565
334.72         94.9205
335.17         95.3233
335.63        95.33729
336.08        95.05561
336.53         94.7008
336.98        94.68187
337.43        95.10599
337.88        95.86864
338.34        96.78989
338.79        97.64713
339.24        98.31099
339.69        98.87538
340.14        99.31762
340.59        99.59805
341.05        99.74052
341.50        99.72263
341.95        99.71204
342.40         99.9952
342.85        100.6221
343.30        101.5264
343.75        102.4751
344.20        103.0454
344.66        103.1384
345.11        102.8633
345.56        102.4576
346.01        102.2864
346.46        102.4435
346.91        102.8123
347.36        103.2465
347.81        103.5217
348.26        103.5818
348.72        103.5304
349.17        103.4276
349.62        103.4137
350.07        103.5271
350.52        103.7072
350.97         103.912
351.42        104.0912
351.87        104.2185
352.32         104.306
352.77         104.338
353.22        104.2874
353.67         104.152
354.13        103.9508
354.58        103.6779
355.03        103.3885
355.48        103.0959
355.93         102.789
356.38        102.4647
356.83        102.1134
357.28         101.731
357.73        101.3288
358.18         100.893
358.63        100.3982
359.08        99.85001
359.53        99.26372
359.98         98.6776
360.43        98.15025
360.88        97.68766
361.33         97.2622
361.78        96.84619
362.23        96.39586
362.68        95.90154
363.13        95.39043
363.58         94.8494
364.03        94.25336
364.48        93.60854
364.93        92.91879
365.38        92.25542
365.83        91.73867
366.28        91.37582
366.73        91.11043
367.18        90.84219
367.63        90.40739
368.08        89.77798
368.53         89.0411
368.98        88.24277
369.43        87.44204
369.88        86.67879
370.33        85.93289
370.78        85.31026
371.23        84.98922
371.68        84.98517
372.13        85.23912
372.58        85.54822
373.03        85.56245
373.48        85.19491
373.93        84.55515
374.38        83.81342
374.83        83.23747
375.28        82.90148
375.72        82.70542
376.17        82.61195
376.62        82.53584
377.07        82.42641
377.52         82.3018
377.97        82.11693
378.42        81.79221
378.87        81.33167
379.32        80.78014
379.77        80.18515
380.22        79.61752
380.67        79.09365
381.11        78.58396
381.56        78.13575
382.01        77.82744
382.46        77.67407
382.91        77.68646
383.36        77.70228
383.81        77.45982
384.26        76.92502
384.71        76.16177
385.15         75.4297
385.60        75.19357
386.05        75.46728
386.50        76.09142
386.95        76.69714
387.40        76.66353
387.85        75.90489
388.29         74.6778
388.74        73.45149
389.19         72.5778
389.64         72.1248
390.09        71.91821
390.54        71.93322
390.98        72.12903
391.43        72.44051
391.88         72.8668
392.33        73.18272
392.78        73.02982
393.23        72.41309
393.67         71.4837
394.12        70.63679
394.57         70.1282
395.02        70.07635
395.47        70.54382
395.91        71.36229
396.36        71.92318
396.81        72.08341
397.26        72.05094
397.71        71.85476
398.15        71.42144
398.60        70.88868
399.05        70.30151
399.50        69.74933
399.95         69.1273
400.39        68.78412
400.84        68.57061
401.29        68.53695
401.74        68.54096
402.18        68.56821
402.63        68.61513
403.08        68.73877
403.53        68.99299
403.97        69.36541
404.42         69.8054
404.87        70.13476
405.32        70.06111
405.76        69.54153
406.21        68.74593
406.66        67.92653
407.11        67.47234
407.55        67.49305
408.00        67.79267
408.45        68.20643
408.90        68.59761
409.34        68.71959
409.79        68.15897
410.24        67.21097
410.68         66.7562
411.13        66.89944
411.58        67.17834
412.03        67.50557
412.47        67.91373
412.92        68.28012
413.37        68.62049
413.81        68.83217
414.26        68.79889
414.71        68.50132
415.15        67.97443
415.60        67.37981
416.05        67.00156
416.49        66.92316
416.94        67.09458
417.39        67.35403
417.83        67.39772
418.28        67.16647
418.73         66.7606
419.17        66.37608
419.62        66.33421
420.07        66.65166
420.51          67.203
420.96        67.77193
421.41        67.92881
421.85        67.55885
422.30        67.12749
422.74        66.70194
423.19        65.98558
423.64        65.24359
424.08        65.58324
424.53        66.79828
424.98        67.47476
425.42        67.43401
425.87        67.56754
426.31        67.89571
426.76        67.76779
427.21        67.37879
427.65        67.52595
428.10        68.15478
428.54        68.76905
428.99        69.32644
429.44        69.60504
429.88        69.62392
430.33        70.40529
430.77        71.29322
431.22        70.17207
431.66        67.60487
432.11        66.07991
432.56         65.9713
433.00        66.82869
433.45         68.4409
433.89        70.24721
434.34        70.84872
434.78        72.21406
435.23        68.22145
435.67        66.73418
436.12          69.244
436.57        70.38976
437.01        70.69499
437.46        70.90166
437.90          70.846
438.35        70.81524
438.79         70.9026
439.24        70.82435
439.68        70.68112
440.13        70.33753
440.57        70.11253
441.02        71.08489
441.46        72.80993
441.91        73.54807
442.35         73.1301
442.80         72.2682
443.24        71.34084
443.69        71.76322
444.13        73.18388
444.58         73.2622
445.02        71.65043
445.47        71.66618
445.91           72.98
446.36         73.4539
446.80        72.98324
447.24        72.70735
447.69        72.76745
448.13        72.85376
448.58        73.09921
449.02        73.43536
449.47        73.80541
449.91        74.08417
450.36        74.23463
450.80        74.27019
451.25        74.21412
451.69        74.08408
452.13        73.91833
452.58        73.70647
453.02        73.52131
453.47        73.52473
453.91         73.7162
454.36        74.05759
454.80         74.4052
455.24        74.42706
455.69        74.08405
456.13        73.59188
456.58        73.16461
457.02        72.60586
457.46        72.40739
457.91        72.72371
458.35        73.40467
458.79        73.68851
459.24         73.5147
459.68        73.20975
460.13        72.86383
460.57        72.50927
461.01        72.25568
461.46        71.86842
461.90        71.31774
462.34        71.87527
462.79        71.43728
463.23        71.76156
463.68        72.13339
464.12        72.44562
464.56        72.61699
465.01        72.72228
465.45        72.64135
465.89        72.52213
466.34        72.27198
466.78        71.21249
467.22        69.91631
467.67        69.37969
468.11        70.80807
468.55        71.50282
468.99        71.51015
469.44        71.13671
469.88        70.58347
470.32        70.66122
470.77        70.98392
471.21        70.97572
471.65        70.51315
472.10        70.26209
472.54         70.2595
472.98        70.25554
473.42        70.25942
473.87        70.40745
474.31         70.5916
474.75        70.60257
475.20        70.52905
475.64        70.30572
476.08        70.78207
476.52        70.78194
476.97        70.48877
477.41        70.71884
477.85         70.9645
478.29        70.38593
478.74        70.67644
479.18        70.89928
479.62        69.89104
480.06        70.50582
480.50        70.77477
480.95        70.90795
481.39        70.44858
481.83         70.1058
482.27        69.98467
482.72        69.59982
483.16        68.87572
483.60        68.90674
484.04        70.21413
484.48        70.75329
484.93          71.117
485.37        72.48911
485.81        72.95071
486.25        71.60304
486.69        96.50208
487.14        78.08887
487.58        48.72484
488.02        60.15916
488.46         68.1153
488.90         68.1037
489.34        69.08341
489.79        68.69916
490.23        70.76865
490.67         71.5639
491.11        70.24755
491.55        70.11961
491.99        70.77853
492.43        70.67665
492.88        69.91942
493.32        69.97955
493.76        70.29868
494.20        70.59618
494.64        70.60963
495.08        70.51574
495.52        70.47198
495.96         70.5239
496.41        70.58943
496.85        71.19174
497.29        71.98801
497.73         70.6311
498.17          68.245
498.61         68.5481
499.05        71.46027
499.49        71.90587
499.93         71.4627
500.37        71.09195
500.82        70.88813
501.26        70.97105
501.70        71.17049
502.14        71.51232
502.58        71.62019
503.02         71.5909
503.46        71.34367
503.90        70.83948
504.34        70.27693
504.78        70.02271
505.22        70.14716
505.66        70.54313
506.10         71.0316
506.54         71.2512
506.98        71.10172
507.42        70.80695
507.86        70.56169
508.30        70.08014
508.74        70.35783
509.18        70.55538
509.62        70.84321
510.06        71.03243
510.50        71.07809
510.94        71.03675
511.38        70.94689
511.82        70.88484
512.26        70.87791
512.70        70.89288
513.14        70.92657
513.58        71.02757
514.02         71.1936
514.46        71.32614
514.90        71.37014
515.34        71.65834
515.78        71.47036
516.22        71.43752
516.66        71.37452
517.10        71.17302
517.54        70.84634
517.98        71.00123
518.42        70.81306
518.86        70.87667
519.30        70.93913
519.74        71.07106
520.18        71.24216
520.62        71.39028
521.06        71.50491
521.50        71.58914
521.93        71.64272
522.37         71.6674
522.81        71.67124
523.25        71.65508
523.69        71.63616
524.13        71.64317
524.57         71.6836
525.01         71.7502
525.45        71.83156
525.89        71.90862
526.32        71.96189
526.76        71.98944
527.20        71.98321
527.64        71.94872
528.08        71.90686
528.52        71.80611
528.96        71.61774
529.40        71.49932
529.83        71.49848
530.27        70.84924
530.71        71.01363
531.15        70.96069
531.59        71.12025
532.03        71.41222
532.46        71.78976
532.90        72.13814
533.34        72.39278
533.78        72.57656
534.22        72.66013
534.66        72.61439
535.09        72.43664
535.53        72.16335
535.97        71.84978
536.41        71.60771
536.85        71.47548
537.28        71.44183
537.72        71.46124
538.16        71.46518
538.60        71.43394
539.04        71.32939
539.47        71.19637
539.91        71.29361
540.35        71.54948
540.79        71.63684
541.22        71.53122
541.66        71.48727
542.10        71.49803
542.54        71.39942
542.97        71.24813
543.41        71.24387
543.85        71.39379
544.29        71.65963
544.72        71.90569
545.16        71.93972
545.60        71.71481
546.04        71.32072
546.47        70.93861
546.91        70.78465
547.35        70.94083
547.79        71.53722
548.22        72.26845
548.66         72.4029
549.10        71.86662
549.53        71.12269
549.97        70.51221
550.41        69.94329
550.84        70.14345
551.28        70.58171
551.72        71.25993
552.15        71.63759
552.59        71.57274
553.03        71.86249
553.46        71.42831
553.90        71.37009
554.34        71.37609
554.77        71.45544
555.21        71.58874
555.65        71.34104
556.08        71.79704
556.52        71.20927
556.96        71.54908
557.39        71.37797
557.83        71.24186
558.27        71.16315
558.70        71.18044
559.14        71.28272
559.57        71.43657
560.01        71.70197
560.45        71.98495
560.88        72.06838
561.32          71.956
561.75        71.77271
562.19        71.60735
562.63         71.2739
563.06        70.90553
563.50        71.00763
563.93        71.44094
564.37        71.61551
564.80         71.4436
565.24        71.21885
565.68        71.02704
566.11        70.93253
566.55        71.00911
566.98        71.18622
567.42        71.41479
567.85        71.64794
568.29        71.89805
568.72        71.93988
569.16        71.96091
569.60        72.42535
570.03        72.76649
570.47        72.72073
570.90        72.51207
571.34        70.52834
571.77        71.59135
572.21        71.29066
572.64        71.00708
573.08        70.08595
573.51        67.43336
573.95        69.94977
574.38        73.87034
574.82        72.06998
575.25        71.47812
575.69        69.32977
576.12        68.16652
576.56        67.39859
576.99        68.88967
577.42        72.02892
577.86        72.15425
578.29        71.07897
578.73        75.17899
579.16        69.31348
579.60         63.5011
580.03        66.32555
580.47        70.50534
580.90        72.34884
581.33        70.74685
581.77        69.85518
582.20        76.96084
582.64        76.52314
583.07        65.77435
583.51        64.38248
583.94        63.02518
584.37          65.854
584.81        69.38795
585.24        73.07513
585.68        74.55175
586.11        73.12759
586.54        68.05674
586.98        66.03207
587.41        66.57858
587.85        70.49788
588.28        72.53603
588.71        69.27199
589.15        66.90965
589.58        68.79539
590.01        68.91228
590.45         70.2085
590.88        70.85336
591.31         70.1104
591.75         69.5538
592.18        69.55049
592.61        71.08928
593.05        71.09418
593.48        74.24151
593.91        74.74735
594.35        69.19686
594.78        67.85395
595.21        67.47852
595.65        70.47108
596.08        73.19421
596.51         70.4411
596.94        68.46621
597.38        69.14383
597.81        71.89137
598.24        73.35619
598.68        72.06143
599.11        70.59901
599.54        73.74445
599.97         75.0218
600.41        70.12244
600.84        70.24241
601.27        71.75178
601.70        70.73189
602.14        70.71495
602.57        69.58781
603.00        69.98489
603.43         71.5937
603.87        73.15807
604.30        72.83066
604.73        70.64279
605.16        68.91823
605.60        69.99748
606.03        71.12406
606.46        72.16987
606.89        72.18867
607.32         70.0381
607.76        69.64867
608.19        72.22443
608.62         71.4113
609.05        70.10304
609.48        70.49217
609.92        70.18018
610.35        69.81134
610.78        72.20726
611.21        72.62437
611.64        69.53485
612.07        70.19942
612.50        70.63741
612.94        71.08012
613.37        70.45019
613.80        70.85764
614.23        71.21284
614.66        71.21252
615.09        71.52389
615.52        71.50224
615.96        71.29248
616.39        71.34212
616.82        70.47836
617.25        70.11207
617.68        70.97359
618.11        71.54945
618.54        71.88999
618.97        71.42857
619.40        70.53725
619.84        70.49006
620.27        71.33666
620.70        71.98592
621.13         72.2512
621.56        71.72336
621.99        70.79233
622.42        71.52923
622.85          73.437
623.28         73.1854
623.71        72.88309
624.14        72.33985
624.57        71.90658
625.00        71.50704
625.43        71.69904
625.86        71.21462
626.29        71.53442
626.72        71.88332
627.15        71.88643
627.58         71.9535
628.01        71.80512
628.44        72.47005
628.87        72.56351
629.30        72.52903
629.73        73.08865
630.16        73.31507
630.59        72.83463
631.02        72.37063
631.45        71.88715
631.88        71.56852
632.31         71.4631
632.74         71.5446
633.17        71.72951
633.60        71.85121
634.03         71.8584
634.46        71.80725
634.89         71.7487
635.32        71.70185
635.75        71.67609
636.18        71.75812
636.61        71.96405
637.04        71.73701
637.47        72.01579
637.89        72.04819
638.32        72.08904
638.75        72.11492
639.18        72.12743
639.61         72.1276
640.04        72.07894
640.47        71.97238
640.90        71.81463
641.33        71.61727
641.76        71.41847
642.18        71.38276
642.61        71.52825
643.04        71.64194
643.47        71.62668
643.90        72.25991
644.33        72.01843
644.76         72.1249
645.18        72.13042
645.61        72.05133
646.04        71.88667
646.47        71.63165
646.90        71.39136
647.33        71.31187
647.75        71.44662
648.18         71.7226
648.61        71.95493
649.04        72.05315
649.47        71.89304
649.89        70.98273
650.32        69.80927
650.75        69.72768
651.18        70.67786
651.61        71.46296
652.03        71.69432
652.46        71.64638
652.89        71.66714
653.32        71.23272
653.74        70.28721
654.17        72.33044
654.60        72.15765
655.03        69.94546
655.46        71.31238
655.88        74.56065
656.31        79.71513
656.74        178.5512
657.16         115.702
657.59        40.88631
658.02        30.92804
658.45        54.30468
658.87        69.17026
659.30        72.48761
659.73        71.32742
660.15        69.03934
660.58          71.622
661.01        73.32242
661.44        70.69205
661.86         69.7914
662.29        69.83584
662.72         70.7187
663.14        72.12875
663.57        72.05348
664.00        70.77467
664.42        70.51807
664.85        71.36031
665.27        71.84145
665.70        71.75854
666.13        71.61883
666.55        71.40861
666.98        70.97613
667.41        70.48146
667.83        70.24814
668.26        70.34716
668.69        70.65469
669.11        70.97847
669.54        71.35229
669.96        71.04485
670.39        70.68935
670.82        70.26982
671.24        70.09159
671.67        70.25645
672.09          70.681
672.52        71.08963
672.94        71.52547
673.37        70.76816
673.80         70.4891
674.22        70.42716
674.65        70.38151
675.07        70.35177
675.50        70.34237
675.92         70.3679
676.35        70.48367
676.77        70.68095
677.20        70.85818
677.62        70.99739
678.05        71.07776
678.47        71.08399
678.90        71.04359
679.32        70.98196
679.75        70.80784
680.17        70.81427
680.60        70.77296
681.02        70.75212
681.45        70.67641
681.87        70.54389
682.30        70.44241
682.72        70.41271
683.15        70.34414
683.57        70.34708
684.00        70.73611
684.42        71.47384
684.85        71.72107
685.27        71.44089
685.70        70.99301
686.12        70.54305
686.54        70.27972
686.97        70.26153
687.39        70.44718
687.82        70.71281
688.24         70.9036
688.66        70.94418
689.09        70.88476
689.51         70.8044
689.94         70.8026
690.36        70.91341
690.78        71.08673
691.21        71.25691
691.63        71.33234
692.06        71.29588
692.48        71.19437
692.90        71.08814
693.33        71.05155
693.75         71.1036
694.17         71.2224
694.60        71.37839
695.02        71.48729
695.44        71.48673
695.87        71.62356
696.29        71.88078
696.71        71.54121
697.14        70.86272
697.56        71.36571
697.98        72.73846
698.41        72.62729
698.83        71.76106
699.25        71.19611
699.68        71.24023
700.10        71.14237
700.52         70.9306
700.94        71.00769
701.37        71.30893
701.79        71.62149
702.21        71.85882
702.64        72.08094
703.06        72.21948
703.48        72.15897
703.90        71.90594
704.33        71.49742
704.75        71.04546
705.17        70.82313
705.59        70.90182
706.01        71.09359
706.44        71.28991
706.86         71.9174
707.28        71.96131
707.70        72.22513
708.12        72.39591
708.55        72.36789
708.97        72.16041
709.39        71.96213
709.81        71.85141
710.23        71.79475
710.66        71.81871
711.08        72.02131
711.50        72.26837
711.92        72.30666
712.34        72.09464
712.76        71.70172
713.19        71.29309
713.61        71.16579
714.03        71.37194
714.45          71.819
714.87        72.30345
715.29        72.50513
715.71        72.34885
716.13        71.93382
716.56        71.44186
716.98        71.19662
717.40        71.27538
717.82        71.58124
718.24        71.95824
718.66        72.14497
719.08         72.0723
719.50        71.82924
719.92        71.53136
720.34          71.381
720.76        71.43435
721.19        71.49632
721.61        71.72645
722.03        71.92885
722.45        72.05485
722.87        72.18353
723.29        72.29014
723.71        72.36111
724.13        72.39335
724.55        72.38594
724.97        72.36453
725.39        72.34873
725.81        72.34264
726.23        72.39557
726.65        72.50809
727.07        72.38592
727.49        72.48731
727.91        72.46202
728.33        72.45014
728.75        72.44479
729.17        72.45022
729.59         72.4481
730.01        72.46786
730.43        72.56133
730.85        72.73438
731.27         73.0004
731.69        73.25846
732.10        73.32247
732.52        73.15845
732.94        72.86053
733.36        72.60964
733.78        72.55885
734.20        72.74912
734.62        73.44109
735.04        74.36243
735.46        74.33028
735.88        73.57832
736.30        73.78616
736.72        74.92622
737.13        75.39687
737.55        74.96107
737.97        74.91266
738.39        75.26221
738.81        74.61625
739.23         73.4024
739.65        74.11898
740.06        76.28325
740.48        76.45288
740.90        74.73892
741.32        73.98627
741.74        74.44402
742.16        74.68202
742.57        74.73882
742.99        75.41282
743.41        76.47044
743.83        77.07819
744.25        77.09325
744.67        76.72716
745.08        76.23898
745.50        76.04902
745.92        76.28986
746.34        76.82246
746.75        77.44442
747.17        77.81664
747.59        77.86984
748.01         77.7066
748.42        77.55081
748.84        77.74413
749.26        78.35945
749.68        79.23364
750.09        80.11771
750.51        80.64894
750.93        80.71532
751.35        80.30696
751.76        79.64478
752.18        79.31195
752.60        79.32238
753.01        79.28063
753.43        79.01888
753.85        79.14577
754.27        79.62231
754.68        80.23456
755.10        80.86289
755.52        81.46688
755.93        81.97177
756.35        82.30643
756.77        82.51785
757.18        82.56357
757.60        82.46224
758.02        82.59542
758.43        82.79404
758.85        82.03394
759.26        80.74479
759.68        80.67463
760.10        81.82552
760.51        82.42012
760.93        82.17229
761.34        81.46351
761.76        81.14803
762.18         80.5038
762.59        80.01228
763.01        80.33713
763.42        81.43373
763.84        82.10057
764.26        82.19614
764.67        82.36806
765.09        82.52166
765.50        82.17679
765.92         81.4052
766.33        80.24586
766.75          79.125
767.16        78.86389
767.58        79.56322
768.00        80.95359
768.41        82.67472
768.83        83.91276
769.24        84.19965
769.66        83.42358
770.07         82.1144
770.49        80.88859
770.90        80.07834
771.32        80.98053
771.73        82.94907
772.15        82.36265
772.56        79.72427
772.97        79.23794
773.39        80.80275
773.80        81.33381
774.22        80.60575
774.63        80.46948
775.05        80.89562
775.46         81.0956
775.88        80.97795
776.29        80.74075
776.70         80.4808
777.12        80.40626
777.53        80.57161
777.95        80.85447
778.36        81.09606
778.77        81.02341
779.19         80.6308
779.60        80.01592
780.02        79.42365
780.43         79.3191
780.84        79.83958
781.26        80.38395
781.67        80.86948
782.09        82.10812
782.50         83.5136
782.91        82.60965
783.33        80.11475
783.74        79.29349
784.15        80.32304
784.57         81.0779
784.98        81.21944
785.39        81.28139
785.81         81.1721
786.22         80.5898
786.63        79.89655
787.04        79.79726
787.46        80.37187
787.87        81.36962
788.28        82.40266
788.70        82.98046
789.11        82.68227
789.52        81.95978
789.93        81.08939
790.35        80.57127
790.76        80.54552
791.17        80.91734
791.58        81.49325
792.00        81.86959
792.41        81.91268
792.82        81.80244
793.23        81.74616
793.65        81.53852
794.06        81.41859
794.47        82.58611
794.88        84.23997
795.29        83.65047
795.71        81.07507
796.12         78.6805
796.53        77.20612
796.94        76.77004
797.35        77.48065
797.76        78.98329
798.18         80.6077
798.59        81.72603
799.00        81.94096
799.41        81.13625
799.82         79.7924
800.23        78.95384
800.64        78.85766
801.06        79.10439
801.47        79.58542
801.88        80.01692
802.29        80.27708
802.70        80.51752
803.11        80.70421
803.52        80.73251
803.93        80.59631
804.34        80.25861
804.75        79.90667
805.17        79.86317
805.58        80.21589
805.99        80.87336
806.40        81.50635
806.81        81.57251
807.22        80.94862
807.63        79.76759
808.04        78.50036
808.45        77.91621
808.86        78.16838
809.27        79.00948
809.68         80.0696
810.09        80.68077
810.50         80.6157
810.91        80.09439
811.32        79.37408
811.73        78.87013
812.14        78.71214
812.55        78.72074
812.96        78.87689
813.37        79.15489
813.78        79.49561
814.19         79.9581
814.60         80.3011
815.01         80.1375
815.42        79.42872
815.83         78.2487
816.24        77.04776
816.65        76.62642
817.05        77.22379
817.46        78.58315
817.87        80.13659
818.28        80.85413
818.69        80.45258
819.10        79.18926
819.51        77.70356
819.92        77.08047
820.33        77.59803
820.74        78.91722
821.14        80.41454
821.55        80.98309
821.96        80.38876
822.37        79.02042
822.78         77.4588
823.19         76.5523
823.60        76.53117
824.00        77.18691
824.41        78.11433
824.82        78.73332
825.23        78.80392
825.64        78.53828
826.04        78.15308
826.45        77.95805
826.86        78.03189
827.27        78.21645
827.68        78.42748
828.08        78.58503
828.49        78.57883
828.90        78.51635
829.31        78.34219
829.72        77.94599
830.12        77.38074
830.53        76.68729
830.94        76.11186
831.35        75.97562
831.75        76.36761
832.16        77.13766
832.57        78.09813
832.97        78.82732
833.38         79.0976
833.79        79.01321
834.20        78.74132
834.60        78.54974
835.01        78.54496
835.42        78.63335
835.82         78.7164
836.23        78.55748
836.64        78.15834
837.04         77.6394
837.45        77.16917
837.86        77.00707
838.26        77.21491
838.67        77.65479
839.08        78.20973
839.48        78.65777
839.89        78.86904
840.29        78.92349
840.70        78.79189
841.11        78.41511
841.51        77.83794
841.92        77.06993
842.33        76.34196
842.73        76.04866
843.14         76.2359
843.54        76.83059
843.95        77.53175
844.35        77.88636
844.76        77.75113
845.17         77.2801
845.57        76.66684
845.98        76.22243
846.38        76.03936
846.79        75.98695
847.19        76.04539
847.60        76.09866
848.00        76.13826
848.41        76.19079
848.81        76.24041
849.22        76.16965
849.62        76.02039
850.03        75.81744
850.43         75.6898
850.84        75.79588
851.24        76.21458
851.65        76.70618
852.05        77.32736
852.46        77.98849
852.86        78.62752
853.27         79.2994
853.67        79.53674
854.07        78.74858
854.48        77.00301
854.88        74.52161
855.29        72.17521
855.69        71.22546
856.10        71.91193
856.50        74.08779
856.90        76.95284
857.31        78.63621
857.71        78.53956
858.12        77.13374
858.52        75.30765
858.92        74.24471
859.33        74.20662
859.73        74.86713
860.13        75.96471
860.54        76.94826
860.94         77.6236
861.34        78.11859
861.75        78.45858
862.15        78.76834
862.55        79.05103
862.96        79.22323
863.36        79.29106
863.76        79.25959
864.17         79.1543
864.57        79.06339
864.97        79.06277
865.38        79.24194
865.78        79.65088
866.18        80.16536
866.58        80.73119
866.99        81.24195
867.39        81.69977
867.79        82.16371
868.19        82.40742
868.60        82.02176
869.00        80.98957
869.40        79.44949
869.80        78.14974
870.21        78.24139
870.61        80.02871
871.01        83.16387
871.41        86.65235
871.81        88.77926
872.22        89.04997
872.62        87.91954
873.02        86.29536
873.42        85.75514
873.82        86.52658
874.22         87.9194
874.63        89.40845
875.03        89.90736
875.43        88.98068
875.83        87.85919
876.23        85.84474
876.63        85.16232
877.03        85.92416
877.44        88.40059
877.84        102.1642
878.24        97.05824
878.64        97.02258
879.04        95.62453
879.44        91.85507
879.84        89.50718
880.24        91.96795
880.64         93.3085
881.04        93.86094
881.44         94.0116
881.84        93.36578
882.24        92.18245
882.65        91.26646
883.05        91.38358
883.45        92.67483
883.85        95.07543
884.25        97.77778
884.65        99.18705
885.05        98.82738
885.45        97.23898
885.85        95.34511
886.25        94.41818
886.65        94.73093
887.05        95.87528
887.45        97.35869
887.85        98.29597
888.25        98.36273
888.65        97.88537
889.04        97.10052
889.44        96.40233
889.84        95.92157
890.24        95.49183
890.64        95.15965
891.04        95.02898
891.44        95.08186
891.84        95.34267
892.24        95.60783
892.64        95.47308
893.04        94.91962
893.44        94.15449
893.83        93.47912
894.23        93.35202
894.63        93.83019
895.03        94.68605
895.43           95.85
895.83        97.16142
896.23        98.44127
896.63        99.73371
897.02        100.5552
897.42        100.1462
897.82        98.50665
898.22        95.95657
898.62        93.46534
899.01        92.45419
899.41        93.19501
899.81        95.18839
900.21        97.63311
900.61        99.20457
901.00        99.50131
901.40        98.93962
901.80        97.93255
902.20         97.1343
902.59        96.76855
902.99           96.59
903.39        96.52264
903.79        96.46098
904.18        96.37477
904.58        96.43797
904.98        96.60643
905.38        96.77238
905.77        96.88368
906.17        96.86988
906.57        96.89356
906.96        97.27663
907.36        97.96319
907.76        98.88109
908.15        99.56233
908.55        99.12376
908.95        97.50379
909.34        94.99174
909.74        92.45365
910.14        91.07256
910.53        91.17887
910.93        92.48641
911.33        94.44135
911.72        95.99207
912.12        96.65749
912.52        96.69631
912.91        96.46011
913.31        96.41633
913.70        96.72294
914.10        97.21051
914.49        97.61307
914.89        97.28185
915.29        96.13052
915.68        94.46642
916.08        93.09903
916.47        92.67168
916.87        93.23204
917.26        94.53085
917.66        95.92238
918.05        96.39522
918.45        95.69115
918.84        94.19639
919.24        92.55752
919.64        91.69028
920.03        91.86264
920.42        92.78151
920.82        94.10791
921.21        95.40366
921.61        96.27404
922.00        96.84948
922.40        97.03836
922.79         96.7274
923.19        96.01561
923.58        94.89469
923.98        93.50831
924.37         92.4523
924.77        92.16279
925.16         90.8902
925.55        91.79948
925.95        92.70841
926.34        94.45887
926.74        96.64631
927.13        98.68852
927.52        99.37749
927.92        98.57973
928.31        96.67436
928.70        94.25062
929.10        92.33109
929.49        91.20902
929.89        90.65462
930.28        90.71819
930.67        91.46505
931.07        92.67813
931.46        94.41577
931.85        96.02478
932.24         96.5296
932.64        95.77287
933.03        93.85916
933.42        91.34775
933.82        89.57386
934.21        88.92816
934.60        89.12327
934.99        89.58932
935.39        89.68764
935.78        89.32888
936.17        88.40015
936.56        86.77938
936.96        87.36426
937.35        86.47522
937.74        86.99657
938.13        87.65504
938.53        88.66869
938.92        90.07273
939.31        91.98821
939.70         93.9218
940.09        94.45145
940.49        93.18233
940.88         90.7396
941.27        88.23888
941.66        86.98868
942.05        87.15305
942.44        88.31435
942.84        90.01451
943.23        91.51657
943.62        92.39071
944.01        92.80518
944.40        92.81326
944.79        92.49841
945.18        91.90314
945.57        90.92661
945.97        89.55434
946.36        88.04258
946.75        86.76391
947.14        85.86789
947.53        85.47754
947.92        85.60111
948.31        86.16749
948.70        87.20779
949.09        88.45381
949.48        89.23756
949.87         89.2402
950.26        88.51467
950.65        87.56049
951.04        87.20465
951.43        87.61842
951.82        88.59238
952.21        89.50377
952.60        89.34017
952.99        87.92928
953.38        85.65944
953.77        83.35551
954.16         82.1971
954.55        82.41389
954.94        83.68095
955.33        85.21524
955.72        85.70058
956.11        84.80082
956.50        82.89338
956.89        80.82892
957.28        80.17534
957.66        81.47065
958.05        83.96286
958.44        86.78775
958.83        88.67842
959.22        89.25475
959.61        88.85184
960.00        87.82756
960.39        86.74642
960.78        85.85249
961.16        85.04215
961.55        84.17896
961.94        83.11238
962.33        81.90434
962.72        80.74072
963.11        79.95818
963.49        79.94616
963.88        80.71437
964.27        82.17329
964.66        83.83725
965.04        84.66837
965.43        84.19489
965.82        82.79659
966.21        81.17761
966.60        80.25539
966.98        80.22225
967.37        80.78628
967.76        81.61149
968.15        82.03384
968.53        81.83874
968.92        81.23508
969.31        80.57318
969.69        80.27876
970.08         80.4511
970.47        80.96626
970.86         81.5422
971.24        81.70785
971.63         81.3213
972.02        80.51188
972.40        79.72865
972.79        79.73267
973.17        80.84855
973.56        82.75409
973.95        84.85922
974.33        86.00484
974.72        85.71719
975.11        84.30649
975.49        82.55218
975.88        81.55162
976.26        81.46871
976.65        82.11752
977.04        82.69457
977.42        81.45054
977.81        78.07556
978.19        73.48059
978.58        69.82214
978.96        69.25948
979.35        72.04455
979.74        77.74943
980.12        85.05045
980.51        89.59595
980.89        89.84807
981.28        86.98816
981.66        82.95438
982.05        80.25993
982.43        79.41093
982.82        79.57668
983.20        80.49617
983.59        81.92451
983.97        83.78758
984.35        86.36752
984.74        89.08456
985.12        90.76487
985.51        90.55842
985.89        88.50507
986.28        85.33681
986.66        82.37331
987.04        80.43879
987.43        79.47926
987.81        79.01194
988.20        78.32473
988.58        77.12157
988.96         75.1748
989.35        73.21793
989.73        74.24612
990.12        79.29693
990.50        86.50163
990.88        91.69376
991.27        92.13639
991.65        88.43394
992.03        81.44608
992.42        73.71054
992.80        70.01674
993.18        71.75842
993.56         76.5155
993.95        81.75129
994.33        85.07013
994.71        85.99392
995.10        85.68112
995.48        84.52273
995.86        82.87778
996.24        80.97932
996.63        78.37305
997.01        75.75758
997.39        75.42945
997.77         78.1407
998.15        83.23618
998.54         88.2139
998.92        89.80809
999.30        87.04914
999.68        80.91086
1000.06        72.62809
1000.45        65.63295
1000.83        61.73818
1001.21        60.05943
1001.59        60.51674
1001.97        63.11531
1002.35        67.66996
1002.73        75.05264
1003.12        83.37759
1003.50        86.07899
1003.88        80.19304
1004.26        68.77755
1004.64        57.74459
1005.02        52.20272
1005.40        52.56072
1005.78        58.36336
1006.16        70.49081
1006.54        83.30169
1006.92        88.81612
1007.30        88.62384
1007.69        86.62103
1008.07        85.82496
1008.45        86.76791
1008.83        89.07623
1009.21        93.03352
1009.59        94.54777
1009.97        73.15173
1010.35        12.25303
1010.73       -9.536885
1011.11        11.07289
1011.49        33.16886
1011.86        51.79167
1012.24        62.80175
1012.62        66.90569
1013.00         66.4959
1013.38        62.39678
1013.76        57.03743
1014.14         59.3167
1014.52        76.81639
1014.90         112.077
1015.28        155.5051
1015.66        178.2745
1016.04        163.1931
1016.41        116.0864
1016.79        63.95578
1017.17        36.60577
1017.55        32.82919
1017.93        38.23677
1018.31        46.15041
1018.69        53.77668
1019.06        61.59441
1019.44        71.93697
1019.82        87.33369
1020.20        107.5492
1020.58        130.9921
1020.95        156.1404
1021.33        184.3486
1021.71       -223.3394
1022.09        98.98939
1022.46        116.6311
1022.84        123.2275
1023.22        129.3739
1023.60        141.8382
1023.97        251.5192
1024.35        71.60947
1024.73        98.79685
