SpectraSmart Spectrum 2.9.0.0
--------- Device Information -----------
Spectrum Name :  反射率_0
Saving Time :  2024/04/26 01:08:15
Spectro-Module Model Name : SE2030-DUVN
Spectro-Module Serial Number : OS361AC55029948
Wavelength Start : 200
Wavelength End : 1025
Wavelength Unit : Wavelength(nm)
Spectrum Unit : Reflectance(%)
-----------Spectrum Setting ------------
Integration Time : 20ms
Average : 10
Boxcar : 0
Background removal :  enabled
linearity correction :  enabled
SC :  disabled
Intensity correction :  disabled
DWT denoise :  enabled
savitzky-golay :  disabled
FFT :  disabled
Running average :  disabled
Kalman :  disabled
High pass :  disabled
---------------BEGIN--------------------
Wavelength(nm)             Reflectance(%)
200.29               0
200.75        85.86287
201.21        73.95509
201.67        61.65731
202.13        55.80277
202.58        56.95943
203.04        63.33372
203.50         71.9859
203.96        77.45329
204.42        78.12438
204.88        76.05504
205.34        73.39756
205.80        72.28079
206.26        73.35847
206.72        77.05338
207.18         84.4146
207.64        89.36922
208.10        82.00464
208.55         71.2622
209.01        65.28514
209.47        63.90588
209.93        65.24879
210.39        68.77207
210.85        72.45444
211.31        72.04591
211.77        66.52616
212.23        57.44324
212.69        49.10319
213.14        48.23089
213.60        55.63388
214.06        69.32814
214.52         83.9883
214.98        91.42096
215.44        89.81801
215.90         82.0537
216.36        72.24099
216.81        66.14304
217.27        65.25566
217.73        67.44489
218.19        69.98479
218.65        69.38575
219.11        64.39614
219.57        54.62984
220.02        41.46841
220.48        33.27705
220.94        34.85206
221.40        44.09121
221.86        52.91949
222.32        52.86213
222.77        45.05222
223.23        34.35765
223.69        25.64812
224.15        23.86284
224.61        28.31839
225.06        36.29272
225.52        44.29757
225.98        47.98027
226.44        46.49265
226.90        41.78439
227.36        35.90089
227.81        31.51178
228.27        29.70966
228.73         29.5315
229.19        30.58454
229.65        32.30462
230.10        34.22206
230.56         36.2595
231.02        38.25677
231.48        40.00774
231.93        41.45726
232.39        42.62944
232.85        43.31007
233.31        43.23178
233.77        42.38186
234.22        40.82283
234.68        39.02865
235.14        37.89195
235.60        37.77724
236.05        38.57917
236.51        39.79984
236.97        40.62461
237.43        40.92569
237.88        40.98682
238.34        41.32679
238.80         43.2087
239.26        47.02908
239.71        52.30198
240.17        57.81547
240.63        62.08675
241.08        64.64185
241.54        65.69529
242.00        65.90838
242.46        66.38979
242.91        68.03415
243.37        71.57211
243.83         83.0865
244.28        125.7902
244.74        183.7909
245.20        164.2779
245.66        140.1392
246.11        132.4928
246.57        134.3706
247.03        146.8216
247.48        178.1134
247.94        134.1155
248.40        93.58929
248.85        84.39917
249.31        83.18258
249.77        84.82701
250.22        88.50498
250.68        94.92999
251.14        103.8093
251.59        108.7094
252.05         103.925
252.51        93.00736
252.96         81.6695
253.42        75.20605
253.88        73.17153
254.33         73.6415
254.79        77.08655
255.25        83.34627
255.70        90.72536
256.16        98.40128
256.62        103.6585
257.07        103.8287
257.53         100.089
257.99        93.60773
258.44        86.77592
258.90        83.37896
259.35        82.52981
259.81        82.93551
260.27        82.47334
260.72        79.10226
261.18        73.69547
261.63        67.17047
262.09        61.27267
262.55        57.26471
263.00        55.06062
263.46        54.07932
263.91        53.34961
264.37         52.1897
264.83        50.36194
265.28        48.02916
265.74        45.69931
266.19        43.87711
266.65        42.83696
267.11         42.2873
267.56        41.80193
268.02        40.87039
268.47        39.35357
268.93         37.4352
269.38        35.40246
269.84        33.98573
270.30        33.38342
270.75         33.3922
271.21        33.61026
271.66        33.43132
272.12        32.69443
272.57        31.58908
273.03        30.43636
273.48        29.63157
273.94        29.29376
274.39        29.23436
274.85        29.23188
275.31        28.96026
275.76        28.34165
276.22         27.5238
276.67        26.67072
277.13        26.10608
277.58         25.8351
278.04        25.77307
278.49         25.7041
278.95        25.38915
279.40        24.76597
279.86        23.99049
280.31        23.18633
280.77        22.64435
281.22        22.38229
281.68        22.32482
282.13        22.35984
282.59         22.3647
283.04        22.29468
283.50        22.22475
283.95        22.13854
284.41         22.0263
284.86        21.89103
285.32        21.73865
285.77        21.64726
286.22        21.80066
286.68        22.18897
287.13        22.72153
287.59        23.21744
288.04         23.3986
288.50         23.2416
288.95        22.82648
289.41         22.3393
289.86        21.95498
290.32         21.7892
290.77        21.78137
291.22        21.93256
291.68        22.20127
292.13        22.58014
292.59        23.10107
293.04        23.77262
293.50        24.59671
293.95        25.55287
294.40        26.60594
294.86        27.72086
295.31        28.86331
295.77        30.03232
296.22        31.23818
296.68        32.48571
297.13        33.74835
297.58        35.03444
298.04           36.36
298.49        37.76315
298.95        39.36179
299.40        41.15942
299.85        43.11148
300.31        45.12844
300.76        47.05787
301.21        48.83174
301.67        50.53077
302.12        52.12253
302.58        53.67171
303.03         55.1884
303.48        56.68829
303.94        58.33802
304.39        60.32462
304.84         62.6695
305.30        65.29582
305.75        67.89687
306.20        70.02953
306.66        71.62197
307.11         72.7485
307.57        73.73389
308.02        74.94361
308.47        76.52585
308.93        78.37331
309.38        80.26565
309.83        81.91199
310.29        83.22707
310.74        84.27562
311.19        85.23048
311.65        86.34778
312.10        87.67165
312.55        89.13146
313.00        90.51388
313.46        91.48381
313.91        91.95312
314.36        92.04959
314.82        92.07211
315.27        92.41886
315.72        93.22195
316.18        94.36182
316.63        95.60876
317.08        96.53669
317.53        97.02177
317.99        97.17649
318.44        97.24879
318.89         97.6441
319.35        98.43089
319.80        99.50537
320.25        100.5519
320.70        101.0575
321.16        100.9085
321.61        100.2806
322.06        99.52103
322.51        99.17016
322.97         99.3418
323.42        99.92271
323.87        100.6448
324.32        101.0459
324.78         100.989
325.23        100.6737
325.68        100.2991
326.13         100.215
326.59        100.4934
327.04        101.0343
327.49        101.7086
327.94        102.3464
328.39        102.8681
328.85        103.3078
329.30        103.6871
329.75         103.859
330.20        103.8447
330.66        103.6762
331.11        103.5976
331.56        103.9243
332.01        104.7465
332.46        105.9642
332.92        107.3759
333.37        108.8075
333.82        110.0294
334.27        111.0695
334.72        111.8231
335.17        112.1529
335.63        112.0743
336.08        111.6927
336.53        111.2236
336.98        111.0746
337.43        111.3638
337.88        111.9871
338.34        112.8473
338.79        113.8607
339.24        114.9018
339.69        116.0214
340.14        116.9936
340.59        117.4285
341.05        117.2866
341.50        116.6721
341.95         116.002
342.40        115.9339
342.85        116.5994
343.30        117.8068
343.75        119.1988
344.20        120.1294
344.66        120.4095
345.11        120.2262
345.56        119.7984
346.01        119.4582
346.46        119.3292
346.91        119.3011
347.36        119.3674
347.81        119.5348
348.26        119.7846
348.72        120.1503
349.17        120.5322
349.62        120.7911
350.07        120.8834
350.52        120.8267
350.97        120.6923
351.42        120.6063
351.87        120.6011
352.32        120.6456
352.77        120.6721
353.22        120.5754
353.67        120.3357
354.13        120.0006
354.58        119.6286
355.03        119.3725
355.48        119.2486
355.93        119.1962
356.38         119.093
356.83         118.749
357.28        118.1256
357.73        117.2973
358.18        116.3686
358.63        115.5027
359.08        114.7594
359.53        114.1012
359.98         113.501
360.43        112.9102
360.88        112.3009
361.33        111.6808
361.78        111.0488
362.23        110.3999
362.68         109.738
363.13        109.0714
363.58        108.3718
364.03         107.596
364.48        106.7461
364.93        105.8372
365.38        104.9565
365.83        104.2457
366.28        103.7188
366.73        103.3127
367.18        102.9172
367.63        102.3541
368.08        101.5901
368.53        100.7147
368.98        99.77714
369.43        98.83967
369.88        97.94006
370.33        97.05471
370.78        96.28003
371.23        95.78085
371.68        95.57338
372.13        95.60657
372.58        95.69829
373.03        95.53414
373.48        95.03754
373.93        94.30699
374.38        93.49564
374.83        92.84176
375.28        92.40613
375.72        92.09428
376.17        91.86224
376.62        91.61939
377.07         91.3186
377.52        90.97964
377.97        90.57811
378.42         90.0725
378.87        89.48315
379.32        88.83521
379.77        88.15067
380.22        87.50743
380.67        86.92373
381.11        86.17235
381.56        85.67888
382.01        85.27123
382.46        85.07443
382.91        85.06574
383.36         85.0643
383.81        84.77358
384.26        84.14745
384.71        83.27482
385.15        82.40086
385.60        81.97202
386.05        82.00458
386.50        82.34317
386.95        82.69266
387.40        82.56048
387.85        81.87871
388.29        80.84734
388.74         79.8291
389.19        79.01779
389.64          78.458
390.09         78.0155
390.54        77.75443
390.98        77.79149
391.43        78.10099
391.88        78.62543
392.33        79.04977
392.78        78.88169
393.23        78.10921
393.67        76.95152
394.12        75.87641
394.57        75.20071
395.02        75.06834
395.47        75.54264
395.91        76.43549
396.36        77.06834
396.81        77.27705
397.26        77.29572
397.71        77.13674
398.15        76.69522
398.60        76.11704
399.05        75.43694
399.50        74.76887
399.95        74.08569
400.39        73.75116
400.84        73.44788
401.29        73.23718
401.74        73.22013
402.18        73.32205
402.63         73.1356
403.08        72.81208
403.53         72.8877
403.97        73.37859
404.42        73.98565
404.87        74.45324
405.32        74.42036
405.76         73.8033
406.21        72.90781
406.66        72.01278
407.11        71.29631
407.55        70.99156
408.00        71.46201
408.45        72.45815
408.90        73.04578
409.34        72.93581
409.79        72.32524
410.24        71.49813
410.68        70.97572
411.13        70.87108
411.58        70.88114
412.03        70.98214
412.47        71.26629
412.92        71.64187
413.37        72.10718
413.81        72.49567
414.26        72.59377
414.71        72.34808
415.15        71.80722
415.60        71.15925
416.05        70.73714
416.49         70.6375
416.94        70.79321
417.39        71.01386
417.83        70.95361
418.28        70.55611
418.73        69.95367
419.17        69.39977
419.62          69.295
420.07        69.67166
420.51        70.37699
420.96        71.14684
421.41        71.48673
421.85        71.24689
422.30        70.85208
422.74        70.39429
423.19        69.73716
423.64        69.10056
424.08        69.32576
424.53        70.23553
424.98        70.73466
425.42        70.68781
425.87        70.79806
426.31        71.08434
426.76        71.01122
427.21        70.74596
427.65         70.9526
428.10        71.56487
428.54        72.19393
428.99        72.79684
429.44        73.04503
429.88        72.98438
430.33        73.80385
430.77        74.84087
431.22        73.76308
431.66        71.11568
432.11        69.72767
432.56        69.91171
433.00        70.46259
433.45        71.33551
433.89        73.44196
434.34        75.15852
434.78        76.60907
435.23         71.8479
435.67        69.90525
436.12        72.15838
436.57        73.54479
437.01         74.3881
437.46        74.67316
437.90        74.51346
438.35        74.32449
438.79        74.47127
439.24        74.36092
439.68        74.13513
440.13        73.77986
440.57        73.61252
441.02        74.52471
441.46        76.11324
441.91         77.0756
442.35        77.10645
442.80        76.18591
443.24         74.8138
443.69        75.34287
444.13        77.35556
444.58          77.307
445.02        75.43961
445.47        75.11368
445.91        76.24728
446.36        76.58508
446.80        76.05946
447.24        75.84308
447.69        76.00591
448.13        76.18137
448.58         76.3787
449.02        76.63528
449.47        76.92144
449.91        77.20811
450.36        77.47111
450.80        77.68203
451.25        77.79653
451.69        77.71986
452.13        77.47184
452.58        77.09968
453.02        76.71194
453.47        76.52226
453.91        76.55391
454.36        76.74762
454.80        77.00313
455.24        77.06405
455.69        76.89108
456.13        76.67502
456.58        76.50137
457.02        76.07305
457.46        75.60484
457.91         75.7376
458.35         76.3049
458.79        76.50266
459.24        76.29395
459.68        76.07123
460.13        75.87309
460.57        75.54836
461.01        75.18048
461.46        74.67135
461.90        74.05675
462.34        74.28287
462.79        74.05575
463.23        74.28048
463.68        74.49947
464.12        74.96666
464.56        75.48831
465.01         75.4987
465.45        75.01439
465.89        74.87279
466.34        74.90518
466.78        74.02264
467.22        72.77222
467.67        71.70672
468.11        73.06128
468.55        73.65002
468.99        73.79208
469.44        73.42901
469.88        72.77733
470.32         72.7505
470.77        73.25122
471.21        73.28835
471.65        72.81265
472.10         72.5412
472.54        72.53487
472.98        72.55292
473.42        72.58476
473.87        72.80386
474.31        73.07098
474.75        72.96971
475.20        72.60342
475.64        72.51475
476.08        72.70673
476.52        72.65642
476.97        72.35204
477.41        72.20217
477.85        72.34995
478.29        71.95105
478.74        73.01026
479.18        72.90086
479.62        71.74656
480.06        72.22571
480.50        72.63342
480.95        73.03547
481.39         72.9746
481.83        71.99226
482.27        72.10405
482.72        72.04639
483.16        70.65784
483.60         71.0145
484.04        72.62159
484.48        72.95851
484.93        72.48952
485.37        74.55431
485.81        75.02606
486.25        73.62033
486.69        101.6727
487.14        81.87787
487.58        50.43177
488.02        61.91124
488.46        70.39983
488.90        69.96471
489.34        70.84515
489.79        70.33135
490.23        72.13264
490.67        73.11173
491.11         72.1355
491.55        72.07701
491.99        72.50383
492.43        72.29961
492.88        71.58759
493.32         71.5761
493.76        71.74664
494.20        71.97974
494.64        72.01225
495.08        72.13664
495.52        72.37268
495.96        72.18584
496.41        71.64893
496.85        72.15429
497.29        73.32551
497.73         72.1641
498.17        69.73072
498.61         69.8221
499.05        72.45193
499.49        73.04337
499.93        73.09371
500.37        72.72223
500.82        71.91771
501.26        71.98461
501.70        72.65257
502.14        73.02456
502.58        72.90779
503.02        72.79019
503.46        72.65934
503.90        72.21551
504.34        71.63505
504.78        71.33744
505.22        71.37606
505.66         71.6803
506.10        72.13622
506.54        72.27847
506.98        71.97649
507.42        72.08515
507.86        71.98339
508.30        71.17561
508.74         71.7648
509.18        71.85593
509.62        72.04484
510.06        72.15951
510.50        72.18493
510.94         72.1377
511.38        72.03278
511.82        71.94629
512.26        71.89623
512.70        71.86243
513.14        71.85001
513.58        71.87281
514.02        71.92472
514.46        71.99754
514.90        72.07663
515.34        72.12202
515.78        72.11388
516.22        72.11996
516.66        72.13659
517.10        72.00027
517.54        71.71703
517.98         71.8748
518.42        71.69205
518.86        71.79665
519.30        71.94581
519.74        72.18561
520.18        72.45097
520.62        72.62653
521.06         72.6905
521.50        72.66993
521.93        72.59064
522.37        72.49598
522.81        72.41444
523.25        72.33891
523.69        72.29356
524.13         72.3167
524.57        72.40939
525.01        72.55672
525.45         72.7236
525.89        72.85077
526.32        72.90944
526.76        72.91044
527.20        72.85214
527.64         72.7646
528.08        72.68103
528.52        72.51115
528.96        72.25373
529.40        72.18465
529.83        72.31645
530.27        71.69576
530.71        71.79605
531.15        71.70364
531.59        71.85365
532.03        72.08402
532.46         72.3587
532.90        72.62646
533.34        72.83542
533.78        72.99416
534.22        73.07668
534.66        73.05653
535.09        72.92861
535.53        72.73103
535.97        72.50452
536.41        72.33678
536.85        72.25755
537.28        72.25344
537.72        72.29254
538.16        72.33143
538.60        72.35234
539.04        72.30836
539.47        72.21512
539.91        72.29034
540.35        72.45944
540.79          72.412
541.22        72.16861
541.66         72.0573
542.10          72.084
542.54        72.05464
542.97        71.99417
543.41         72.0521
543.85        72.22225
544.29        72.48984
544.72        72.71188
545.16        72.69814
545.60        72.41161
546.04        71.90031
546.47        71.40444
546.91        71.32583
547.35        71.71313
547.79        72.46391
548.22         73.2212
548.66        73.38673
549.10         72.8829
549.53        72.00651
549.97          71.134
550.41        70.68729
550.84        70.79413
551.28         71.3421
551.72        72.08023
552.15        72.54471
552.59        72.60343
553.03        72.43023
553.46        72.12063
553.90        71.93837
554.34        71.92922
554.77        71.98651
555.21        72.06985
555.65        72.05109
556.08        72.43468
556.52        71.91652
556.96        72.31051
557.39        72.20708
557.83        72.13487
558.27        72.03234
558.70        71.97016
559.14        72.06492
559.57        72.29338
560.01        72.60921
560.45        72.88452
560.88        72.98466
561.32         72.8751
561.75        72.45596
562.19        71.93111
562.63        71.56158
563.06        71.44534
563.50        71.67166
563.93         72.0877
564.37        72.33006
564.80        72.31384
565.24        72.25452
565.68        72.17294
566.11        72.06828
566.55         72.0182
566.98        71.92123
567.42        71.82158
567.85         72.0535
568.29        72.59393
568.72        72.64497
569.16        72.38437
569.60        73.25979
570.03        73.59305
570.47        73.74691
570.90        73.65028
571.34        71.72673
571.77        73.01009
572.21        73.00579
572.64        72.37292
573.08        71.56445
573.51        68.06478
573.95        70.81242
574.38        75.57507
574.82        73.52831
575.25        73.06212
575.69        70.76996
576.12        69.54553
576.56        68.50471
576.99        70.18227
577.42        73.53585
577.86        73.66055
578.29         72.8372
578.73        77.30984
579.16        71.03973
579.60        64.81805
580.03        67.10738
580.47         71.8187
580.90        73.63988
581.33        72.40294
581.77        71.27405
582.20        78.67917
582.64        78.50441
583.07         66.8452
583.51        65.39597
583.94        64.22108
584.37        67.09047
584.81        70.46481
585.24        74.13311
585.68        75.65885
586.11        74.72667
586.54        69.55904
586.98        67.14488
587.41        67.80706
587.85        71.77219
588.28        74.40308
588.71        70.92793
589.15        68.45359
589.58        69.72436
590.01        69.70466
590.45          70.803
590.88        71.79408
591.31        71.28377
591.75        70.55098
592.18         70.5016
592.61        72.09024
593.05        72.40682
593.48        75.99402
593.91        76.58183
594.35        70.45142
594.78        68.81277
595.21        68.27219
595.65        71.34026
596.08        74.37385
596.51        71.02066
596.94        69.31704
597.38        69.97166
597.81        72.88193
598.24        74.37133
598.68         73.1416
599.11        71.82993
599.54        74.64944
599.97        76.54202
600.41        71.06341
600.84        71.23138
601.27        72.60888
601.70        71.81348
602.14        71.63316
602.57        70.45809
603.00        70.79626
603.43        72.41937
603.87        73.96056
604.30        73.99564
604.73        71.63594
605.16        70.12385
605.60        71.11285
606.03        72.30881
606.46        73.50433
606.89        73.06355
607.32        70.79403
607.76         70.5285
608.19        72.89001
608.62        71.94766
609.05        70.66456
609.48        71.09988
609.92        70.94839
610.35        70.50432
610.78        72.78045
611.21        73.87921
611.64        70.35921
612.07        71.10841
612.50        71.51414
612.94        71.97336
613.37        71.41514
613.80        71.47346
614.23        71.98872
614.66        71.88586
615.09        72.13858
615.52        72.11072
615.96        71.92587
616.39        72.00759
616.82         71.1814
617.25        70.60522
617.68        71.55676
618.11          72.176
618.54        72.63902
618.97        72.10035
619.40        70.97482
619.84        70.96022
620.27        71.97206
620.70        72.58676
621.13        72.63174
621.56        72.04243
621.99        71.12283
622.42        72.00378
622.85        74.16922
623.28        73.50272
623.71        72.88642
624.14        72.84203
624.57        72.41982
625.00        72.05896
625.43        72.32481
625.86        71.69517
626.29         71.7747
626.72        72.52503
627.15        72.05254
627.58         72.2134
628.01        72.33138
628.44        72.50392
628.87        72.73731
629.30        73.03037
629.73        73.22964
630.16        73.63185
630.59        73.05479
631.02        72.59129
631.45        72.06517
631.88        71.72044
632.31        71.61877
632.74        71.71561
633.17        71.93018
633.60        72.08605
634.03        72.12878
634.46        72.10998
634.89        72.06133
635.32        72.03388
635.75        72.04671
636.18        72.06523
636.61        72.08192
637.04        72.10999
637.47        72.14646
637.89        72.15691
638.32        72.18852
638.75        72.17319
639.18        72.13226
639.61        72.07555
640.04        71.99825
640.47        71.89149
640.90        71.76562
641.33        71.62276
641.76        71.48492
642.18        71.49081
642.61        71.64993
643.04        71.75867
643.47        71.71951
643.90        72.31071
644.33         72.0146
644.76        72.05783
645.18        72.01639
645.61        71.94434
646.04         71.8466
646.47        71.71073
646.90        71.60674
647.33        71.60663
647.75        71.74012
648.18         71.9902
648.61        72.20183
649.04        72.20834
649.47        71.93842
649.89        71.18851
650.32        70.34317
650.75        70.22053
651.18        70.82095
651.61        71.55743
652.03        72.05795
652.46        72.03123
652.89        71.79254
653.32        71.13697
653.74        70.55775
654.17        71.72776
654.60        72.72554
655.03        70.29753
655.46         71.3689
655.88        75.15318
656.31        81.16434
656.74        187.2656
657.16        121.6674
657.59        42.59854
658.02        31.65077
658.45         54.0412
658.87        69.03683
659.30        72.77547
659.73        71.22237
660.15        68.55544
660.58        71.24487
661.01        73.20586
661.44        71.09122
661.86        70.31765
662.29        70.13509
662.72        71.02908
663.14        72.71581
663.57        72.54089
664.00        71.24573
664.42        70.92805
664.85        71.80637
665.27        72.32913
665.70        72.26839
666.13        72.10667
666.55        71.82089
666.98        71.27589
667.41        70.67825
667.83        70.42448
668.26        70.59502
668.69        71.03809
669.11        71.50551
669.54        71.93218
669.96        71.56672
670.39        71.10028
670.82        70.53903
671.24        70.21838
671.67        70.33606
672.09        70.62387
672.52        71.45993
672.94        72.03247
673.37        71.29012
673.80        71.05253
674.22        71.05448
674.65        71.00693
675.07        70.90121
675.50        70.76956
675.92         70.6591
676.35         70.6795
676.77         70.8391
677.20        71.02757
677.62        71.20061
678.05        71.29321
678.47        71.27517
678.90        71.17843
679.32        71.06294
679.75        70.89292
680.17        70.97194
680.60        71.05471
681.02        71.14433
681.45        71.08848
681.87        70.87847
682.30        70.55748
682.72        70.26665
683.15         70.2497
683.57        70.55926
684.00        71.01705
684.42         71.6014
684.85         71.9019
685.27        71.88036
685.70        71.63261
686.12        71.26363
686.54        70.99937
686.97        70.89469
687.39        70.86142
687.82        70.92068
688.24        70.97082
688.66        70.99487
689.09        71.01584
689.51        71.07139
689.94        71.18072
690.36        71.34601
690.78        71.55235
691.21        71.74433
691.63        71.80721
692.06        71.71704
692.48         71.6731
692.90        71.45168
693.33        71.38425
693.75        71.41511
694.17        71.53985
694.60        71.69464
695.02        71.77974
695.44        71.73956
695.87         71.7079
696.29        71.75992
696.71        71.60655
697.14        71.38808
697.56        71.95406
697.98        73.01592
698.41          72.799
698.83        72.05068
699.25        71.48566
699.68        71.41962
700.10         71.2796
700.52        71.10442
700.94        71.24471
701.37        71.61861
701.79        71.98318
702.21        72.24008
702.64        72.46743
703.06        72.59626
703.48        72.50549
703.90        72.20689
704.33        71.73838
704.75          71.237
705.17        71.01704
705.59        71.15665
706.01        71.45493
706.44        71.76381
706.86        72.45624
707.28        72.49622
707.70        72.68169
708.12        72.73576
708.55        72.68439
708.97        72.52634
709.39        72.26579
709.81        72.00705
710.23        71.91525
710.66        72.02988
711.08        72.34231
711.50        72.67641
711.92        72.75782
712.34        72.53078
712.76         72.0681
713.19          71.571
713.61        71.39932
714.03        71.62066
714.45        72.12428
714.87        72.67584
715.29        72.90375
715.71        72.72276
716.13        72.25589
716.56        71.70727
716.98        71.43497
717.40        71.52692
717.82        71.86847
718.24         72.3036
718.66        72.57289
719.08        72.59847
719.50        72.46075
719.92        72.23871
720.34        72.09213
720.76        72.07582
721.19        71.94544
721.61        72.04969
722.03        72.12729
722.45        72.26662
722.87        72.45914
723.29        72.67236
723.71        72.83549
724.13        72.92458
724.55        72.95612
724.97        72.94135
725.39        72.90923
725.81        72.87338
726.23        72.82324
726.65        72.78492
727.07        72.79646
727.49        72.86797
727.91        73.00687
728.33         73.1593
728.75        73.23003
729.17        73.19647
729.59        73.07236
730.01        72.96164
730.43        73.02339
730.85         73.2882
731.27        73.73218
731.69        74.18307
732.10        74.34074
732.52        74.14181
732.94        73.71774
733.36         73.3055
733.78        73.14942
734.20        73.31503
734.62        74.03058
735.04        74.99107
735.46        74.95241
735.88        74.13813
736.30         74.2793
736.72        75.34535
737.13        75.70483
737.55        75.14879
737.97        75.00265
738.39         75.3091
738.81        74.74964
739.23        73.71761
739.65        74.55762
740.06        76.76752
740.48        76.99914
740.90         75.3567
741.32        74.62047
741.74        75.03952
742.16        75.22308
742.57        75.22275
742.99        75.82687
743.41         76.8371
743.83        77.47632
744.25        77.60767
744.67        77.42712
745.08        77.12753
745.50        77.01878
745.92         77.2033
746.34        77.56588
746.75        77.96908
747.17        78.18092
747.59        78.16629
748.01        78.01073
748.42        77.87909
748.84        78.01585
749.26        78.47827
749.68        79.13169
750.09        79.82425
750.51        80.36366
750.93         80.6557
751.35        80.58432
751.76        80.24924
752.18        80.11016
752.60        80.13075
753.01        79.86658
753.43        79.44461
753.85        79.37306
754.27        79.69802
754.68         80.7118
755.10        81.28649
755.52         81.9855
755.93        82.40563
756.35        82.53608
756.77        82.56073
757.18        82.59367
757.60        82.66759
758.02        83.32223
758.43        84.13317
758.85        83.10709
759.26        80.89591
759.68        80.66509
760.10        82.27547
760.51        82.95932
760.93         82.3104
761.34         81.5438
761.76        80.94661
762.18         80.4513
762.59        80.26929
763.01        80.57325
763.42        81.34534
763.84        81.99812
764.26        82.44473
764.67        82.87313
765.09         83.1364
765.50        83.03954
765.92        82.53817
766.33        81.19975
766.75        79.58509
767.16        79.12298
767.58        79.97406
768.00        81.55128
768.41        83.40651
768.83        84.72037
769.24        84.96241
769.66        83.99507
770.07        82.41782
770.49        80.95433
770.90        79.98203
771.32          80.823
771.73        82.83128
772.15        82.31982
772.56         79.7692
772.97        79.44455
773.39        81.20898
773.80        81.81457
774.22        81.02357
774.63        80.82328
775.05        81.19916
775.46         81.3026
775.88        81.06266
776.29        80.73309
776.70        80.43353
777.12        80.38128
777.53        80.62949
777.95         81.0433
778.36        81.44211
778.77        81.51241
779.19        81.23171
779.60        80.70538
780.02        80.14721
780.43        80.01212
780.84        80.44932
781.26        80.76701
781.67        80.97186
782.09        82.27556
782.50        84.01125
782.91        83.11538
783.33        80.34064
783.74         79.4615
784.15        80.66377
784.57        81.51988
784.98        81.65705
785.39        81.70563
785.81        81.57446
786.22        80.94409
786.63         80.2069
787.04        80.09842
787.46         80.7039
787.87        81.79037
788.28         82.9767
788.70        83.60828
789.11        83.51148
789.52        82.90974
789.93        82.11403
790.35        81.54921
790.76        81.34731
791.17        81.44095
791.58        81.67911
792.00        81.72947
792.41        81.50211
792.82        81.22231
793.23        81.11712
793.65        80.89397
794.06        80.83418
794.47        82.35084
794.88        84.53388
795.29        84.28493
795.71        81.81047
796.12        79.40324
796.53         77.8529
796.94        77.41076
797.35        78.16573
797.76        79.49403
798.18        80.77485
798.59        81.72783
799.00        81.99577
799.41        81.28596
799.82        80.04528
800.23         79.3368
800.64        79.37349
801.06        79.74086
801.47         80.2969
801.88        80.71149
802.29        80.84892
802.70        80.86121
803.11        80.77818
803.52        80.60721
803.93        80.39672
804.34        80.11162
804.75        79.85648
805.17        79.90995
805.58        80.35549
805.99        80.80206
806.40        81.09069
806.81        81.73459
807.22        82.27832
807.63        81.03755
808.04        78.66003
808.45        77.66707
808.86        78.29781
809.27        79.31992
809.68        80.27411
810.09        80.83546
810.50         80.7675
810.91        80.19733
811.32        79.41944
811.73        78.90567
812.14         78.7945
812.55        78.90799
812.96        79.18195
813.37        79.49461
813.78        79.76943
814.19        80.10624
814.60        80.32399
815.01        80.12402
815.42         79.4855
815.83         78.4455
816.24        77.42169
816.65        77.15546
817.05        77.85909
817.46        79.29851
817.87        80.87945
818.28         81.5307
818.69        80.97018
819.10        79.45655
819.51        77.72356
819.92        77.01609
820.33        77.64546
820.74        79.23813
821.14        81.03421
821.55        81.69109
821.96        80.92738
822.37        79.21272
822.78        77.28185
823.19        76.21886
823.60        76.31051
824.00        77.27522
824.41        78.59975
824.82        79.49368
825.23        79.62708
825.64        79.27009
826.04        78.69985
826.45         78.3168
826.86        78.23798
827.27        78.28453
827.68        78.36904
828.08        78.41193
828.49        78.31029
828.90        78.18709
829.31        78.02304
829.72         77.7539
830.12        77.42395
830.53        77.03365
830.94        76.75227
831.35        76.80374
831.75        77.25825
832.16        77.99001
832.57        78.84098
832.97        79.45623
833.38        79.63784
833.79        79.46825
834.20        79.12899
834.60        78.90559
835.01        78.89902
835.42        79.02099
835.82        79.11752
836.23        78.85238
836.64        78.21539
837.04        77.36401
837.45        76.55983
837.86        76.20502
838.26        76.40147
838.67        76.98464
839.08        77.76579
839.48          78.391
839.89        78.68079
840.29         78.7336
840.70        78.58859
841.11        78.29826
841.51        77.91968
841.92        77.41698
842.33        76.91056
842.73        76.61995
843.14        76.56468
843.54        76.74812
843.95        77.00969
844.35        77.12661
844.76        77.02411
845.17        76.78267
845.57        76.50986
845.98        76.38746
846.38        76.45589
846.79        76.61366
847.19        76.82419
847.60        76.93756
848.00        76.94502
848.41        76.88069
848.81        76.76759
849.22        76.55448
849.62        76.30914
850.03        76.05184
850.43        75.92766
850.84        76.11246
851.24         76.6779
851.65         77.3686
852.05         78.1971
852.46        78.99728
852.86         79.6843
853.27        80.33893
853.67        80.49896
854.07        79.58786
854.48        77.69897
854.88        75.05864
855.29        72.60202
855.69        71.68959
856.10        72.57833
856.50        75.10394
856.90        78.38205
857.31        80.33411
857.71        80.26576
858.12        78.69227
858.52        76.58947
858.92        75.26173
859.33        74.99966
859.73        75.44686
860.13        76.32945
860.54        77.08859
860.94        77.55051
861.34        77.87956
861.75        78.13166
862.15        78.45954
862.55        78.85825
862.96        79.20715
863.36        79.47652
863.76        79.61517
864.17         79.6115
864.57        79.56213
864.97        79.49349
865.38        79.42506
865.78         79.4167
866.18        79.37544
866.58        79.37912
866.99        79.54519
867.39        79.94088
867.79        80.58826
868.19        81.14375
868.60        80.95941
869.00        79.93422
869.40        78.27058
869.80        76.80881
870.21        76.86069
870.61        78.76687
871.01        82.10059
871.41        85.81365
871.81        88.10673
872.22        88.45836
872.62        87.38115
873.02        85.75214
873.42        85.10379
873.82        85.66553
874.22        86.69561
874.63        87.82041
875.03        88.32417
875.43        87.83499
875.83        87.43515
876.23        85.99448
876.63        85.39745
877.03        85.61351
877.44        86.80108
877.84        103.2541
878.24        93.03308
878.64        93.37036
879.04        93.23202
879.44        89.86763
879.84        88.24519
880.24        91.55353
880.64        93.38354
881.04        94.32835
881.44        94.58022
881.84        93.60152
882.24        91.76937
882.65        90.04395
883.05        89.31188
883.45        89.72358
883.85        91.24346
884.25        93.34293
884.65         94.8252
885.05        95.25309
885.45        94.96658
885.85        94.41203
886.25        94.22793
886.65         94.5733
887.05        95.20811
887.45        95.90298
887.85         96.2836
888.25        96.21889
888.65         95.8868
889.04        95.42081
889.44        95.04262
889.84        94.81831
890.24        94.66985
890.64        94.61299
891.04        94.68655
891.44        94.86444
891.84          95.141
892.24        95.39626
892.64        95.39352
893.04        95.12253
893.44        94.72533
893.83        94.33333
894.23        94.15714
894.63        94.22587
895.03         94.4073
895.43        94.81014
895.83        95.60696
896.23        96.74627
896.63        98.17977
897.02         99.3268
897.42        99.25326
897.82        97.85645
898.22        95.47733
898.62        93.03568
899.01        91.87763
899.41         92.2887
899.81        93.81677
900.21        95.71902
900.61          96.785
901.00        96.67065
901.40        95.76588
901.80        94.57844
902.20        93.88719
902.59        93.92348
902.99         94.4389
903.39        95.10762
903.79        95.39241
904.18        95.15081
904.58         94.6274
904.98        94.16247
905.38        94.26512
905.77        94.98085
906.17        96.04215
906.57         97.1113
906.96        97.76074
907.36        97.82133
907.76        97.47966
908.15         96.8129
908.55        95.83363
908.95         94.6988
909.34        93.40466
909.74        92.29366
910.14        91.71408
910.53        91.76515
910.93        92.42079
911.33        93.44765
911.72        94.39028
912.12        94.97014
912.52        95.20113
912.91        95.27995
913.31        95.50268
913.70        95.97539
914.10        96.63609
914.49        97.12611
914.89        96.57458
915.29        94.88525
915.68        92.46646
916.08        90.43453
916.47        89.78166
916.87        90.55752
917.26        92.42514
917.66          94.484
918.05        95.26289
918.45         94.3882
918.84        92.38783
919.24         90.1961
919.64        89.18207
920.03        89.71393
920.42        91.34633
920.82        93.48262
921.21        95.20686
921.61        95.97133
922.00        96.08627
922.40        95.65645
922.79        94.82245
923.19        93.75569
923.58        92.32235
923.98        90.65057
924.37        89.46597
924.77        89.26288
925.16        87.76814
925.55        89.07874
925.95        90.00018
926.34        91.64095
926.74         93.5668
927.13        95.43577
927.52          96.405
927.92        96.35812
928.31         95.5629
928.70        94.16791
929.10         92.4882
929.49        90.68503
929.89        88.75289
930.28        87.29253
930.67        87.29585
931.07        88.79634
931.46        91.58079
931.85        94.49008
932.24        95.76345
932.64        95.01875
933.03        92.56329
933.42        89.25999
933.82        87.04531
934.21        86.51347
934.60        87.14532
934.99        88.05791
935.39         88.2754
935.78        87.64209
936.17        86.07053
936.56        83.55227
936.96        84.17887
937.35         83.4987
937.74        84.86989
938.13          86.307
938.53        87.76099
938.92        89.29348
939.31          91.141
939.70        92.91054
940.09        93.38968
940.49        92.26141
940.88        90.03984
941.27        87.76118
941.66         86.6613
942.05        86.88687
942.44        88.05848
942.84        89.69655
943.23        91.01581
943.62        91.59966
944.01         91.6471
944.40        91.28197
944.79        90.69073
945.18         89.9359
945.57        88.88422
945.97        87.53533
946.36        86.12946
946.75        85.00565
947.14         84.3122
947.53        84.05978
947.92        84.13829
948.31        84.48692
948.70        85.15296
949.09        86.03844
949.48        86.85489
949.87        87.40755
950.26        87.62735
950.65        87.70839
951.04         88.0359
951.43        88.66959
951.82         89.4847
952.21        90.05328
952.60        89.71664
952.99        88.38569
953.38        86.32188
953.77        84.17735
954.16        82.86753
954.55        82.59412
954.94        83.18938
955.33        84.00523
955.72        83.93137
956.11        82.71531
956.50        80.64635
956.89        78.66076
957.28        78.45924
957.66        80.53404
958.05          84.073
958.44        87.82732
958.83          89.968
959.22        90.04006
959.61        88.52695
960.00        86.24623
960.39        84.55428
960.78        83.88147
961.16        83.87125
961.55        83.98344
961.94        83.32034
962.33        81.74097
962.72        79.77232
963.11        77.98314
963.49        77.01729
963.88        76.98373
964.27         77.6708
964.66        78.85298
965.04        80.03738
965.43         80.8064
965.82        81.26399
966.21        81.49002
966.60        81.65643
966.98        81.85612
967.37        81.97249
967.76        81.95461
968.15        81.74177
968.53         81.3408
968.92        80.76366
969.31        80.19986
969.69        79.83562
970.08        79.70454
970.47         79.8172
970.86        79.88599
971.24         79.4036
971.63         78.2556
972.02        76.54199
972.40        74.88799
972.79        74.40749
973.17        75.50837
973.56        77.83572
973.95        80.51839
974.33        81.83678
974.72        81.22034
975.11        79.24357
975.49        76.97282
975.88        75.86802
976.26        76.16371
976.65        77.50529
977.04        79.15968
977.42        79.36015
977.81        77.51712
978.19        74.41756
978.58        71.69831
978.96        70.93362
979.35        72.35396
979.74        75.57301
980.12        79.96513
980.51        83.00603
980.89        83.85138
981.28        83.03188
981.66        81.41203
982.05        80.11639
982.43        79.42769
982.82        79.02323
983.20         78.9656
983.59        79.43681
983.97        80.50462
984.35        82.21701
984.74        84.14539
985.12        85.52475
985.51        85.70748
985.89        84.77693
986.28        82.99998
986.66        80.77898
987.04        78.71828
987.43        76.97158
987.81        75.61886
988.20        74.64886
988.58        73.89896
988.96        73.13682
989.35        72.71542
989.73        73.78094
990.12        76.36213
990.50        79.82333
990.88        81.87991
991.27        80.87795
991.65        77.28564
992.03        71.56474
992.42        65.81327
992.80         63.8476
993.18        66.56569
993.56        71.73709
993.95        77.12319
994.33        80.74702
994.71        82.17088
995.10        82.37168
995.48        81.49635
995.86        79.53965
996.24        76.61105
996.63        72.30788
997.01        67.56602
997.39        65.45493
997.77        67.30487
998.15        72.57902
998.54        78.35466
998.92        80.57658
999.30        78.03947
999.68        71.76247
1000.06         63.6029
1000.45        58.09982
1000.83        57.00597
1001.21         58.7405
1001.59        61.89674
1001.97        65.10519
1002.35         68.0468
1002.73         71.6328
1003.12        74.92822
1003.50        74.93011
1003.88        70.61022
1004.26        63.60516
1004.64         57.1348
1005.02        53.86045
1005.40        53.90231
1005.78        57.08994
1006.16        64.08646
1006.54        71.94735
1006.92        75.82523
1007.30        76.11653
1007.69        74.88054
1008.07         73.8216
1008.45        72.88663
1008.83         71.0238
1009.21        65.00381
1009.59        42.20874
1009.97       -24.73396
1010.35       -119.3106
1010.73       -103.2159
1011.11       -42.12009
1011.49        2.128076
1011.86        33.08587
1012.24         51.0296
1012.62        60.04107
1013.00        64.19474
1013.38        65.70189
1013.76        66.53227
1014.14        71.35589
1014.52        83.39661
1014.90        102.4237
1015.28        122.9674
1015.66        131.7851
1016.04        120.9802
1016.41        93.93494
1016.79        64.26923
1017.17         45.6968
1017.55        39.27872
1017.93        38.78574
1018.31        40.96729
1018.69        44.62247
1019.06        49.75236
1019.44         57.0178
1019.82        68.33654
1020.20        84.03574
1020.58        103.5548
1020.95        128.5296
1021.33        160.6682
1021.71       -173.2132
1022.09        102.3471
1022.46        121.8656
1022.84        131.7633
1023.22        143.0766
1023.60        168.5068
1023.97        406.9116
1024.35        4.379997
1024.73        48.55152
