SpectraSmart Spectrum 2.9.0.0
--------- Device Information -----------
Spectrum Name :  反射率_0
Saving Time :  2024/04/26 01:38:32
Spectro-Module Model Name : SE2030-DUVN
Spectro-Module Serial Number : OS361AC55029948
Wavelength Start : 200
Wavelength End : 1025
Wavelength Unit : Wavelength(nm)
Spectrum Unit : Reflectance(%)
-----------Spectrum Setting ------------
Integration Time : 20ms
Average : 10
Boxcar : 0
Background removal :  enabled
linearity correction :  enabled
SC :  disabled
Intensity correction :  disabled
DWT denoise :  enabled
savitzky-golay :  disabled
FFT :  disabled
Running average :  disabled
Kalman :  disabled
High pass :  disabled
---------------BEGIN--------------------
Wavelength(nm)             Reflectance(%)
200.29               0
200.75        94.65105
201.21        82.82972
201.67        69.45393
202.13        61.05495
202.58        58.38898
203.04        59.82385
203.50        63.62308
203.96         66.6547
204.42        67.71561
204.88        67.86962
205.34        67.67356
205.80        67.63162
206.26        68.04758
206.72        68.93938
207.18        70.48819
207.64         72.0061
208.10        71.19312
208.55        68.72137
209.01        67.46005
209.47         68.1639
209.93        70.28442
210.39        73.97509
210.85        77.10928
211.31        75.08147
211.77        67.11054
212.23        55.10357
212.69        44.18265
213.14        42.24318
213.60        50.35205
214.06        66.25032
214.52        83.99336
214.98        94.29147
215.44        94.81081
215.90        88.53966
216.36         79.4455
216.81         73.1385
217.27        71.26199
217.73        71.81076
218.19        72.43769
218.65        70.01003
219.11         63.2494
219.57        51.69702
220.02        36.61128
220.48        26.49161
220.94        26.76126
221.40        35.67357
221.86        45.47819
222.32         47.8138
222.77        43.11107
223.23        35.46275
223.69        29.09217
224.15        28.33548
224.61        32.65965
225.06        39.84769
225.52        46.60876
225.98        48.83683
226.44        45.91904
226.90        39.79863
227.36        32.99314
227.81        28.83504
228.27        28.39729
228.73        30.41864
229.19        33.72781
229.65        36.57244
230.10        38.31621
230.56        39.39809
231.02        40.21743
231.48        41.21827
231.93        42.42279
232.39        43.59744
232.85        44.37524
233.31        44.27147
233.77          43.208
234.22        41.37864
234.68        39.22138
235.14        37.56697
235.60        36.80454
236.05        36.79412
236.51        37.25354
236.97        37.66926
237.43        37.92204
237.88        38.27324
238.34        38.80273
238.80        39.68919
239.26        40.93615
239.71        42.34662
240.17         43.8192
240.63        45.78931
241.08        48.30891
241.54        51.09354
242.00        53.67049
242.46        55.54303
242.91        56.88851
243.37        57.82792
243.83        60.23064
244.28        76.25185
244.74        111.0694
245.20        112.3965
245.66        103.6123
246.11         100.661
246.57        102.0953
247.03        109.5166
247.48        129.7567
247.94        110.8411
248.40        87.11465
248.85        80.73447
249.31        79.89114
249.77        81.78156
250.22        85.89548
250.68        92.85843
251.14        102.3085
251.59        107.3288
252.05        101.6936
252.51        89.16939
252.96        76.02679
253.42        67.73816
253.88        63.75446
254.33        62.28707
254.79        63.59394
255.25        67.35471
255.70        72.29869
256.16        77.80588
256.62        81.66019
257.07        81.67706
257.53        78.69122
257.99        73.51881
258.44        68.11413
258.90        65.62615
259.35        65.24761
259.81        65.83834
260.27        65.52216
260.72        62.49237
261.18        57.53398
261.63        51.54568
262.09        46.17869
262.55         42.6957
263.00         41.0256
263.46        40.54921
263.91        40.32399
264.37        39.60116
264.83        38.19702
265.28        36.28437
265.74        34.41525
266.19        33.17821
266.65        32.76118
267.11        32.82228
267.56        32.84468
268.02        32.19549
268.47        30.77927
268.93        28.82515
269.38        26.72941
269.84        25.40692
270.30        25.09642
270.75        25.53294
271.21        26.20447
271.66        26.34597
272.12        25.75282
272.57        24.66663
273.03        23.46724
273.48        22.65078
273.94        22.35839
274.39        22.37562
274.85        22.44438
275.31        22.19842
275.76        21.55876
276.22        20.69542
276.67        19.80606
277.13        19.23919
277.58        19.01486
278.04        19.02323
278.49        19.04445
278.95        18.81513
279.40        18.27249
279.86        17.56492
280.31        16.81665
280.77        16.30316
281.22        16.04726
281.68        15.96938
282.13        15.96599
282.59        15.91081
283.04          15.767
283.50        15.59936
283.95        15.40723
284.41        15.19365
284.86        14.96621
285.32        14.72243
285.77        14.52217
286.22        14.50924
286.68        14.67371
287.13        14.95666
287.59        15.20669
288.04        15.20208
288.50        14.92521
288.95        14.44248
289.41        13.92097
289.86        13.52483
290.32        13.34469
290.77        13.31745
291.22        13.41029
291.68        13.53667
292.13        13.67803
292.59        13.86056
293.04        14.11222
293.50        14.47151
293.95        14.92722
294.40        15.42867
294.86         15.9167
295.31        16.31925
295.77        16.62614
296.22        16.87264
296.68        17.08512
297.13        17.27799
297.58        17.48927
298.04        17.73237
298.49        18.07349
298.95        18.64373
299.40        19.44867
299.85        20.44706
300.31        21.50767
300.76        22.42972
301.21        23.14533
301.67        23.72997
302.12        24.24901
302.58        24.85094
303.03        25.56726
303.48        26.37008
303.94          27.281
304.39        28.29821
304.84        29.41951
305.30        30.64558
305.75        31.90143
306.20        33.07237
306.66        34.15112
307.11        35.14524
307.57        36.14772
308.02        37.23295
308.47        38.46315
308.93        39.82005
309.38        41.27584
309.83        42.81096
310.29        44.38913
310.74        45.98645
311.19        47.58173
311.65        49.15627
312.10         50.7034
312.55        52.23077
313.00        53.69562
313.46         55.0276
313.91        56.19043
314.36        57.20353
314.82        58.17927
315.27        59.27756
315.72        60.56427
316.18        62.00141
316.63        63.48246
317.08        64.78313
317.53        65.83025
317.99        66.66463
318.44        67.42877
318.89        68.36938
319.35        69.52533
319.80        70.84119
320.25         72.0928
320.70        72.90285
321.16        73.19175
321.61        73.09095
322.06        72.87144
322.51        72.96555
322.97        73.46793
323.42        74.27879
323.87        75.20544
324.32        75.90628
324.78        76.26111
325.23        76.41315
325.68        76.44052
326.13        76.49208
326.59        76.61496
327.04        76.78278
327.49        77.02409
327.94        77.42004
328.39        77.97429
328.85        78.66024
329.30         79.4099
329.75        79.95314
330.20        80.23277
330.66        80.29652
331.11        80.34573
331.56        80.64391
332.01        81.27599
332.46        82.15681
332.92        83.13293
333.37        84.08006
333.82        84.84632
334.27        85.47552
334.72         85.9519
335.17        86.26176
335.63        86.42817
336.08        86.49329
336.53        86.53429
336.98        86.72334
337.43        87.10798
337.88        87.64294
338.34        88.28342
338.79        89.03079
339.24        89.81777
339.69         90.6677
340.14        91.43452
340.59         91.8661
341.05        91.92571
341.50         91.6725
341.95        91.38387
342.40        91.49759
342.85        92.10275
343.30        93.08509
343.75        94.15924
344.20        94.81489
344.66        94.92143
345.11        94.62122
345.56        94.18442
346.01        94.01949
346.46        94.23221
346.91        94.68906
347.36        95.21837
347.81        95.56203
348.26        95.65619
348.72         95.6143
349.17        95.52546
349.62        95.57799
350.07        95.81371
350.52        96.14763
350.97        96.49134
351.42        96.72543
351.87        96.81363
352.32        96.79994
352.77        96.70627
353.22        96.56393
353.67         96.3931
354.13        96.19532
354.58        95.96989
355.03        95.77615
355.48        95.61825
355.93        95.48264
356.38        95.32754
356.83        95.08041
357.28        94.72499
357.73        94.28814
358.18        93.79823
358.63        93.30093
359.08        92.81909
359.53        92.34629
359.98        91.88927
360.43        91.45753
360.88        91.04209
361.33        90.62926
361.78        90.20959
362.23        89.76657
362.68        89.29907
363.13        88.82764
363.58        88.32164
364.03        87.73072
364.48        87.05917
364.93        86.32208
365.38        85.62415
365.83        85.13502
366.28        84.87411
366.73        84.77451
367.18        84.69066
367.63        84.38544
368.08        83.80799
368.53         83.0526
368.98         82.2205
369.43        81.46101
369.88        80.82603
370.33        80.26752
370.78        79.80301
371.23        79.46378
371.68        79.24158
372.13        79.13656
372.58         79.0647
373.03        78.87531
373.48        78.53677
373.93        78.08959
374.38        77.62341
374.83         77.2809
375.28        77.08929
375.72        76.98492
376.17         76.9188
376.62        76.78589
377.07        76.54663
377.52        76.22221
377.97        75.83379
378.42        75.41601
378.87        74.99461
379.32        74.58135
379.77        74.16077
380.22        73.70329
380.67        73.20571
381.11        72.67785
381.56        72.19279
382.01        71.87241
382.46        71.74653
382.91        71.79646
383.36        71.88033
383.81        71.77279
384.26        71.42989
384.71        70.90152
385.15        70.36677
385.60        70.16505
386.05        70.30059
386.50        70.65691
386.95        70.97211
387.40        70.81255
387.85        70.13554
388.29        69.12975
388.74        68.16077
389.19        67.46768
389.64        67.09653
390.09         66.9167
390.54        66.92304
390.98        67.10392
391.43        67.40427
391.88        67.80901
392.33        68.12198
392.78        67.97579
393.23        67.36597
393.67        66.56055
394.12        65.91746
394.57        65.18629
395.02        65.14983
395.47        65.56882
395.91        66.46442
396.36        67.05985
396.81        67.20831
397.26        67.20184
397.71        67.07424
398.15        66.72574
398.60        66.28433
399.05        65.82399
399.50        65.38521
399.95        64.78381
400.39        64.37483
400.84        64.06837
401.29        63.95813
401.74        64.08448
402.18        64.35831
402.63        64.36966
403.08        64.21419
403.53        64.37938
403.97         64.8611
404.42        65.34011
404.87        65.64578
405.32        65.56446
405.76        65.04079
406.21        64.39904
406.66        63.79337
407.11        63.05778
407.55         62.4756
408.00        62.84165
408.45        63.96417
408.90        64.66358
409.34        64.64737
409.79        64.24828
410.24         63.7076
410.68        63.42906
411.13        63.50479
411.58        63.65505
412.03        63.83854
412.47        64.12128
412.92        64.42219
413.37        64.75279
413.81        64.99814
414.26        65.02325
414.71        64.79906
415.15        64.35631
415.60        63.87155
416.05        63.65311
416.49        63.77812
416.94         64.1838
417.39        64.64465
417.83         64.7551
418.28        64.44524
418.73        63.85972
419.17        63.29427
419.62        63.21608
420.07        63.67599
420.51        64.50326
420.96        65.41846
421.41        65.87777
421.85        65.71891
422.30        65.42147
422.74        65.07201
423.19        64.43627
423.64        63.77716
424.08        64.11186
424.53        65.26976
424.98        65.95314
425.42        65.99849
425.87        66.31126
426.31        66.85635
426.76        66.76482
427.21        66.27983
427.65        66.55377
428.10        67.50887
428.54        68.27983
428.99        68.80519
429.44        69.11449
429.88        69.20997
430.33        69.92969
430.77        70.68719
431.22        69.54032
431.66        67.06754
432.11          65.781
432.56        65.97192
433.00         66.9305
433.45        68.52058
433.89        70.46837
434.34        71.22147
434.78        73.31906
435.23        68.79134
435.67        67.01263
436.12        69.53781
436.57         70.8007
437.01        71.35781
437.46        71.69601
437.90        72.05408
438.35        71.03426
438.79        71.76967
439.24        71.59662
439.68        71.46406
440.13        71.29008
440.57        71.35241
441.02        72.28415
441.46        73.70496
441.91        74.74231
442.35        75.02606
442.80        74.10452
443.24        72.52673
443.69        73.00108
444.13        75.13259
444.58        75.18384
445.02        73.38304
445.47        73.15799
445.91        74.41377
446.36        74.85658
446.80         74.4096
447.24        74.23564
447.69        74.42509
448.13        74.68024
448.58        75.02055
449.02        75.39426
449.47        75.74384
449.91        76.16298
450.36        76.54194
450.80        76.50509
451.25         76.1465
451.69        75.91177
452.13        75.86611
452.58        75.78252
453.02        75.67264
453.47        75.68005
453.91        75.76261
454.36        75.96401
454.80        76.25137
455.24        76.16055
455.69         75.5987
456.13         75.8972
456.58        75.58747
457.02         74.9313
457.46        74.47971
457.91        75.33798
458.35        75.91007
458.79        76.35796
459.24        76.16659
459.68        75.88255
460.13        75.57154
460.57        75.13956
461.01        74.71113
461.46        74.14383
461.90        73.48547
462.34        73.79084
462.79        73.58718
463.23        73.94638
463.68        74.32648
464.12        74.79705
464.56        75.20145
465.01        75.28519
465.45        74.98429
465.89        74.79372
466.34        74.62202
466.78        73.60741
467.22        72.31626
467.67        71.73398
468.11        73.18362
468.55        73.94576
468.99        74.05914
469.44        73.71651
469.88        73.12958
470.32        73.04733
470.77        73.40932
471.21         73.3644
471.65        72.88636
472.10         72.6496
472.54        72.68926
472.98        72.72594
473.42        72.74802
473.87        72.93505
474.31        73.15659
474.75         73.0635
475.20        72.76626
475.64        72.54778
476.08        73.00742
476.52        72.95046
476.97        72.48895
477.41        72.85287
477.85         72.9081
478.29        72.33958
478.74        73.50999
479.18        73.12021
479.62        72.21212
480.06        72.65083
480.50        72.93055
480.95        73.30193
481.39        73.35626
481.83        72.28017
482.27        72.16353
482.72        72.63966
483.16        71.15739
483.60        71.23248
484.04        73.06573
484.48         73.4462
484.93        73.18573
485.37        74.73338
485.81        75.31049
486.25        74.16035
486.69        100.9923
487.14        82.11663
487.58        50.68355
488.02        62.21777
488.46        70.71457
488.90        70.37496
489.34        72.08316
489.79        70.86971
490.23        72.91113
490.67        73.85962
491.11        73.19128
491.55        73.12873
491.99        73.26366
492.43        72.93498
492.88        72.26879
493.32        72.24699
493.76        72.35702
494.20        72.60426
494.64          72.729
495.08        73.01653
495.52        73.41931
495.96        73.27285
496.41        72.66606
496.85        73.04638
497.29        74.10655
497.73        73.08138
498.17        70.93622
498.61         70.9853
499.05        73.29793
499.49        73.82069
499.93        74.08486
500.37        73.89979
500.82        73.16669
501.26        73.05894
501.70        73.39915
502.14        73.76826
502.58        73.93376
503.02        73.88146
503.46        73.58257
503.90        73.03828
504.34        72.47501
504.78        72.24202
505.22        72.39159
505.66        72.88709
506.10        73.54136
506.54        73.78023
506.98         73.4455
507.42        73.60017
507.86        72.90883
508.30        72.57813
508.74        72.71626
509.18        72.88475
509.62        73.11304
510.06        73.22194
510.50        73.21236
510.94        73.10241
511.38        72.97044
511.82        72.92244
512.26        72.98518
512.70        73.11929
513.14        73.27219
513.58        73.36816
514.02        73.37988
514.46        73.32518
514.90         73.2514
515.34        73.21759
515.78        73.22832
516.22        73.32059
516.66        73.43961
517.10         73.3439
517.54        73.01931
517.98        73.06172
518.42        72.76895
518.86        72.80849
519.30        72.96449
519.74        73.25536
520.18        73.59649
520.62        73.84475
521.06        73.96347
521.50        73.98627
521.93        73.93302
522.37        73.83611
522.81        73.72547
523.25        73.59972
523.69        73.49487
524.13        73.46773
524.57        73.52956
525.01        73.66705
525.45        73.85098
525.89         74.0284
526.32        74.16593
526.76        74.26448
527.20        74.31187
527.64        74.31811
528.08         74.3054
528.52        74.19728
528.96         73.9754
529.40        73.86146
529.83        73.88984
530.27        73.18343
530.71        73.25758
531.15        73.12585
531.59         73.2368
532.03        73.46252
532.46        73.76927
532.90        74.08432
533.34        74.34691
533.78         74.5695
534.22        74.69717
534.66        74.66113
535.09        74.45253
535.53         74.1224
535.97        73.75488
536.41         73.5085
536.85        73.43037
537.28        73.48973
537.72         73.6143
538.16        73.69373
538.60        73.69502
539.04        73.58916
539.47        73.42286
539.91        73.49364
540.35        73.74101
540.79        73.76824
541.22          73.548
541.66         73.6315
542.10        73.54974
542.54        73.49437
542.97        73.37704
543.41        73.39919
543.85        73.56082
544.29        73.83408
544.72        74.07457
545.16        74.07836
545.60        73.81032
546.04        73.33315
546.47        72.86806
546.91        72.80694
547.35        73.20045
547.79        73.88074
548.22        74.55288
548.66        74.86408
549.10        74.67132
549.53        73.91549
549.97        72.95512
550.41        72.46045
550.84        72.56204
551.28         72.9865
551.72        73.53576
552.15         73.9202
552.59        74.01967
553.03        73.97811
553.46        73.87525
553.90        73.75092
554.34        73.61518
554.77        73.94558
555.21        73.65392
555.65        73.77557
556.08        74.03054
556.52         73.5217
556.96        73.94775
557.39        73.80737
557.83        73.67474
558.27         73.6748
558.70        73.82892
559.14        73.92937
559.57        73.96976
560.01        74.23563
560.45        74.61012
560.88        74.67594
561.32        74.44418
561.75        74.14762
562.19         73.8951
562.63        73.53723
563.06         73.2029
563.50        73.25267
563.93        73.59704
564.37        73.94518
564.80        74.13389
565.24        74.04114
565.68        73.74495
566.11         73.6284
566.55        73.77198
566.98        73.87608
567.42        73.93011
567.85        74.14478
568.29         74.5154
568.72        74.54472
569.16        74.42845
569.60        74.97412
570.03        75.38109
570.47        75.37125
570.90         75.1763
571.34        73.37469
571.77        74.13537
572.21        74.79768
572.64        73.99374
573.08        72.86835
573.51        69.74062
573.95        72.44984
574.38         77.1611
574.82        74.83333
575.25        74.50476
575.69         72.2744
576.12        71.03575
576.56        69.95767
576.99        71.89233
577.42        75.15545
577.86        74.85863
578.29        74.53717
578.73        78.44583
579.16        72.20736
579.60         66.0097
580.03        68.90375
580.47        73.49323
580.90        75.23097
581.33        73.76046
581.77        73.07191
582.20        80.57994
582.64        80.14447
583.07        68.59021
583.51        67.07363
583.94        65.50792
584.37         68.4314
584.81        72.08258
585.24        76.04825
585.68        77.67188
586.11        76.62834
586.54        71.23313
586.98        68.58341
587.41        68.94714
587.85        72.97624
588.28        76.02992
588.71        72.25436
589.15        69.67033
589.58        71.55804
590.01        71.67444
590.45        72.41922
590.88        73.65771
591.31        72.92007
591.75        72.35224
592.18        72.25891
592.61        73.77975
593.05        73.90547
593.48         77.5055
593.91        78.30155
594.35        72.22205
594.78        70.66257
595.21        70.00597
595.65        73.04173
596.08        75.93715
596.51        73.07547
596.94        70.95155
597.38        71.60362
597.81        74.41222
598.24        76.36938
598.68        74.57379
599.11        73.47292
599.54        76.93148
599.97        78.01284
600.41        73.04288
600.84        73.08665
601.27        74.46394
601.70        73.63363
602.14        73.50948
602.57        72.33339
603.00        72.59219
603.43        74.46404
603.87        76.26086
604.30        75.86492
604.73        73.46537
605.16         72.3341
605.60         73.0603
606.03        74.15984
606.46        75.06746
606.89        74.75742
607.32        72.69201
607.76        72.54667
608.19        75.00792
608.62        74.12148
609.05        72.97646
609.48        73.46389
609.92        73.19331
610.35        72.79426
610.78        75.19511
611.21        76.06147
611.64        72.52081
612.07        73.21061
612.50        73.59937
612.94        74.00884
613.37         73.3324
613.80        73.43816
614.23        74.02704
614.66        73.75277
615.09        74.20659
615.52        74.33979
615.96        74.39606
616.39        74.59282
616.82        73.68248
617.25        73.01372
617.68        73.72706
618.11        74.34461
618.54        74.95966
618.97        74.42101
619.40        73.17879
619.84        73.13374
620.27        74.16321
620.70        74.93215
621.13        75.31152
621.56        74.11779
621.99        73.16032
622.42        74.36961
622.85         76.5769
623.28         75.5274
623.71        75.23727
624.14        75.03844
624.57        74.58791
625.00        74.41405
625.43        74.59805
625.86        74.03561
626.29        74.20334
626.72        74.96405
627.15        74.56562
627.58         74.7618
628.01        74.89057
628.44        75.00179
628.87        75.15773
629.30        75.07623
629.73        75.62788
630.16        75.73608
630.59        75.31796
631.02         74.8801
631.45        74.45162
631.88        74.13313
632.31        73.96508
632.74        73.93947
633.17        74.00739
633.60        74.06953
634.03        74.09492
634.46        74.11876
634.89        74.14558
635.32        74.17714
635.75         74.2169
636.18        74.25311
636.61        74.30615
637.04        74.38873
637.47        74.49112
637.89        74.66953
638.32        74.86018
638.75        74.74129
639.18        74.65827
639.61        74.47878
640.04        74.15394
640.47        73.94463
640.90        73.82362
641.33        73.76957
641.76        73.73688
642.18        73.76763
642.61        73.84936
643.04        73.80579
643.47        73.60598
643.90        74.15731
644.33        73.92625
644.76        74.12777
645.18        74.26819
645.61        74.31236
646.04         74.2371
646.47        74.05383
646.90         73.8575
647.33        73.79224
647.75        73.93208
648.18        74.12945
648.61        74.21342
649.04        74.34847
649.47        74.42672
649.89        73.13428
650.32        72.16267
650.75        72.01487
651.18         73.0064
651.61        73.91755
652.03         74.3396
652.46        74.37351
652.89        74.32677
653.32        73.71716
653.74        72.98703
654.17        74.34307
654.60        75.04646
655.03        72.59506
655.46        73.54832
655.88        77.68311
656.31        83.04964
656.74        189.9341
657.16        123.0325
657.59        43.52762
658.02        32.35983
658.45        55.55108
658.87        71.35162
659.30         74.7826
659.73         73.1081
660.15        71.10981
660.58        73.63969
661.01         75.7178
661.44        73.29475
661.86        72.57504
662.29         72.6899
662.72        73.44634
663.14        74.61919
663.57        74.48537
664.00        73.33118
664.42        73.08224
664.85        73.81325
665.27        74.26361
665.70        74.21757
666.13        74.05604
666.55        73.76299
666.98        73.22729
667.41        72.65206
667.83        72.43278
668.26        72.64625
668.69        73.12422
669.11        73.63248
669.54         74.1385
669.96        73.85854
670.39        73.52641
670.82         73.0985
671.24        72.73531
671.67        72.61593
672.09        72.92348
672.52        73.40084
672.94        73.94372
673.37        73.26141
673.80        73.10282
674.22        73.16199
674.65         73.1925
675.07        73.17357
675.50        73.08372
675.92        72.97731
676.35        73.00645
676.77         73.1821
677.20        73.38165
677.62         73.5719
678.05        73.67606
678.47        73.65859
678.90        73.68971
679.32         73.5732
679.75        73.42039
680.17        73.46802
680.60        73.47993
681.02        73.49182
681.45        73.38876
681.87        73.16994
682.30        72.90728
682.72        72.70688
683.15        72.63913
683.57        72.79879
684.00        73.29498
684.42         74.0559
684.85        74.37823
685.27        74.20506
685.70        73.79487
686.12        73.32555
686.54         73.0602
686.97        73.06762
687.39        73.28537
687.82        73.55738
688.24        73.71513
688.66        73.68085
689.09        73.42414
689.51        73.10248
689.94        73.14358
690.36        73.51681
690.78        73.69857
691.21        73.63984
691.63        73.66733
692.06         73.7732
692.48        73.75177
692.90        73.65119
693.33        73.64417
693.75        73.75112
694.17        73.92283
694.60        74.11729
695.02        74.25612
695.44        74.27903
695.87        74.37008
696.29        74.54259
696.71        74.29044
697.14         73.8054
697.56        74.23097
697.98        75.30106
698.41        75.12281
698.83        74.30387
699.25        73.83052
699.68        73.93444
700.10        73.88564
700.52         73.6959
700.94        73.77316
701.37        74.06486
701.79        74.36873
702.21        74.60452
702.64        74.83318
703.06        74.98067
703.48        74.92225
703.90        74.66232
704.33        74.23803
704.75        73.77588
705.17        73.57279
705.59        73.70495
706.01        73.97583
706.44        74.23784
706.86        74.89103
707.28        74.87325
707.70        75.00015
708.12        75.01265
708.55        74.97981
708.97        74.89999
709.39         74.7644
709.81        74.62027
710.23        74.53916
710.66        74.54313
711.08        74.65205
711.50         74.7771
711.92        74.78666
712.34        74.65503
712.76        74.40795
713.19        74.16417
713.61        74.14754
714.03        74.38319
714.45        74.80206
714.87        75.21743
715.29        75.33347
715.71         75.0931
716.13        74.59731
716.56        74.03838
716.98        73.75892
717.40        73.84048
717.82         74.1787
718.24        74.62451
718.66        74.92282
719.08         74.9914
719.50        74.90816
719.92        74.73676
720.34        74.59876
720.76        74.54185
721.19        74.40448
721.61        74.42548
722.03        74.47529
722.45         74.6141
722.87        74.82922
723.29        75.08163
723.71        75.29075
724.13        75.42729
724.55        75.50814
724.97        75.53692
725.39        75.53069
725.81        75.49948
726.23        75.43187
726.65        75.36221
727.07        75.34466
727.49        75.39222
727.91        75.50794
728.33        75.62992
728.75         75.6481
729.17        75.54078
729.59        75.33659
730.01        75.15016
730.43        75.15235
730.85        75.38284
731.27        75.81839
731.69        76.29528
732.10        76.52528
732.52         76.4372
732.94        76.14504
733.36        75.85237
733.78         75.7767
734.20        75.96865
734.62        76.64861
735.04        77.47919
735.46        77.47984
735.88        76.15585
736.30        76.42825
736.72        77.91277
737.13        78.40195
737.55        77.63013
737.97        77.12775
738.39        77.11366
738.81        76.75151
739.23        76.30392
739.65        77.23693
740.06        79.06042
740.48        79.20769
740.90        77.81426
741.32        77.21076
741.74        77.62367
742.16        77.81931
742.57        77.85018
742.99         78.4753
743.41        79.49066
743.83        80.09845
744.25        80.16368
744.67        79.90071
745.08        79.53594
745.50        79.42233
745.92        79.67162
746.34         80.1566
746.75         80.6954
747.17        80.98327
747.59        80.96547
748.01        80.74179
748.42        80.51687
748.84        80.60909
749.26        81.09891
749.68        81.80785
750.09        82.53671
750.51        83.09732
750.93        83.34332
751.35        82.99506
751.76        82.27702
752.18        82.02094
752.60        82.23742
753.01        82.25648
753.43        82.09772
753.85        82.29534
754.27        82.86935
754.68         83.5891
755.10        84.27311
755.52        84.79215
755.93        85.05122
756.35        85.01175
756.77        84.88572
757.18        84.84465
757.60        84.93353
758.02        85.60389
758.43        86.43359
758.85        85.65847
759.26        83.82504
759.68        83.54968
760.10        84.74243
760.51        85.41949
760.93        85.20938
761.34        84.14597
761.76        83.60012
762.18        82.97826
762.59        82.80189
763.01         82.9592
763.42        83.48888
763.84        84.10787
764.26        84.72247
764.67        85.26187
765.09        85.56081
765.50        85.57198
765.92        85.21169
766.33         83.9188
766.75        82.23919
767.16        81.61971
767.58        82.27112
768.00        83.73615
768.41        85.63948
768.83        87.08772
769.24          87.487
769.66        86.82872
770.07        85.56097
770.49        83.81419
770.90        82.18031
771.32        83.03526
771.73        85.66042
772.15        85.26548
772.56        82.31409
772.97        81.81034
773.39        83.64778
773.80        84.27267
774.22         83.4446
774.63        83.26352
775.05        83.72322
775.46        83.95924
775.88        83.88594
776.29         83.7458
776.70        83.59145
777.12        83.54339
777.53        83.64421
777.95        83.79104
778.36         83.8944
778.77        83.79779
779.19         83.5175
779.60        83.10516
780.02        82.71869
780.43        82.70387
780.84        83.18436
781.26        83.54868
781.67        83.76873
782.09        84.92072
782.50        86.43728
782.91        85.26033
783.33        82.76967
783.74        81.93747
784.15        83.11566
784.57        84.12429
784.98        84.52106
785.39         84.5124
785.81        84.06612
786.22         83.3673
786.63        82.80643
787.04        82.74602
787.46        83.27203
787.87        84.38126
788.28        85.66145
788.70        86.29122
789.11         86.0882
789.52        85.33106
789.93        84.39537
790.35        83.80267
790.76        83.70553
791.17        83.99763
791.58        84.46615
792.00        84.69731
792.41        84.57032
792.82        84.25977
793.23        84.01537
793.65        83.79875
794.06        83.84839
794.47        85.11562
794.88        86.75173
795.29        86.59517
795.71        84.02612
796.12         81.8238
796.53         80.4613
796.94        80.16705
797.35         80.9774
797.76        82.27135
798.18        83.44492
798.59        84.25449
799.00        84.36623
799.41         83.4696
799.82        82.06868
800.23        81.32037
800.64        81.45037
801.06        82.02231
801.47        82.82233
801.88        83.38811
802.29        83.53848
802.70        83.44878
803.11        83.21251
803.52        82.95045
803.93        82.75535
804.34        82.56962
804.75        82.43081
805.17        82.56116
805.58        83.03289
805.99        83.31304
806.40        83.35661
806.81        84.25493
807.22        85.39683
807.63        84.16891
808.04        81.27116
808.45        80.05703
808.86        80.80022
809.27        81.78254
809.68        82.56183
810.09         83.0974
810.50        83.17698
810.91         82.8509
811.32        82.33836
811.73        81.99292
812.14        81.91813
812.55        81.96174
812.96        82.13029
813.37        82.42781
813.78        82.80699
814.19        83.32449
814.60        83.70366
815.01        83.49952
815.42        82.67017
815.83        81.31444
816.24        79.94105
816.65        79.44958
817.05        80.10275
817.46        81.60419
817.87        83.32505
818.28        84.13008
818.69        83.69984
819.10        82.32361
819.51        80.65726
819.92        79.81756
820.33        80.10687
820.74        81.17816
821.14        82.45663
821.55        82.91467
821.96        82.33334
822.37        81.08851
822.78        79.68496
823.19        78.84696
823.60        78.77744
824.00        79.29686
824.41        80.07243
824.82        80.67374
825.23        80.89922
825.64        80.90078
826.04        80.80527
826.45        80.79533
826.86        80.91485
827.27        81.04482
827.68        81.14035
828.08        81.18855
828.49        81.10725
828.90        80.98997
829.31        80.78046
829.72        80.36916
830.12        79.80608
830.53        79.13396
830.94        78.59955
831.35         78.5197
831.75        78.97849
832.16        79.82285
832.57        80.83447
832.97        81.53909
833.38        81.70111
833.79        81.44932
834.20         81.0084
834.60        80.73224
835.01        80.74372
835.42         80.9193
835.82        81.12596
836.23        81.06081
836.64        80.70116
837.04        80.19251
837.45        79.69553
837.86        79.45707
838.26        79.54786
838.67        79.82787
839.08        80.23975
839.48        80.66905
839.89        81.00197
840.29        81.27843
840.70        81.38084
841.11        81.11413
841.51        80.48813
841.92        79.54944
842.33        78.58344
842.73        78.07568
843.14        78.11185
843.54        78.61035
843.95         79.2531
844.35        79.55821
844.76        79.37888
845.17        78.88081
845.57        78.29957
845.98        78.00797
846.38        78.09609
846.79        78.39946
847.19        78.80193
847.60        79.01672
848.00        78.98962
848.41        78.80037
848.81        78.53486
849.22        78.22987
849.62         77.9759
850.03        77.76653
850.43        77.69875
850.84        77.85942
851.24        78.30649
851.65        78.82605
852.05        79.50513
852.46        80.29194
852.86        81.12318
853.27         82.0202
853.67        82.46619
854.07         81.8091
854.48          80.106
854.88        77.59715
855.29        75.19173
855.69        74.20895
856.10        74.90052
856.50        77.10447
856.90        79.99918
857.31         81.6694
857.71        81.51027
858.12        80.02516
858.52        78.10161
858.92        76.91298
859.33         76.7185
859.73        77.18343
860.13        78.10607
860.54        79.05959
860.94        79.89091
861.34        80.69957
861.75        81.37231
862.15        81.81387
862.55        81.97182
862.96        81.79955
863.36        81.46681
863.76        81.26798
864.17        81.29189
864.57        81.52746
864.97        81.85062
865.38        82.03959
865.78        82.08851
866.18        81.99989
866.58        81.88824
866.99        81.92789
867.39        82.22008
867.79         82.7317
868.19        83.20032
868.60        83.13823
869.00        82.46055
869.40        81.32714
869.80        80.34914
870.21        80.46162
870.61        81.93379
871.01        84.44948
871.41        87.23335
871.81        88.96099
872.22        89.24876
872.62        88.46988
873.02        87.29264
873.42        86.91347
873.82        87.49285
874.22        88.44925
874.63        89.45596
875.03        89.89629
875.43        89.45139
875.83        89.04626
876.23        87.78753
876.63        87.46149
877.03        88.12551
877.44        90.03577
877.84        101.9903
878.24         96.7923
878.64        96.71259
879.04        95.65306
879.44        92.45681
879.84        90.87289
880.24        93.60274
880.64        95.48981
881.04        96.97017
881.44        97.67175
881.84        96.82223
882.24        94.85516
882.65        92.96453
883.05        92.42919
883.45        93.45145
883.85        95.84446
884.25        98.64381
884.65         99.9509
885.05          99.217
885.45         97.1306
885.85        94.77139
886.25        93.59627
886.65        93.91571
887.05        95.25278
887.45        97.04122
887.85        98.27329
888.25         98.5678
888.65        98.27535
889.04        97.67581
889.44        97.23121
889.84        97.08574
890.24        97.04199
890.64         97.0815
891.04        97.22765
891.44        97.45022
891.84        97.79165
892.24        98.13406
892.64        98.21072
893.04        98.01144
893.44        97.68035
893.83        97.37876
894.23        97.37868
894.63         97.7086
895.03            98.2
895.43        98.90862
895.83        99.90936
896.23        101.1035
896.63        102.4674
897.02        103.4201
897.42        103.0294
897.82        101.2435
898.22        98.45325
898.62        95.66613
899.01        94.34731
899.41        94.79626
899.81        96.49447
900.21        98.67798
900.61        100.0931
901.00        100.3438
901.40        99.82456
901.80        98.89143
902.20        98.09805
902.59        97.65165
902.99        97.35186
903.39        97.14529
903.79        96.97806
904.18        96.83233
904.58        96.82484
904.98        96.98352
905.38        97.30859
905.77        97.74429
906.17         98.2179
906.57        98.64374
906.96        98.96867
907.36        99.10833
907.76        99.09258
908.15        98.88008
908.55        98.30024
908.95        97.42462
909.34        96.31047
909.74        95.26198
910.14        94.56015
910.53        94.31734
910.93        94.51999
911.33        95.07306
911.72        95.78652
912.12        96.45585
912.52        97.01638
912.91        97.51791
913.31        98.08511
913.70         98.7944
914.10        99.62186
914.49        100.2587
914.89        99.89274
915.29        98.42204
915.68         96.1934
916.08        94.25199
916.47        93.51227
916.87        94.04424
917.26        95.54603
917.66         97.2259
918.05        97.80469
918.45         96.9554
918.84        95.13949
919.24        93.17301
919.64         92.2358
920.03         92.6451
920.42         94.0159
920.82         95.8061
921.21        97.21986
921.61        97.77354
922.00        97.74638
922.40        97.26279
922.79        96.47547
923.19         95.5507
923.58        94.40866
923.98        93.12467
924.37           92.18
924.77         91.9585
925.16        90.71651
925.55        91.73712
925.95        92.87875
926.34        94.98914
926.74         97.5792
927.13        99.96628
927.52        100.8173
927.92         99.9798
928.31        97.89616
928.70        95.18571
929.10         92.9156
929.49        91.42941
929.89        90.49676
930.28        90.29195
930.67        91.08032
931.07        92.66088
931.46        95.01565
931.85        97.28355
932.24        98.16351
932.64        97.42107
933.03        95.25871
933.42        92.33845
933.82        90.23662
934.21        89.45528
934.60        89.61481
934.99        90.16362
935.39        90.49561
935.78        90.51074
936.17        90.19501
936.56        89.32542
936.96        89.77473
937.35         88.4827
937.74        88.05093
938.13        87.87639
938.53        88.49892
938.92        89.93697
939.31        92.21739
939.70        94.74325
940.09        95.77959
940.49        94.74615
940.88        92.34272
941.27        89.80013
941.66        88.59095
942.05         88.9123
942.44        90.27718
942.84        92.15932
943.23        93.71346
943.62        94.48992
944.01        94.73222
944.40        94.55439
944.79        94.12631
945.18        93.50436
945.57        92.50706
945.97        91.17181
946.36        89.84993
946.75        88.86654
947.14        88.34441
947.53        88.12215
947.92        87.87544
948.31        87.53416
948.70        87.17303
949.09        86.93303
949.48        87.13327
949.87        87.83331
950.26        88.79305
950.65        89.80226
951.04        90.61759
951.43         91.1293
951.82        91.38979
952.21        91.20831
952.60        90.32732
952.99        88.81574
953.38        86.83117
953.77        84.90973
954.16        83.81223
954.55        83.68961
954.94        84.40355
955.33        85.43167
955.72        85.85435
956.11        85.43641
956.50        84.40424
956.89        83.35979
957.28         83.4123
957.66        84.91772
958.05        87.25576
958.44        89.68364
958.83        91.13345
959.22        91.30444
959.61        90.44521
960.00        89.00633
960.39        87.71583
960.78        86.83247
961.16        86.25059
961.55         85.6038
961.94        84.31512
962.33        82.40179
962.72        80.24747
963.11        78.52117
963.49        78.04855
963.88        78.92622
964.27        80.94463
964.66        83.49226
965.04        85.18526
965.43        85.32699
965.82         84.3512
966.21        82.96237
966.60         82.1263
966.98        82.07233
967.37        82.44296
967.76         82.9898
968.15        83.25132
968.53        83.05701
968.92        82.58424
969.31        82.00256
969.69        81.44695
970.08        80.98456
970.47        80.59532
970.86         80.1986
971.24        79.69632
971.63        79.07787
972.02        78.36443
972.40        77.87938
972.79        78.13722
973.17        79.35653
973.56        81.32655
973.95        83.41552
974.33        84.39514
974.72        83.83924
975.11        82.07613
975.49        80.11803
975.88        79.39349
976.26        80.11852
976.65        82.07688
977.04        84.21571
977.42         84.0254
977.81        80.80408
978.19        75.67935
978.58        71.21877
978.96        70.10314
979.35        72.70903
979.74        78.47285
980.12        86.02858
980.51        90.89779
980.89         91.4388
981.28        88.87233
981.66        85.08847
982.05        82.54038
982.43        81.72274
982.82        81.79347
983.20        82.51368
983.59        83.68809
983.97        85.24174
984.35        87.43837
984.74        89.65347
985.12        90.67433
985.51        89.70989
985.89        86.89223
986.28        83.13111
986.66        79.97958
987.04        78.24653
987.43        77.71021
987.81        77.70119
988.20        77.30391
988.58        76.18055
988.96        74.16592
989.35        71.81165
989.73        71.80894
990.12        75.40428
990.50        81.15157
990.88        85.53696
991.27        86.13454
991.65         83.4482
992.03        78.24447
992.42        72.53942
992.80        69.98705
993.18         71.6282
993.56         75.4429
993.95        79.54833
994.33        82.32008
994.71        83.33872
995.10        83.50212
995.48        82.77637
995.86          80.841
996.24        77.73479
996.63        73.14311
997.01         68.1835
997.39        66.34082
997.77        69.06681
998.15        75.54081
998.54        82.57753
998.92         85.8698
999.30        84.12756
999.68        78.48969
1000.06        70.47231
1000.45        64.01201
1000.83        61.00842
1001.21        60.34891
1001.59        61.47727
1001.97        63.90211
1002.35        67.34897
1002.73        72.55697
1003.12        78.28792
1003.50        80.10336
1003.88        75.95313
1004.26        67.97032
1004.64        59.87722
1005.02         54.6428
1005.40        52.26603
1005.78        51.89467
1006.16        54.68567
1006.54        61.53947
1006.92        69.03729
1007.30        74.63869
1007.69        77.83086
1008.07        79.57473
1008.45         80.6273
1008.83        80.85789
1009.21        78.38593
1009.59        64.50028
1009.97        16.52095
1010.35       -62.78297
1010.73       -61.49283
1011.11       -17.23235
1011.49        17.50631
1011.86        43.36076
1012.24        58.19021
1012.62        64.08498
1013.00        64.32425
1013.38        60.09604
1013.76        53.54242
1014.14        52.90018
1014.52        65.18243
1014.90        92.41043
1015.28        125.8344
1015.66        139.2072
1016.04        117.9717
1016.41        70.07263
1016.79        22.97182
1017.17        3.665952
1017.55        7.299925
1017.93        18.59357
1018.31        30.15079
1018.69        38.83361
1019.06        45.47673
1019.44        51.98878
1019.82        60.73165
1020.20        74.30441
1020.58        95.25085
1020.95         127.807
1021.33        179.0484
1021.71       -341.9923
1022.09        92.91377
1022.46        122.8536
1022.84           137.2
1023.22         151.877
1023.60        182.8756
1023.97        472.5749
1024.35        -14.6741
1024.73        42.50602
