SpectraSmart Spectrum 2.9.0.0
--------- Device Information -----------
Spectrum Name :  反射率_0
Saving Time :  2024/04/26 01:52:35
Spectro-Module Model Name : SE2030-DUVN
Spectro-Module Serial Number : OS361AC55029948
Wavelength Start : 200
Wavelength End : 1025
Wavelength Unit : Wavelength(nm)
Spectrum Unit : Reflectance(%)
-----------Spectrum Setting ------------
Integration Time : 20ms
Average : 10
Boxcar : 0
Background removal :  enabled
linearity correction :  enabled
SC :  disabled
Intensity correction :  disabled
DWT denoise :  enabled
savitzky-golay :  disabled
FFT :  disabled
Running average :  disabled
Kalman :  disabled
High pass :  disabled
---------------BEGIN--------------------
Wavelength(nm)             Reflectance(%)
200.29               0
200.75        102.9969
201.21        97.39248
201.67         89.3846
202.13        83.48763
202.58        80.55586
203.04        79.87495
203.50        79.87171
203.96        78.29916
204.42        75.09656
204.88        71.35994
205.34        68.80744
205.80        69.23473
206.26        73.63773
206.72        85.00628
207.18        107.9289
207.64        128.1779
208.10        115.3144
208.55        88.24503
209.01        71.69529
209.47        67.83584
209.93        71.82372
210.39        81.11432
210.85        92.06425
211.31        96.29749
211.77        90.87757
212.23        79.11539
212.69        66.68606
213.14        62.20938
213.60        67.23533
214.06        79.02076
214.52        92.71329
214.98        100.9002
215.44        101.5681
215.90        97.33519
216.36        90.83247
216.81        85.57751
217.27        82.94898
217.73        81.60719
218.19         80.3502
218.65        77.55382
219.11        72.31097
219.57        64.08778
220.02        53.33441
220.48         45.2085
220.94        43.24014
221.40        47.02227
221.86        51.79597
222.32        52.07956
222.77        48.07977
223.23        42.55075
223.69        38.37265
224.15        38.61064
224.61        42.76996
225.06        49.22153
225.52        55.32602
225.98        57.84882
226.44        56.23608
226.90        51.88469
227.36        46.76711
227.81        43.52281
228.27         43.0195
228.73        44.22076
229.19        46.06871
229.65        47.01503
230.10        46.75679
230.56        45.98477
231.02        45.27103
231.48        45.20427
231.93        45.79813
232.39         46.7542
232.85        47.74173
233.31        48.35713
233.77        48.46497
234.22         48.1735
234.68        47.65595
235.14        47.18658
235.60        46.93169
236.05        46.90696
236.51          46.983
236.97        46.91537
237.43        46.70231
237.88        46.47538
238.34        46.66006
238.80        48.34047
239.26        51.81613
239.71        56.76643
240.17        61.86218
240.63         65.3689
241.08         66.8173
241.54        66.53259
242.00        65.43221
242.46        64.85401
242.91         65.6311
243.37        68.30745
243.83        78.78242
244.28        121.4052
244.74        185.1741
245.20        169.8306
245.66         147.032
246.11        142.5574
246.57        151.8667
247.03         183.975
247.48        277.1156
247.94        230.3941
248.40        131.3462
248.85        100.9316
249.31        91.91656
249.77        90.73869
250.22        93.75292
250.68        100.7381
251.14        111.3366
251.59        118.3066
252.05        114.5076
252.51         103.408
252.96        91.09612
253.42        83.39442
253.88        79.88226
254.33        78.53768
254.79        79.68584
255.25          83.145
255.70        87.71804
256.16        92.96445
256.62        96.66022
257.07        96.56189
257.53        93.57838
257.99        88.48142
258.44        83.15961
258.90        80.80661
259.35        80.46685
259.81        81.00994
260.27        80.54253
260.72        77.25005
261.18        71.99156
261.63        65.61494
262.09        59.74345
262.55        55.51614
263.00        52.92547
263.46         51.5202
263.91        50.45928
264.37        49.16342
264.83        47.39075
265.28        45.23378
265.74        43.16312
266.19        41.62687
266.65        40.84406
267.11        40.53431
267.56        40.22716
268.02        39.35968
268.47        37.80934
268.93        35.76899
269.38        33.60833
269.84        32.21003
270.30        31.79833
270.75        32.11417
271.21        32.63578
271.66        32.57472
272.12         31.7377
272.57        30.38834
273.03        28.94135
273.48        27.93302
273.94        27.52799
274.39        27.49869
274.85         27.5996
275.31         27.4732
275.76        27.01849
276.22         26.3824
276.67        25.71117
277.13        25.29554
277.58        25.13231
278.04        25.14103
278.49        25.10405
278.95        24.78372
279.40         24.1279
279.86         23.2955
280.31        22.44331
280.77        21.90885
281.22        21.71362
281.68         21.7633
282.13        21.90184
282.59        21.94234
283.04        21.82771
283.50        21.64889
283.95         21.4264
284.41        21.20701
284.86        21.00746
285.32        20.81862
285.77          20.684
286.22        20.73347
286.68        20.95356
287.13        21.28187
287.59         21.5856
288.04         21.6575
288.50        21.48363
288.95         21.1166
289.41        20.69592
289.86        20.33262
290.32        20.12153
290.77        20.01754
291.22        20.04105
291.68        20.18248
292.13        20.43928
292.59        20.82375
293.04        21.32495
293.50        21.91842
293.95        22.57922
294.40        23.28491
294.86        24.01384
295.31        24.74847
295.77        25.49385
296.22        26.25961
296.68        27.04966
297.13        27.83984
297.58        28.64289
298.04        29.47519
298.49        30.38505
298.95        31.49368
299.40        32.80289
299.85        34.26725
300.31        35.77461
300.76        37.14832
301.21         38.3231
301.67        39.38121
302.12        40.34466
302.58        41.33057
303.03        42.36026
303.48        43.42816
303.94        44.62443
304.39        46.03262
304.84         47.6629
305.30        49.48236
305.75        51.30698
306.20        52.86953
306.66         54.1347
307.11        55.14017
307.57        56.09171
308.02         57.2012
308.47        58.57187
308.93        60.14265
309.38        61.78837
309.83        63.35449
310.29        64.77773
310.74        66.07109
311.19        67.31107
311.65        68.61853
312.10        70.00916
312.55        71.45116
313.00        72.80125
313.46        73.83343
313.91        74.48791
314.36        74.85197
314.82        75.16113
315.27        75.73797
315.72        76.68676
316.18        77.90965
316.63        79.21764
317.08        80.25092
317.53        80.90058
317.99        81.26077
318.44        81.52122
318.89        81.99638
319.35         82.7476
319.80        83.70109
320.25        84.63651
320.70        85.19343
321.16        85.29159
321.61        85.05663
322.06         84.7322
322.51        84.70158
322.97        85.03917
323.42        85.66019
323.87        86.36872
324.32        86.82825
324.78        86.93185
325.23        86.82835
325.68        86.63676
326.13        86.57451
326.59        86.69576
327.04        86.95855
327.49        87.32652
327.94        87.77347
328.39        88.26701
328.85        88.79619
329.30        89.34824
329.75        89.73548
330.20        89.93883
330.66        90.00072
331.11        90.08498
331.56        90.38657
332.01        90.97898
332.46        91.78931
332.92        92.75032
333.37        93.90856
333.82        95.12863
334.27        96.39281
334.72        97.49036
335.17        98.08549
335.63        98.11665
336.08        97.72126
336.53        97.17647
336.98        96.98515
337.43        97.29382
337.88        97.97456
338.34        98.86003
338.79        99.74885
339.24         100.507
339.69        101.2281
340.14        101.8428
340.59        102.2217
341.05        102.3638
341.50        102.2671
341.95        102.1395
342.40        102.3341
342.85        102.9171
343.30        103.7979
343.75        104.7367
344.20        105.2986
344.66        105.3817
345.11        105.1152
345.56        104.7154
346.01        104.5095
346.46        104.5933
346.91        104.8591
347.36        105.2249
347.81        105.5687
348.26        105.8465
348.72        106.1257
349.17        106.3672
349.62        106.5491
350.07        106.6643
350.52          106.69
350.97        106.6803
351.42        106.7358
351.87        106.8679
352.32        107.0534
352.77        107.1903
353.22        107.1127
353.67        106.7993
354.13        106.3274
354.58        105.8057
355.03        105.4657
355.48        105.3502
355.93        105.3733
356.38        105.4148
356.83        105.2849
357.28        104.9241
357.73        104.3968
358.18        103.7444
358.63         103.029
359.08        102.2983
359.53        101.5547
359.98        100.8387
360.43        100.2134
360.88        99.68507
361.33        99.22737
361.78        98.82787
362.23        98.45894
362.68        98.09736
363.13        97.75045
363.58        97.33894
364.03        96.73987
364.48        95.94621
364.93        94.99915
365.38        94.04561
365.83        93.32897
366.28        92.89791
366.73        92.66773
367.18        92.50511
367.63        92.18795
368.08        91.65577
368.53         90.9972
368.98        90.25751
369.43         89.4956
369.88        88.74702
370.33        87.98781
370.78        87.29092
371.23        86.78793
371.68        86.49886
372.13        86.39139
372.58        86.35458
373.03        86.18716
373.48        85.84093
373.93        85.38684
374.38        84.89856
374.83        84.49046
375.28        84.19311
375.72        83.93996
376.17        83.75151
376.62        83.64339
377.07        83.58578
377.52        83.55231
377.97        83.43863
378.42        83.07854
378.87        82.46278
379.32        81.68303
379.77        80.83894
380.22        80.06725
380.67        79.40495
381.11        78.80482
381.56        78.30569
382.01        77.97314
382.46        77.81308
382.91        77.83888
383.36        77.88189
383.81        77.66601
384.26         77.1538
384.71        76.41364
385.15        75.69696
385.60        75.46187
386.05        75.72263
386.50        76.31374
386.95        76.90084
387.40        76.91891
387.85        76.28123
388.29        75.22068
388.74        74.13483
389.19        73.28013
389.64        72.72051
390.09        72.31564
390.54        72.11897
390.98        72.22435
391.43        72.59211
391.88        73.16758
392.33        73.65178
392.78         73.5512
393.23        72.84266
393.67        71.80692
394.12        70.86051
394.57        70.10276
395.02        69.75915
395.47        70.29372
395.91        71.46501
396.36        72.16781
396.81        72.19337
397.26        71.99685
397.71        71.72904
398.15        71.32755
398.60        70.93446
399.05        70.74693
399.50        70.62922
399.95        69.81323
400.39        68.82233
400.84        68.34427
401.29        68.50392
401.74        68.77814
402.18        69.00278
402.63        68.94392
403.08        68.72225
403.53        68.86423
403.97        69.37824
404.42        69.86858
404.87        70.14062
405.32        70.06215
405.76        69.58643
406.21        68.85189
406.66        68.09108
407.11        67.60638
407.55        67.52949
408.00        67.83927
408.45        68.36937
408.90        68.76436
409.34        68.80355
409.79        68.33294
410.24         67.5994
410.68        67.22416
411.13        67.30191
411.58        67.50514
412.03        67.76376
412.47        68.09065
412.92        68.38409
413.37        68.66689
413.81        68.87334
414.26        68.94607
414.71        68.85981
415.15         68.6126
415.60        68.29388
416.05        68.07359
416.49        68.00313
416.94        68.06875
417.39         68.1356
417.83        67.95362
418.28        67.50431
418.73        66.88776
419.17        66.35092
419.62        66.28426
420.07        66.70834
420.51        67.47881
420.96        68.30968
421.41        68.64431
421.85        68.32703
422.30        67.85251
422.74        67.33751
423.19        66.56546
423.64        65.81944
424.08        66.17834
424.53        67.41821
424.98        68.10054
425.42        68.04356
425.87        68.15981
426.31        68.48817
426.76        68.40043
427.21        68.08881
427.65        68.33107
428.10        69.07169
428.54        69.76566
428.99        70.34766
429.44        70.75703
429.88        70.94803
430.33        71.49661
430.77        71.94827
431.22        70.97988
431.66        68.99442
432.11        67.73701
432.56        67.47392
433.00        67.96024
433.45        69.21819
433.89        70.92353
434.34        71.65152
434.78        73.92137
435.23        70.35376
435.67        68.28325
436.12        70.37401
436.57        71.24699
437.01        71.90918
437.46        72.15476
437.90        72.10966
438.35        72.22401
438.79        72.45547
439.24        72.48219
439.68         72.3036
440.13        71.96965
440.57        71.77802
441.02        72.36658
441.46        73.48991
441.91        74.50532
442.35        74.99813
442.80        74.26458
443.24        72.78822
443.69        73.25587
444.13        75.29281
444.58        75.29597
445.02        73.50564
445.47        73.24472
445.91        74.42171
446.36        74.80923
446.80        74.33506
447.24         74.1443
447.69        74.32211
448.13        74.54051
448.58        74.81139
449.02        75.15594
449.47        75.50769
449.91        75.81364
450.36        76.05058
450.80        76.14668
451.25        76.07874
451.69        76.11829
452.13        75.76683
452.58        75.48112
453.02        75.19514
453.47        75.10815
453.91        75.22188
454.36        75.48491
454.80        75.79799
455.24        75.85293
455.69        75.60241
456.13        75.35091
456.58        75.18484
457.02        74.50691
457.46         73.8533
457.91         74.0451
458.35        74.91764
458.79        75.25948
459.24         75.0182
459.68        74.74206
460.13        74.50755
460.57        74.24104
461.01        74.06441
461.46        73.31219
461.90        73.28984
462.34        73.09765
462.79        72.86029
463.23        72.88312
463.68        73.46172
464.12        74.05689
464.56        74.54173
465.01        74.53725
465.45        74.01131
465.89        73.64511
466.34        73.41216
466.78        72.49155
467.22        71.34074
467.67        70.93768
468.11        72.03278
468.55        72.68752
468.99         72.8251
469.44        72.51455
469.88        71.97651
470.32        72.01396
470.77        72.52146
471.21        72.60121
471.65        72.21723
472.10        71.74792
472.54        71.82308
472.98        71.77644
473.42        71.76675
473.87        72.00903
474.31        72.33599
474.75         72.1534
475.20        71.60387
475.64        71.52327
476.08        71.89156
476.52        71.91304
476.97        71.56063
477.41        71.59394
477.85         71.5643
478.29        71.46284
478.74        71.96857
479.18        71.81831
479.62        70.81695
480.06        71.36744
480.50          71.807
480.95         72.2399
481.39        72.18037
481.83        71.56047
482.27        71.46615
482.72         71.3252
483.16        70.12232
483.60        70.11285
484.04        71.45117
484.48        71.94178
484.93        72.15382
485.37        73.72466
485.81        74.13799
486.25        72.89186
486.69        98.59772
487.14        79.80362
487.58        49.57705
488.02        60.75774
488.46        69.03223
488.90        68.99723
489.34         70.3149
489.79        69.66895
490.23        71.31354
490.67        72.02718
491.11        71.01181
491.55        71.06586
491.99        71.71451
492.43        71.61788
492.88        70.86234
493.32        70.80832
493.76        70.98063
494.20        71.25987
494.64        71.39725
495.08        71.63091
495.52        71.95722
495.96        71.91975
496.41        71.53089
496.85        71.94081
497.29        72.83739
497.73         71.5753
498.17        69.22451
498.61        69.35151
499.05        71.97408
499.49        72.61094
499.93        72.72597
500.37         72.5383
500.82        71.96314
501.26        71.88512
501.70        72.05358
502.14        72.55925
502.58        72.20383
503.02        72.11117
503.46        71.96684
503.90        71.64684
504.34        71.27285
504.78        71.11803
505.22        71.23205
505.66        71.53631
506.10        71.89523
506.54        72.03352
506.98        71.87835
507.42        71.59128
507.86        71.34515
508.30        70.98328
508.74         71.2309
509.18        71.47421
509.62        71.78095
510.06        71.92389
510.50        71.85403
510.94        71.63903
511.38        71.38631
511.82         71.2755
512.26        71.35172
512.70        71.55759
513.14        71.80791
513.58         71.9689
514.02        71.99428
514.46        71.91768
514.90        71.80717
515.34        71.75272
515.78        71.76808
516.22        71.88403
516.66        72.02759
517.10        71.92315
517.54        71.54974
517.98        71.53957
518.42        71.17684
518.86        71.20394
519.30        71.39761
519.74         71.7694
520.18        72.18685
520.62        72.42857
521.06        72.44881
521.50         72.3122
521.93        72.10402
522.37        71.96393
522.81        71.94314
523.25        71.99396
523.69        72.09866
524.13         72.2337
524.57        72.38041
525.01        72.54807
525.45        72.70284
525.89        72.78484
526.32        72.77393
526.76         72.6812
527.20        72.53992
527.64        72.42719
528.08        72.38092
528.52        72.32468
528.96        72.21198
529.40        72.17011
529.83        72.23175
530.27        71.63484
530.71        71.83157
531.15        71.73967
531.59        71.79316
532.03        71.91975
532.46        72.13127
532.90        72.41295
533.34        72.72044
533.78        73.04709
534.22        73.29204
534.66        73.31445
535.09        73.09048
535.53        72.69592
535.97         72.2443
536.41        71.94109
536.85        71.84632
537.28        71.90952
537.72        72.05103
538.16        72.14838
538.60        72.16221
539.04        72.07828
539.47        71.93423
539.91        71.97767
540.35        72.14371
540.79        72.10441
541.22        71.88719
541.66        71.83195
542.10        71.94228
542.54        72.02608
542.97        72.06788
543.41        72.15263
543.85         72.2628
544.29        72.39816
544.72        72.48384
545.16        72.42337
545.60        72.19676
546.04        71.86601
546.47        71.58026
546.91        71.49994
547.35        71.69432
547.79        72.32146
548.22        73.07095
548.66        73.23115
549.10        72.73551
549.53        71.96362
549.97         71.2384
550.41        70.84447
550.84        70.88632
551.28        71.30508
551.72        71.88802
552.15        72.21186
552.59        72.16618
553.03        71.99879
553.46        71.63002
553.90        71.47287
554.34        71.52334
554.77        71.62378
555.21        71.69787
555.65         71.8651
556.08        72.13629
556.52        71.60756
556.96        71.96996
557.39        71.87854
557.83        71.86401
558.27        71.85509
558.70        71.89488
559.14        72.03542
559.57        72.23777
560.01        72.49482
560.45        72.70784
560.88        72.72251
561.32         72.5392
561.75        72.20107
562.19        71.84898
562.63        71.46153
563.06        71.16965
563.50        71.35861
563.93        71.87474
564.37        72.15456
564.80        72.10199
565.24        72.01895
565.68        71.94768
566.11        71.86413
566.55        71.83598
566.98        71.83572
567.42        71.87201
567.85        71.96736
568.29        72.15945
568.72        72.23096
569.16        72.34921
569.60        72.80962
570.03        73.23255
570.47         73.1916
570.90        73.00477
571.34        70.99459
571.77        72.30438
572.21        72.13863
572.64        71.37091
573.08        70.80798
573.51        67.66509
573.95        70.28914
574.38        74.39278
574.82        72.68974
575.25        72.25632
575.69        69.92104
576.12        68.77627
576.56        68.12534
576.99        69.55848
577.42        72.78299
577.86        72.80651
578.29        71.93708
578.73        75.91852
579.16        69.88059
579.60        63.69485
580.03        66.48154
580.47        71.12173
580.90        72.54034
581.33         71.5073
581.77        70.66006
582.20        77.71805
582.64        76.96321
583.07        66.06635
583.51        64.79399
583.94        63.50441
584.37        66.43839
584.81        69.72571
585.24         73.4455
585.68        75.11567
586.11        73.93304
586.54        68.46557
586.98        66.56454
587.41        67.03381
587.85        70.65412
588.28        73.07887
588.71        69.59238
589.15         67.3764
589.58         68.9307
590.01         69.1552
590.45        70.61196
590.88        71.14087
591.31         70.4721
591.75        70.06466
592.18        70.12602
592.61        71.53778
593.05        72.31307
593.48        74.99776
593.91        75.57507
594.35        69.61442
594.78        68.25258
595.21        67.83657
595.65        70.88123
596.08        73.60215
596.51        70.75821
596.94        68.70122
597.38         69.2788
597.81        71.83768
598.24        73.94041
598.68        72.36357
599.11        70.94458
599.54        74.05227
599.97        75.74296
600.41        70.20099
600.84        70.27442
601.27        71.73551
601.70         70.7627
602.14        70.89573
602.57        69.80309
603.00        70.12454
603.43        71.92362
603.87        73.65929
604.30        73.21471
604.73        70.87247
605.16        69.49804
605.60        70.45975
606.03        71.63698
606.46        72.62006
606.89        72.46913
607.32        70.06752
607.76        70.01321
608.19        72.36803
608.62        71.47251
609.05        70.17676
609.48        70.75814
609.92        70.91377
610.35        70.17426
610.78        72.53542
611.21        73.39368
611.64        69.93575
612.07        70.58942
612.50        70.92684
612.94        71.32253
613.37        70.70257
613.80        71.02921
614.23         71.6705
614.66        71.41727
615.09        71.36332
615.52        71.36198
615.96         71.5421
616.39         71.7361
616.82        70.73714
617.25        70.22914
617.68        71.01023
618.11        71.76231
618.54        71.98522
618.97        71.57536
619.40         70.7127
619.84        70.68706
620.27        71.43502
620.70        72.04308
621.13        72.29659
621.56        71.57981
621.99        70.30785
622.42        71.13735
622.85        73.52074
623.28        73.32948
623.71        72.79658
624.14        72.53391
624.57        72.09584
625.00         71.7018
625.43        72.01662
625.86        71.42545
626.29        71.47311
626.72        72.25124
627.15        71.84985
627.58        71.96854
628.01        71.87852
628.44        72.43091
628.87        72.19535
629.30        72.46647
629.73        72.75008
630.16        72.78045
630.59         72.5193
631.02        72.15784
631.45        71.82813
631.88        71.54462
632.31        71.33144
632.74        71.60059
633.17        71.53725
633.60        71.65884
634.03        71.70575
634.46         71.7307
634.89        71.73849
635.32        71.75137
635.75        71.78461
636.18        71.80955
636.61        71.84252
637.04        71.92027
637.47        72.03979
637.89        72.19535
638.32        72.31942
638.75        72.34856
639.18        72.26731
639.61        72.10847
640.04        71.90414
640.47        71.70351
640.90        71.53618
641.33         71.3916
641.76         71.2781
642.18        71.29949
642.61         71.4519
643.04        71.55813
643.47        71.53559
643.90        72.07623
644.33        71.83793
644.76        71.89953
645.18         71.8663
645.61        71.75813
646.04        71.58019
646.47         71.3259
646.90        71.10455
647.33        71.08423
647.75        71.32046
648.18        71.69328
648.61        71.99783
649.04        72.22067
649.47        72.18054
649.89        71.14162
650.32        69.68327
650.75        69.54137
651.18        70.66473
651.61         71.5908
652.03         71.8713
652.46        71.80619
652.89        71.77701
653.32        71.16615
653.74        70.30252
654.17        72.06664
654.60        72.47881
655.03        69.68655
655.46         71.0564
655.88        74.73383
656.31        80.34966
656.74        180.5184
657.16        117.3979
657.59        41.35346
658.02        31.16469
658.45        54.13467
658.87        68.66346
659.30        71.86286
659.73        71.27655
660.15        68.72429
660.58        71.31254
661.01        72.97036
661.44        70.56048
661.86        69.83245
662.29        69.95655
662.72        70.78549
663.14        72.02686
663.57        71.87855
664.00        70.64764
664.42        70.39977
664.85        71.21461
665.27        71.74735
665.70        71.76105
666.13        71.64175
666.55        71.36626
666.98        70.82694
667.41        70.22424
667.83        69.94741
668.26        70.07625
668.69        70.44748
669.11         70.8598
669.54        71.30757
669.96        71.04219
670.39        70.79704
670.82         70.4846
671.24        70.12038
671.67        69.90174
672.09        70.15559
672.52        70.64777
672.94        71.23703
673.37        70.64097
673.80        70.44279
674.22        70.36927
674.65        70.34016
675.07        70.34967
675.50        70.28043
675.92        70.17249
676.35        70.20365
676.77        70.38425
677.20        70.57404
677.62         70.7507
678.05        70.88961
678.47        70.96431
678.90        71.00218
679.32        71.01044
679.75        70.86455
680.17         70.8505
680.60        70.75465
681.02        70.65765
681.45        70.49001
681.87        70.27227
682.30        70.12761
682.72         70.0857
683.15        70.00283
683.57        69.97312
684.00        70.27995
684.42         70.9248
684.85        71.17587
685.27        71.00403
685.70        70.70064
686.12        70.39403
686.54        70.23915
686.97        70.28095
687.39        70.49141
687.82        70.74115
688.24        70.87766
688.66         70.8369
689.09        70.64377
689.51        70.42985
689.94        70.44444
690.36        70.70544
690.78         70.9949
691.21        71.21285
691.63         71.3405
692.06        71.34772
692.48        71.21428
692.90        71.03336
693.33        70.97366
693.75        71.06413
694.17        71.24893
694.60        71.46726
695.02        71.57149
695.44         71.4829
695.87        71.51525
696.29        71.65186
696.71        71.12472
697.14        70.28001
697.56        70.76804
697.98        72.18301
698.41        72.47856
698.83        71.26588
699.25        70.64268
699.68        70.65115
700.10        70.59585
700.52        70.51211
700.94        70.79507
701.37        71.32053
701.79        71.74785
702.21        71.96314
702.64        72.06116
703.06        72.03986
703.48        71.89361
703.90        71.65768
704.33         71.3327
704.75        70.98917
705.17        70.83495
705.59        70.92243
706.01        71.08778
706.44        71.23529
706.86        71.82202
707.28        71.84573
707.70        72.06145
708.12        72.16859
708.55         72.1582
708.97        72.01433
709.39        71.75454
709.81        71.47127
710.23          71.314
710.66        71.32693
711.08        71.50118
711.50        71.71401
711.92        71.77991
712.34        71.65589
712.76        71.38789
713.19        71.10281
713.61        71.03493
714.03        71.22035
714.45        71.58649
714.87        71.96373
715.29        72.08584
715.71        71.89796
716.13        71.49004
716.56        71.03081
716.98        70.82101
717.40        70.92945
717.82        71.26326
718.24        71.67863
718.66        71.93255
719.08        71.95167
719.50        71.81064
719.92        71.59136
720.34        71.44218
720.76        71.41436
721.19        71.34718
721.61        71.44017
722.03        71.51923
722.45        71.62835
722.87        71.76446
723.29        71.92222
723.71        72.08006
724.13        72.22102
724.55        72.34296
724.97        72.41064
725.39         72.3765
725.81        72.24252
726.23        72.03246
726.65        71.81941
727.07         71.7153
727.49        71.75179
727.91        71.90844
728.33          72.126
728.75        72.29753
729.17        72.38415
729.59         72.4043
730.01        72.41142
730.43        72.48466
730.85        72.64512
731.27        72.88864
731.69        73.12617
732.10        73.19712
732.52        73.07005
732.94        72.83797
733.36        72.65382
733.78        72.61929
734.20        72.76549
734.62        73.36814
735.04        74.18785
735.46        74.10132
735.88        73.35447
736.30        73.59777
736.72        74.77929
737.13        75.26205
737.55        74.78342
737.97        74.65332
738.39        74.91388
738.81        74.15548
739.23        72.87216
739.65        73.76389
740.06        76.26839
740.48        76.59124
740.90        74.79951
741.32         73.9202
741.74        74.25681
742.16        74.40675
742.57        74.44084
742.99        75.14738
743.41        76.26977
743.83         76.9379
744.25         76.9939
744.67        76.65776
745.08        76.19625
745.50        76.04175
745.92        76.32588
746.34        76.89735
746.75        77.53607
747.17        77.88069
747.59        77.85872
748.01        77.58248
748.42        77.29846
748.84        77.38625
749.26        77.93423
749.68        78.76855
750.09        79.62975
750.51        80.16015
750.93        80.23502
751.35         79.7886
751.76        79.07265
752.18        78.79079
752.60         78.9668
753.01        79.04015
753.43        78.98761
753.85        79.20493
754.27        79.68977
754.68        80.24689
755.10        80.77303
755.52        81.25488
755.93        81.62601
756.35        81.81992
756.77        81.92366
757.18        81.93745
757.60        81.86865
758.02        82.15031
758.43        82.54588
758.85        81.70455
759.26        80.12366
759.68        80.12459
760.10        81.50201
760.51         81.9996
760.93        81.28945
761.34         80.3966
761.76        79.67834
762.18        79.24772
762.59        79.29032
763.01        79.81966
763.42        80.74337
763.84        81.46799
764.26        81.86431
764.67        82.07153
765.09        82.04344
765.50        81.75722
765.92        81.22193
766.33        80.02052
766.75        78.60667
767.16         78.2079
767.58        78.95248
768.00        80.25247
768.41        81.77625
768.83        83.13039
769.24        83.73911
769.66        82.90037
770.07         81.2089
770.49        79.76887
770.90        78.96228
771.32        79.93179
771.73        81.99905
772.15        81.49157
772.56        78.88354
772.97        78.43262
773.39        80.05229
773.80        80.61304
774.22         79.9073
774.63        79.87262
775.05        80.45208
775.46         80.7244
775.88        80.58473
776.29        80.30488
776.70        80.00543
777.12        79.90371
777.53        80.06767
777.95        80.37362
778.36        80.66383
778.77        80.66479
779.19        80.35763
779.60        79.83137
780.02        79.31328
780.43        79.22105
780.84        79.68369
781.26        80.17674
781.67        80.61039
782.09        81.64032
782.50        82.77707
782.91        81.83985
783.33        79.65852
783.74         78.9044
784.15        79.77372
784.57        80.45033
784.98        80.61739
785.39        80.55772
785.81        80.26611
786.22        79.83672
786.63        79.54073
787.04        79.61974
787.46        80.12173
787.87        81.05488
788.28        82.09544
788.70        82.59363
789.11        82.41317
789.52        81.78012
789.93        80.99768
790.35        80.48332
790.76        80.35963
791.17        80.54891
791.58         80.9035
792.00        81.09783
792.41        81.02943
792.82        80.90157
793.23        80.87885
793.65         80.6146
794.06        80.37339
794.47        81.52624
794.88        83.30252
795.29        82.90681
795.71        80.58176
796.12        78.48396
796.53        77.29312
796.94         77.0972
797.35        77.91774
797.76        79.17384
798.18         80.2943
798.59        81.09066
799.00        81.24618
799.41        80.44229
799.82        79.12645
800.23        78.35989
800.64        78.35233
801.06         78.7056
801.47        79.26606
801.88        79.67251
802.29        79.78365
802.70        79.75784
803.11        79.64262
803.52        79.47838
803.93        79.32074
804.34        79.12077
804.75        78.96558
805.17         79.1078
805.58        79.61748
805.99        80.10737
806.40        80.42123
806.81        81.07055
807.22        81.60879
807.63        80.37261
808.04        77.99774
808.45        76.97731
808.86        77.54967
809.27        78.48644
809.68        79.38036
810.09        79.99196
810.50        80.09885
810.91        79.80662
811.32        79.29338
811.73        78.84734
812.14        78.56667
812.55        78.31122
812.96        78.16729
813.37        78.29198
813.78        78.68383
814.19        79.35744
814.60        79.95033
815.01        79.88643
815.42         79.0852
815.83        77.67402
816.24        76.21198
816.65        75.68661
817.05        76.38744
817.46        77.99787
817.87        79.83049
818.28         80.6593
818.69        80.14681
819.10        78.61285
819.51         76.8074
819.92        75.99596
820.33        76.51497
820.74        77.97601
821.14        79.68067
821.55        80.39732
821.96        79.85225
822.37        78.47285
822.78        76.89304
823.19        76.04232
823.60        76.16758
824.00        77.02356
824.41        78.14621
824.82        78.85194
825.23        78.86099
825.64        78.41665
826.04        77.78903
826.45        77.36253
826.86        77.24529
827.27        77.27706
827.68        77.35545
828.08        77.36465
828.49        77.19662
828.90        76.97707
829.31        76.71893
829.72        76.42274
830.12        76.14683
830.53        75.86645
830.94        75.70802
831.35        75.83605
831.75        76.30614
832.16        77.01129
832.57        77.81431
832.97        78.39675
833.38        78.58328
833.79        78.45453
834.20        78.18436
834.60        78.04901
835.01        78.14491
835.42        78.37643
835.82        78.60986
836.23        78.53991
836.64         78.1438
837.04        77.55573
837.45        76.95692
837.86        76.63056
838.26        76.65848
838.67        76.91122
839.08        77.30183
839.48        77.65891
839.89        77.87051
840.29        78.00142
840.70        78.01032
841.11        77.81831
841.51        77.44517
841.92        76.88525
842.33        76.32137
842.73        76.07498
843.14        76.17743
843.54        76.58217
843.95        77.02788
844.35         77.1346
844.76        76.80044
845.17        76.17729
845.57        75.48296
845.98         75.0544
846.38        74.98084
846.79        75.12513
847.19        75.42053
847.60         75.6608
848.00          75.799
848.41        75.86985
848.81        75.88539
849.22        75.78132
849.62        75.61613
850.03        75.40199
850.43        75.25149
850.84        75.29762
851.24        75.61699
851.65        75.98946
852.05        76.50977
852.46        77.14152
852.86        77.83505
853.27         78.6296
853.67        79.01175
854.07        78.32256
854.48        76.61041
854.88        74.10526
855.29        71.72151
855.69        70.79066
856.10        71.56837
856.50        73.89838
856.90        76.90865
857.31        78.57845
857.71        78.27684
858.12        76.54044
858.52        74.40064
858.92        73.21888
859.33        73.28422
859.73        74.22357
860.13         75.6804
860.54        76.89365
860.94        77.58224
861.34        77.93479
861.75        78.05666
862.15        78.20876
862.55        78.43722
862.96        78.60085
863.36        78.70047
863.76        78.73649
864.17        78.71683
864.57        78.74908
864.97        78.83288
865.38        78.92987
865.78        79.08075
866.18        79.19453
866.58        79.35571
866.99        79.70284
867.39        80.29504
867.79        81.12315
868.19        81.80991
868.60        81.65569
869.00        80.54579
869.40        78.71494
869.80        77.01238
870.21        76.75802
870.61        78.32377
871.01        81.30106
871.41        84.74037
871.81        87.00056
872.22        87.57587
872.62        86.90304
873.02        85.72166
873.42        85.35957
873.82        85.99956
874.22        86.98016
874.63        87.93591
875.03        88.20393
875.43        87.48306
875.83        86.87215
876.23        85.26775
876.63        84.73061
877.03        85.27058
877.44         87.1759
877.84        102.8313
878.24         94.5101
878.64        94.29552
879.04         93.2702
879.44        89.06292
879.84        86.92133
880.24        90.58871
880.64         92.8193
881.04        94.24794
881.44        94.90198
881.84        93.99386
882.24        91.93681
882.65        89.95368
883.05        89.29267
883.45        90.15121
883.85        92.39519
884.25        95.11088
884.65        96.43084
885.05        95.82568
885.45        93.99019
885.85        91.91589
886.25        90.94788
886.65        91.37051
887.05        92.68954
887.45        94.46278
887.85        95.90105
888.25         96.6452
888.65        96.98345
889.04        96.88273
889.44        96.32626
889.84        95.40775
890.24        94.10632
890.64        92.86829
891.04         92.4082
891.44        92.83585
891.84         93.9985
892.24        95.35059
892.64        95.86026
893.04        95.31046
893.44        94.11473
893.83        92.83374
894.23        92.28503
894.63         92.6286
895.03         93.5284
895.43        94.81968
895.83        96.19149
896.23        97.40443
896.63        98.54981
897.02        99.23782
897.42        98.84139
897.82        97.37437
898.22        95.09785
898.62         92.7995
899.01        91.64865
899.41        91.88687
899.81        93.09964
900.21        94.73191
900.61        95.84944
901.00        96.14434
901.40        95.93721
901.80        95.38503
902.20        94.72612
902.59        94.10909
902.99        93.43337
903.39        92.89739
903.79        92.87239
904.18        93.41117
904.58        94.43628
904.98        95.64221
905.38        96.53505
905.77        96.93874
906.17        96.95323
906.57        96.69547
906.96        96.40852
907.36        96.11936
907.76        95.79137
908.15        95.37142
908.55        94.67615
908.95        93.76183
909.34        92.70372
909.74        91.79869
910.14        91.28934
910.53        91.26515
910.93        91.71487
911.33        92.45856
911.72         93.1807
912.12        93.66304
912.52        93.87894
912.91        94.04902
913.31        94.50551
913.70        95.35464
914.10        96.55543
914.49        97.62337
914.89        97.33148
915.29        95.44979
915.68        92.52831
916.08          89.936
916.47        88.95319
916.87        89.67143
917.26          91.666
917.66          93.982
918.05        95.04955
918.45         94.4331
918.84        92.67354
919.24        90.67268
919.64        89.75332
920.03         90.2631
920.42        91.73687
920.82        93.58582
921.21        94.93945
921.61        95.31414
922.00        95.08806
922.40          94.369
922.79        93.27027
923.19        91.97652
923.58        90.32951
923.98        88.58345
924.37        87.79287
924.77        88.41735
925.16         87.9379
925.55         90.2114
925.95        91.61008
926.34        93.09837
926.74         94.4365
927.13        95.49046
927.52        95.75293
927.92        95.24722
928.31        94.15476
928.70        92.74374
929.10         91.5154
929.49        90.59985
929.89        89.91772
930.28        89.71401
930.67        90.37094
931.07        91.75455
931.46        93.79254
931.85        95.65504
932.24        96.11533
932.64        94.95714
933.03        92.37569
933.42        89.09609
933.82        86.79005
934.21        85.98692
934.60        86.30147
934.99        86.97969
935.39        87.19013
935.78        86.79866
936.17        85.65988
936.56        83.67256
936.96        84.50484
937.35        83.62334
937.74        84.51424
938.13         85.4939
938.53        86.73172
938.92        88.28625
939.31        90.32055
939.70        92.37921
940.09        93.07018
940.49        91.98031
940.88        89.69089
941.27        87.28358
941.66        86.04404
942.05        86.13165
942.44        87.13174
942.84        88.59857
943.23        89.81848
943.62        90.39967
944.01        90.55412
944.40        90.32449
944.79        89.75317
945.18        88.88381
945.57        87.62086
945.97        86.14129
946.36        85.02393
946.75        84.62571
947.14        84.84269
947.53        85.42584
947.92        86.09622
948.31        86.80173
948.70        87.62845
949.09        88.50819
949.48        89.20064
949.87        89.53668
950.26        89.47627
950.65        89.12533
951.04        88.71146
951.43        88.30841
951.82        87.88507
952.21        87.37337
952.60        86.67776
952.99        85.80526
953.38        84.81136
953.77        83.88298
954.16        83.24541
954.55        82.94666
954.94        83.00581
955.33        83.11417
955.72        82.74673
956.11        81.82185
956.50        80.44471
956.89        79.28207
957.28        79.54465
957.66        81.54245
958.05        84.62403
958.44         87.7424
958.83        89.35143
959.22        89.08624
959.61        87.35786
960.00        84.91062
960.39        82.97688
960.78          81.992
961.16        81.71445
961.55        81.71799
961.94        81.27042
962.33        80.23401
962.72        78.96107
963.11        77.98753
963.49        77.99191
963.88        79.06024
964.27        81.00274
964.66        83.21613
965.04        84.41101
965.43        84.00945
965.82        82.49444
966.21        80.70114
966.60        79.71902
966.98         79.7649
967.37        80.44801
967.76        81.40172
968.15        81.90697
968.53        81.70818
968.92        81.07552
969.31        80.23662
969.69        79.41096
970.08        78.71069
970.47        78.08227
970.86        77.55408
971.24        77.22969
971.63        77.13337
972.02        77.22556
972.40        77.61169
972.79        78.40117
973.17         79.6531
973.56        81.22102
973.95         82.5981
974.33        82.85168
974.72         81.7349
975.11         79.5656
975.49        77.33834
975.88        76.41502
976.26        76.97295
976.65        78.80249
977.04        80.92277
977.42        80.95102
977.81        78.16477
978.19        73.57039
978.58        69.47978
978.96        68.28435
979.35        70.32474
979.74        75.09505
980.12        81.42724
980.51        85.43859
980.89        85.77752
981.28        83.47659
981.66        80.25594
982.05        78.31635
982.43        78.06353
982.82        78.73428
983.20         79.9386
983.59        81.23922
983.97        82.51305
984.35        83.97253
984.74        85.29801
985.12        86.01974
985.51        85.67612
985.89        84.27141
986.28         82.0111
986.66        79.22289
987.04        76.53044
987.43        74.20298
987.81        72.40707
988.20        71.12511
988.58        70.18679
988.96        69.42834
989.35        69.18892
989.73        70.41737
990.12        73.05228
990.50        76.34483
990.88        78.59602
991.27        78.84381
991.65        77.56496
992.03        75.07053
992.42         72.3569
992.80        71.06546
993.18        71.78403
993.56        73.43349
993.95        75.40728
994.33        77.52791
994.71        79.44671
995.10        81.48893
995.48        82.83109
995.86          81.938
996.24        78.49246
996.63        72.46951
997.01         65.4697
997.39        62.26949
997.77        65.03054
998.15        72.58558
998.54        81.17945
998.92        85.66065
999.30        84.49018
999.68        79.11273
1000.06        71.06844
1000.45        64.33491
1000.83        60.89722
1001.21        59.54591
1001.59        60.05241
1001.97        62.31203
1002.35        66.13444
1002.73        72.47514
1003.12        79.69131
1003.50        81.93658
1003.88        76.64172
1004.26        66.47075
1004.64        56.81746
1005.02        52.47338
1005.40        53.90022
1005.78         60.8895
1006.16        73.93726
1006.54        85.94429
1006.92        88.95778
1007.30        85.98952
1007.69        81.81722
1008.07        79.44644
1008.45        78.84244
1008.83        79.01617
1009.21        78.80645
1009.59        70.82326
1009.97        32.42681
1010.35       -39.23235
1010.73       -44.39679
1011.11       -7.399846
1011.49        23.54436
1011.86        46.96178
1012.24        60.27198
1012.62        65.22355
1013.00        64.79906
1013.38        60.01613
1013.76        53.34951
1014.14        54.12894
1014.52        70.39823
1014.90        104.8246
1015.28        147.6187
1015.66        168.9121
1016.04        151.1708
1016.41        101.2254
1016.79        47.72397
1017.17        21.39197
1017.55        19.73084
1017.93        27.22674
1018.31        36.47602
1018.69         44.1994
1019.06         50.9236
1019.44        58.85957
1019.82        70.25788
1020.20        85.88848
1020.58        105.8187
1020.95        130.1531
1021.33        161.6206
1021.71       -226.6254
1022.09        87.54916
1022.46        107.2756
1022.84        115.8615
1023.22        124.9127
1023.60        144.6056
1023.97        324.7559
1024.35        21.10169
1024.73        54.89923
