SpectraSmart Spectrum 2.9.0.0
--------- Device Information -----------
Spectrum Name :  反射率_0
Saving Time :  2024/04/26 01:17:45
Spectro-Module Model Name : SE2030-DUVN
Spectro-Module Serial Number : OS361AC55029948
Wavelength Start : 200
Wavelength End : 1025
Wavelength Unit : Wavelength(nm)
Spectrum Unit : Reflectance(%)
-----------Spectrum Setting ------------
Integration Time : 20ms
Average : 10
Boxcar : 0
Background removal :  enabled
linearity correction :  enabled
SC :  disabled
Intensity correction :  disabled
DWT denoise :  enabled
savitzky-golay :  disabled
FFT :  disabled
Running average :  disabled
Kalman :  disabled
High pass :  disabled
---------------BEGIN--------------------
Wavelength(nm)             Reflectance(%)
200.29               0
200.75        97.60783
201.21         90.4822
201.67        81.61111
202.13        75.68255
202.58        73.41674
203.04        73.92831
203.50        75.72449
203.96        76.36586
204.42        75.36094
204.88         73.7101
205.34        72.59923
205.80        73.37418
206.26        76.85276
206.72        84.88386
207.18        100.7421
207.64        115.5559
208.10        107.9175
208.55        89.63631
209.01        77.42313
209.47        72.43414
209.93        71.47218
210.39        73.05329
210.85        75.06621
211.31        73.59161
211.77        67.82593
212.23        59.26847
212.69        52.03542
213.14        52.45171
213.60         61.1821
214.06        76.33969
214.52         92.2483
214.98        100.2615
215.44        98.57057
215.90        90.14341
216.36        79.77345
216.81        74.23483
217.27          74.976
217.73        79.31365
218.19        83.80183
218.65        84.06451
219.11        78.62586
219.57        67.17587
220.02        51.06138
220.48        39.38235
220.94        38.19073
221.40        45.73256
221.86        54.12527
222.32        54.66602
222.77        47.97226
223.23        38.64147
223.69        31.17539
224.15        30.12292
224.61        34.87273
225.06        42.99336
225.52        50.97405
225.98        54.41568
226.44        52.56684
226.90        47.32736
227.36        41.32005
227.81        38.08076
228.27        38.62452
228.73        41.51091
229.19        45.18636
229.65        47.38711
230.10        47.63625
230.56         46.9187
231.02         46.0568
231.48        45.92364
231.93        46.58557
232.39        47.61617
232.85        48.66758
233.31        49.32185
233.77        49.43237
234.22        49.18037
234.68        48.62746
235.14        47.82597
235.60        46.95341
236.05        46.12572
236.51        45.53449
236.97        45.39653
237.43        45.82203
237.88        46.91749
238.34        48.87777
238.80         51.9393
239.26        55.85862
239.71        60.46055
240.17        64.64583
240.63         67.2804
241.08         68.2049
241.54        67.55024
242.00        66.41324
242.46        66.50104
242.91        69.02419
243.37        75.93317
243.83        97.36617
244.28        163.3364
244.74         230.648
245.20        185.0375
245.66        146.8092
246.11        134.9086
246.57        136.5029
247.03        152.2415
247.48        197.6518
247.94        156.4495
248.40        103.0278
248.85        89.04006
249.31        86.05842
249.77        87.02527
250.22        90.53511
250.68        97.03426
251.14        106.4778
251.59        113.0331
252.05        110.6748
252.51         102.053
252.96        92.16138
253.42        86.16417
253.88        83.75462
254.33        83.12756
254.79        84.74792
255.25        88.58927
255.70        93.42668
256.16        98.77694
256.62        102.4368
257.07        102.1563
257.53        98.95202
257.99        93.72849
258.44        88.29519
258.90        85.78843
259.35         85.2808
259.81        85.68371
260.27        85.30448
260.72         82.5321
261.18        78.12061
261.63        72.70298
262.09        67.60303
262.55        63.56619
263.00        60.63766
263.46        58.64397
263.91        57.00442
264.37        55.45759
264.83        53.74342
265.28        51.82756
265.74        50.01873
266.19         48.4971
266.65        47.47618
267.11        46.79451
267.56        46.12326
268.02        45.07145
268.47         43.5137
268.93         41.5918
269.38        39.58183
269.84        38.20551
270.30        37.65462
270.75        37.73502
271.21        38.03669
271.66        37.93177
272.12        37.25425
272.57        36.18651
273.03        35.05435
273.48        34.25952
273.94        33.92463
274.39        33.85449
274.85        33.82602
275.31        33.50093
275.76        32.80583
276.22         31.9094
276.67         30.9823
277.13        30.36801
277.58        30.06874
278.04        29.99027
278.49        29.92063
278.95         29.6418
279.40        29.07527
279.86        28.36936
280.31        27.59114
280.77        26.96034
281.22        26.48782
281.68        26.13912
282.13        25.86805
282.59         25.6522
283.04        25.46561
283.50        25.36472
283.95        25.28397
284.41        25.14353
284.86        24.92701
285.32        24.65946
285.77        24.46507
286.22        24.59986
286.68        25.05869
287.13        25.71602
287.59        26.31598
288.04        26.46769
288.50         26.1362
288.95        25.44161
289.41        24.65839
289.86        24.08606
290.32         23.8668
290.77         23.8977
291.22        24.11055
291.68        24.35626
292.13        24.60456
292.59        24.92809
293.04        25.38733
293.50        26.06789
293.95        26.96509
294.40        28.00106
294.86        29.10663
295.31        30.19779
295.77        31.25297
296.22        32.30096
296.68        33.32957
297.13        34.28703
297.58        35.19038
298.04        36.06675
298.49         37.0178
298.95        38.25641
299.40         39.8026
299.85        41.58775
300.31        43.45051
300.76        45.12463
301.21        46.51741
301.67        47.74128
302.12        48.83697
302.58        49.96767
303.03         51.1619
303.48        52.40185
303.94        53.77499
304.39         55.3567
304.84        57.14999
305.30        59.11501
305.75         61.0527
306.20        62.68119
306.66        63.95842
307.11        64.91611
307.57        65.75434
308.02        66.66064
308.47        67.74904
308.93         68.9763
309.38        70.24854
309.83        71.46803
310.29        72.59113
310.74        73.61601
311.19        74.60593
311.65        75.65265
312.10        76.75608
312.55        77.89266
313.00        78.91512
313.46        79.59586
313.91        79.88488
314.36        79.87853
314.82        79.82768
315.27          80.069
315.72        80.71201
316.18        81.65584
316.63        82.71407
317.08        83.53251
317.53        83.99835
317.99        84.19569
318.44        84.30151
318.89        84.60887
319.35        85.17032
319.80        85.92212
320.25        86.63449
320.70        86.93793
321.16        86.76395
321.61        86.24666
322.06        85.67953
322.51        85.51701
322.97        85.84178
323.42        86.55068
323.87        87.37658
324.32        87.86055
324.78        87.85988
325.23        87.54836
325.68        87.12019
326.13        86.92062
326.59         87.0348
327.04        87.38534
327.49         87.8521
327.94        88.26899
328.39        88.57013
328.85        88.78964
329.30        89.00958
329.75         89.2057
330.20        89.40253
330.66        89.58484
331.11        89.82874
331.56        90.18811
332.01        90.69132
332.46        91.30971
332.92        92.00729
333.37         92.8913
333.82        93.86197
334.27        94.88029
334.72        95.77212
335.17        96.26207
335.63        96.29795
336.08        96.01589
336.53        95.61126
336.98        95.44683
337.43         95.6369
337.88        96.07828
338.34        96.70634
338.79         97.4964
339.24        98.35495
339.69        99.32494
340.14        100.2084
340.59        100.6524
341.05        100.6067
341.50        100.1571
341.95        99.65348
342.40        99.65105
342.85        100.2592
343.30        101.3158
343.75        102.5013
344.20        103.2428
344.66        103.3845
345.11        103.1015
345.56        102.6264
346.01        102.3086
346.46        102.2628
346.91        102.3709
347.36        102.5843
347.81        102.8407
348.26        103.1044
348.72        103.4285
349.17        103.7336
349.62        103.9262
350.07        103.9794
350.52        103.8936
350.97         103.748
351.42        103.6797
351.87        103.7182
352.32        103.8363
352.77        103.9305
353.22        103.8354
353.67        103.5244
354.13        103.0634
354.58        102.5747
355.03        102.3075
355.48        102.2989
355.93        102.4607
356.38        102.6066
356.83        102.4426
357.28        101.9059
357.73        101.1041
358.18        100.1982
358.63        99.43993
359.08        98.90821
359.53         98.5294
359.98        98.22752
360.43        97.88602
360.88        97.45219
361.33        96.94729
361.78        96.39618
362.23        95.83322
362.68        95.27605
363.13        94.73232
363.58         94.1395
364.03        93.40167
364.48        92.52275
364.93        91.53987
365.38        90.62594
365.83        90.05759
366.28         89.8661
366.73        89.93729
367.18        90.03848
367.63        89.78805
368.08        89.10193
368.53        88.13712
368.98        87.03836
369.43        86.02163
369.88        85.17234
370.33        84.41528
370.78         83.8278
371.23        83.54306
371.68        83.55289
372.13        83.82337
372.58        84.12407
373.03         84.0509
373.48         83.5179
373.93        82.65366
374.38        81.69404
374.83        81.01023
375.28        80.69653
375.72        80.62053
376.17        80.69094
376.62        80.73187
377.07        80.65884
377.52        80.50834
377.97        80.25562
378.42        79.85679
378.87        79.33006
379.32        78.71213
379.77        78.03994
380.22        77.36825
380.67        76.71695
381.11        76.07178
381.56        75.50967
382.01        75.15495
382.46        75.02914
382.91        75.11886
383.36        75.23428
383.81        75.06904
384.26        74.57133
384.71        73.82027
385.15        73.06517
385.60         72.7529
386.05        72.90681
386.50        73.37527
386.95        73.84402
387.40        73.78762
387.85        73.12991
388.29        72.08241
388.74        71.04318
389.19        70.28303
389.64        69.85497
390.09        69.61427
390.54        69.54634
390.98        69.63202
391.43        69.82481
391.88         70.1182
392.33        70.32312
392.78        70.13535
393.23        69.55967
393.67        68.72906
394.12        67.97977
394.57        67.49249
395.02        67.37292
395.47        67.70184
395.91        68.35783
396.36        68.83543
396.81        69.01539
397.26        69.06009
397.71        68.97658
398.15        68.64642
398.60        68.18416
399.05        67.70084
399.50        67.24146
399.95        66.54214
400.39        65.99369
400.84        65.69059
401.29        65.70863
401.74        65.77612
402.18        65.85438
402.63        65.97017
403.08        66.13722
403.53         66.3548
403.97        66.59992
404.42        66.81718
404.87        66.88727
405.32        66.64949
405.76        66.09433
406.21        65.33908
406.66        64.60217
407.11        64.22572
407.55        64.28666
408.00         64.6216
408.45         65.0695
408.90        65.39099
409.34        65.41547
409.79        65.02901
410.24        64.43614
410.68        64.12212
411.13        64.17004
411.58        64.33337
412.03        64.56684
412.47        64.88064
412.92          65.182
413.37        65.49718
413.81        65.72598
414.26        65.75331
414.71        65.55131
415.15        65.14346
415.60        64.67337
416.05        64.39683
416.49        64.38483
416.94        64.59563
417.39        64.85307
417.83        64.83418
418.28          64.493
418.73           63.95
419.17        63.45889
419.62        63.42258
420.07        63.87021
420.51        64.64355
420.96        65.47915
421.41        65.86031
421.85         65.6322
422.30        65.27477
422.74        64.85845
423.19        64.09498
423.64        63.26212
424.08        63.46009
424.53        64.52091
424.98        65.11026
425.42        65.07819
425.87        65.30264
426.31        65.77802
426.76        65.81381
427.21        65.57991
427.65        65.86311
428.10        66.60933
428.54        67.31186
428.99        67.92861
429.44        68.29921
429.88        68.39283
430.33        69.07155
430.77        69.76462
431.22        68.54263
431.66        66.01052
432.11          64.751
432.56        65.02676
433.00        65.89079
433.45        67.16302
433.89         68.8586
434.34         69.6777
434.78        71.09259
435.23        67.65405
435.67        65.78277
436.12        67.90143
436.57         68.7917
437.01        69.23981
437.46        69.41988
437.90        69.50881
438.35        69.40411
438.79        69.93109
439.24        70.02216
439.68        69.94083
440.13        69.66916
440.57        69.50397
441.02        70.28304
441.46        71.65417
441.91        72.39421
442.35        72.27654
442.80        71.46412
443.24        70.38145
443.69        70.88821
444.13        72.63593
444.58        72.79591
445.02        71.48838
445.47        71.25861
445.91        72.06565
446.36        72.30287
446.80        71.92984
447.24        71.75834
447.69        71.86498
448.13        72.04095
448.58        72.29704
449.02        72.64104
449.47        72.99535
449.91        73.24563
450.36         73.3627
450.80         73.3631
451.25        73.28871
451.69        73.17484
452.13        73.06551
452.58        72.95781
453.02        72.88605
453.47        72.94573
453.91        73.11884
454.36        73.38102
454.80        73.66432
455.24        73.68299
455.69        73.39114
456.13        73.17185
456.58        73.14487
457.02        72.28636
457.46        71.81421
457.91        72.17986
458.35        72.92852
458.79        73.25624
459.24        72.99096
459.68        72.63017
460.13        72.23402
460.57        71.97855
461.01        72.02356
461.46        71.02937
461.90        70.92932
462.34        71.38347
462.79        70.83335
463.23         71.1947
463.68        71.70818
464.12        72.08778
464.56         72.2208
465.01         72.2077
465.45        72.00254
465.89        72.01559
466.34        72.07474
466.78        71.07607
467.22         69.5592
467.67        69.01312
468.11        70.16189
468.55        70.80302
468.99        70.74017
469.44        70.37163
469.88        69.88052
470.32        69.98154
470.77        70.57212
471.21        70.72437
471.65        70.37132
472.10        70.18212
472.54        70.22162
472.98        70.23503
473.42        70.21092
473.87        70.42883
474.31        70.71842
474.75        70.40102
475.20        69.68488
475.64        69.59608
476.08        70.09764
476.52         70.1836
476.97        69.80901
477.41        69.74136
477.85        70.07944
478.29        69.64671
478.74        70.26785
479.18        70.37429
479.62        69.48133
480.06        70.13863
480.50        70.54373
480.95        70.90945
481.39        70.76605
481.83        70.14403
482.27        69.93223
482.72        69.78531
483.16        68.50462
483.60         68.4805
484.04          70.158
484.48        70.52466
484.93        70.25142
485.37        72.09949
485.81        72.30271
486.25        71.30704
486.69        97.60016
487.14        79.16445
487.58        48.91096
488.02        60.41758
488.46        68.57635
488.90        67.73838
489.34        68.79364
489.79        68.13434
490.23        70.16164
490.67        71.16529
491.11        70.19489
491.55        70.17599
491.99        70.67527
492.43        70.51462
492.88        69.79885
493.32        69.73091
493.76        69.83325
494.20          70.055
494.64         70.1606
495.08        70.37656
495.52        70.69292
495.96        70.66515
496.41        70.30572
496.85        70.69231
497.29        71.55729
497.73        70.45887
498.17        68.38509
498.61        68.61982
499.05        71.13792
499.49        71.60277
499.93        71.55389
500.37        71.22125
500.82        70.55491
501.26         70.6485
501.70        71.19769
502.14        71.34827
502.58        70.98735
503.02        70.75813
503.46         70.6749
503.90        70.35201
504.34        69.92748
504.78        69.78325
505.22        69.92933
505.66        70.35275
506.10         70.9295
506.54        71.03485
506.98        70.50314
507.42        70.92455
507.86         70.2062
508.30        69.67734
508.74        70.01469
509.18        70.16699
509.62        70.39878
510.06        70.53365
510.50        70.55521
510.94        70.48386
511.38        70.38338
511.82        70.37668
512.26        70.48739
512.70        70.67088
513.14        70.86603
513.58        70.98254
514.02        70.98897
514.46        70.90766
514.90         70.7937
515.34        70.71626
515.78        70.68587
516.22        70.74781
516.66        70.84732
517.10        70.72749
517.54        70.37308
517.98        70.43019
518.42        70.13091
518.86        70.21228
519.30        70.43281
519.74        70.81164
520.18        71.22601
520.62        71.47124
521.06        71.50539
521.50        71.38602
521.93        71.18796
522.37        71.03464
522.81        70.97631
523.25        70.97666
523.69         71.0305
524.13        71.13142
524.57        71.26641
525.01        71.43884
525.45        71.61408
525.89        71.73132
526.32        71.76418
526.76        71.71884
527.20        71.61625
527.64        71.51388
528.08        71.44738
528.52        71.35176
528.96        71.18684
529.40        71.08862
529.83        71.09588
530.27        70.45419
530.71        70.61307
531.15        70.53895
531.59        70.65948
532.03        70.89664
532.46        71.21457
532.90        71.51913
533.34        71.75328
533.78        71.93713
534.22        72.03501
534.66         72.0061
535.09        71.84454
535.53        71.58957
535.97         71.2995
536.41        71.09137
536.85        71.00129
537.28        71.00966
537.72        71.06467
538.16        71.08922
538.60        71.06075
539.04        70.94701
539.47        70.78872
539.91        70.83691
540.35         71.0241
540.79        71.02989
541.22        70.85456
541.66         70.7876
542.10        70.82829
542.54        70.80312
542.97        70.73778
543.41        70.78262
543.85        70.93324
544.29        71.16338
544.72        71.36654
545.16        71.40175
545.60         71.2371
546.04        70.93542
546.47        70.64706
546.91        70.59116
547.35           70.83
547.79        71.37227
548.22        71.95934
548.66        72.18025
549.10        71.90886
549.53        71.13176
549.97        70.20056
550.41        69.74696
550.84        69.88011
551.28         70.3635
551.72        70.99773
552.15        71.38512
552.59        71.39073
553.03        71.57401
553.46        71.20846
553.90        71.10715
554.34        71.08354
554.77        71.02309
555.21        70.90904
555.65        70.96842
556.08          71.242
556.52        70.79611
556.96        71.25625
557.39        71.21864
557.83        71.19481
558.27        71.14934
558.70        71.13577
559.14        71.24506
559.57        71.45458
560.01         71.6669
560.45        71.82832
560.88        72.02031
561.32        72.15556
561.75         71.8977
562.19        71.39995
562.63        70.93479
563.06        70.65489
563.50        70.83243
563.93        71.32824
564.37        71.55994
564.80        71.43137
565.24        71.39676
565.68         71.5071
566.11        71.14514
566.55        71.37789
566.98        71.28332
567.42        71.22717
567.85        71.53896
568.29         72.1501
568.72        72.27444
569.16        72.09923
569.60        72.46142
570.03        73.01769
570.47        72.94202
570.90        72.56508
571.34        70.80502
571.77         71.7929
572.21        71.87325
572.64        71.32796
573.08        70.41617
573.51         67.4588
573.95        70.18293
574.38        74.65497
574.82        72.81942
575.25        71.85545
575.69        70.04656
576.12         68.8484
576.56        67.91164
576.99        69.19559
577.42        72.75428
577.86        72.75169
578.29        71.82373
578.73        76.03648
579.16        69.90312
579.60        63.97644
580.03        66.58936
580.47        71.02905
580.90        72.87997
581.33        71.52113
581.77        70.61444
582.20        77.76449
582.64        77.67164
583.07        66.03278
583.51        64.75647
583.94        63.61772
584.37        66.38372
584.81        69.61545
585.24        73.30823
585.68        75.09743
586.11        74.03448
586.54        69.02979
586.98         66.5174
587.41        66.93497
587.85         70.7836
588.28        73.35284
588.71        69.95966
589.15        67.63712
589.58        68.88133
590.01        69.15443
590.45         70.3549
590.88        71.25649
591.31        70.51852
591.75        69.80471
592.18        69.60801
592.61        71.01974
593.05        71.54363
593.48        74.65865
593.91        75.98216
594.35         69.6171
594.78        68.16981
595.21        67.94609
595.65        70.99081
596.08        73.64501
596.51         70.7366
596.94         68.6424
597.38        69.23633
597.81        71.90833
598.24        73.76395
598.68        72.52242
599.11        70.86592
599.54        74.49825
599.97        75.77074
600.41        70.49996
600.84        70.61124
601.27        72.23693
601.70         70.9958
602.14        71.17896
602.57        70.05524
603.00        70.38804
603.43        72.51413
603.87        73.74036
604.30        73.32154
604.73        71.18177
605.16        69.81065
605.60        70.76634
606.03        71.82374
606.46        72.77983
606.89        72.25859
607.32        70.34988
607.76        70.36877
608.19         72.5976
608.62        71.76277
609.05        70.71164
609.48        71.15048
609.92        70.70338
610.35        70.63794
610.78        72.62891
611.21        73.47419
611.64         70.1523
612.07        70.90498
612.50        71.37283
612.94        71.85686
613.37        71.27619
613.80        71.62755
614.23        72.13187
614.66        71.95595
615.09        71.94668
615.52        71.81528
615.96        71.71961
616.39        71.89292
616.82        70.84076
617.25        70.77333
617.68        71.65572
618.11        72.33981
618.54        72.62928
618.97        71.96928
619.40        70.86354
619.84        70.54842
620.27        71.80061
620.70        72.56128
621.13        72.83106
621.56        72.32274
621.99        71.30393
622.42        72.19104
622.85        73.97565
623.28         73.3227
623.71        72.74706
624.14         72.6528
624.57        72.33875
625.00        72.21021
625.43        72.42443
625.86        71.77463
626.29         71.7584
626.72        72.50331
627.15        72.09776
627.58        72.32578
628.01         72.4398
628.44        72.68808
628.87        72.91126
629.30        72.66161
629.73        73.42899
630.16        73.39751
630.59        73.00859
631.02        72.55119
631.45        72.19705
631.88        71.84186
632.31        71.46947
632.74        72.06525
633.17        71.83202
633.60        72.04411
634.03        72.13918
634.46        72.21894
634.89        72.25132
635.32        72.17323
635.75        72.03011
636.18        71.90459
636.61        71.84764
637.04        71.85177
637.47        71.92626
637.89        72.12105
638.32        72.32993
638.75        72.39002
639.18        72.26732
639.61        72.01736
640.04        71.73034
640.47        71.54815
640.90        71.51246
641.33        71.57547
641.76        71.65878
642.18        71.73782
642.61        71.78259
643.04        71.64595
643.47        71.32902
643.90        71.75676
644.33        71.46627
644.76        71.63177
645.18        71.76555
645.61        71.81271
646.04        71.74088
646.47        71.56769
646.90        71.41292
647.33        71.41243
647.75        71.61394
648.18        72.01585
648.61        72.39739
649.04         72.4127
649.47        72.01383
649.89        71.19129
650.32        70.37117
650.75        70.31767
651.18        71.00413
651.61        71.82456
652.03        72.34122
652.46        72.21312
652.89        71.82899
653.32        71.07599
653.74        70.30038
654.17        72.03601
654.60        72.96845
655.03         70.6739
655.46        71.42068
655.88        75.44776
656.31         80.5431
656.74        185.3695
657.16        120.0041
657.59         42.2048
658.02         31.5846
658.45        54.22501
658.87        69.76915
659.30        72.78883
659.73          71.635
660.15        69.28917
660.58        71.95029
661.01        73.76888
661.44        71.19447
661.86        70.34938
662.29        70.40702
662.72        71.17239
663.14        72.39133
663.57        72.31966
664.00        71.21896
664.42         71.0346
664.85        71.83286
665.27          72.312
665.70        72.26823
666.13        72.13412
666.55        71.89371
666.98        71.40905
667.41         70.8619
667.83        70.61451
668.26        70.74564
668.69        71.11932
669.11         71.5089
669.54        71.90137
669.96        71.55232
670.39        71.10154
670.82        70.57582
671.24        70.39402
671.67        70.65534
672.09        71.15564
672.52        71.59874
672.94        72.12532
673.37        71.41033
673.80        71.17253
674.22        71.11697
674.65         71.0549
675.07        70.98714
675.50        70.91142
675.92         70.8709
676.35        70.96396
676.77        71.19145
677.20        71.44811
677.62        71.67127
678.05        71.76517
678.47        71.69821
678.90        71.51286
679.32        71.30681
679.75        71.10387
680.17        71.21874
680.60        71.38464
681.02        71.56704
681.45        71.55107
681.87         71.3106
682.30        70.91019
682.72        70.51286
683.15        70.39577
683.57        70.62878
684.00        71.03013
684.42        71.58157
684.85        71.87823
685.27        71.87914
685.70        71.67706
686.12        71.37742
686.54        71.19558
686.97        71.17588
687.39        71.26998
687.82        71.38842
688.24        71.44177
688.66        71.38344
689.09        71.25903
689.51        71.15254
689.94        71.16276
690.36        71.31915
690.78        71.57272
691.21         71.8428
691.63         72.0094
692.06        72.04161
692.48        71.98466
692.90        71.89491
693.33        71.84713
693.75        71.86727
694.17        71.93546
694.60        72.03284
695.02         72.1158
695.44        72.13357
695.87        72.26137
696.29        72.48646
696.71        72.25119
697.14        71.73428
697.56         72.1097
697.98         73.1401
698.41        72.89162
698.83        72.12589
699.25        71.67467
699.68        71.79882
700.10        71.75636
700.52        71.55427
700.94        71.59752
701.37         71.8447
701.79        72.12017
702.21        72.35052
702.64        72.58676
703.06        72.74941
703.48        72.70573
703.90        72.45609
704.33        72.04161
704.75        71.58446
705.17        71.37214
705.59        71.47974
706.01        71.71515
706.44        71.94527
706.86        72.57442
707.28        72.57689
707.70         72.7412
708.12        72.79742
708.55        72.78433
708.97        72.69505
709.39        72.52552
709.81        72.34862
710.23        72.28023
710.66         72.3503
711.08        72.56384
711.50        72.79032
711.92        72.83262
712.34        72.65216
712.76        72.29512
713.19        71.92834
713.61        71.85414
714.03        72.11809
714.45        72.62617
714.87        73.14877
715.29        73.32189
715.71        73.06944
716.13         72.5136
716.56        71.87659
716.98        71.54719
717.40        71.62294
717.82        71.98816
718.24        72.47482
718.66        72.79615
719.08        72.86346
719.50        72.76776
719.92        72.59647
720.34        72.50684
720.76        72.54877
721.19        72.54172
721.61        72.68981
722.03        72.82259
722.45          72.983
722.87        73.17351
723.29        73.35687
723.71        73.45842
724.13         73.4601
724.55        73.37942
724.97        73.25855
725.39        73.17429
725.81        73.14984
726.23        73.16659
726.65        73.20526
727.07        73.22938
727.49        73.23363
727.91        73.24381
728.33        73.26189
728.75        73.28928
729.17        73.32329
729.59        73.34219
730.01        73.38325
730.43        73.50226
730.85        73.70539
731.27        74.00346
731.69         74.2729
732.10        74.30826
732.52        74.04703
732.94         73.6227
733.36        73.25214
733.78        73.15931
734.20        73.39882
734.62        74.20908
735.04        75.27597
735.46        75.33183
735.88        74.58897
736.30        74.78192
736.72        75.89061
737.13        76.27258
737.55        75.71502
737.97        75.61028
738.39        75.96903
738.81        75.27782
739.23        73.98985
739.65        74.77585
740.06         77.1159
740.48        77.35827
740.90        75.59691
741.32        74.75791
741.74        75.17424
742.16        75.35304
742.57        75.36834
742.99        76.02565
743.41        77.09487
743.83        77.74317
744.25        77.82478
744.67        77.54897
745.08        77.16313
745.50         77.0694
745.92        77.38683
746.34        77.96679
746.75         78.6029
747.17        78.95434
747.59        78.95255
748.01        78.70882
748.42        78.44001
748.84        78.46953
749.26        78.88076
749.68          79.544
750.09        80.26414
750.51        80.72333
750.93        80.84415
751.35        80.66283
751.76        80.30763
752.18        80.17555
752.60        80.24472
753.01        80.08958
753.43        79.79787
753.85        79.82402
754.27        80.19585
754.68        80.86485
755.10        81.73375
755.52        81.85576
755.93        82.63612
756.35        82.83282
756.77         82.9611
757.18        83.01302
757.60        83.01389
758.02        83.25117
758.43        83.48148
758.85        82.92189
759.26        81.25008
759.68        81.35425
760.10         82.7859
760.51         83.2075
760.93         82.4328
761.34        81.51914
761.76        81.50981
762.18        81.21615
762.59        81.01837
763.01        81.21629
763.42        81.84518
763.84        82.41222
764.26        82.84868
764.67        83.23741
765.09        83.43033
765.50        83.31106
765.92        82.82084
766.33        81.47909
766.75        79.83684
767.16        79.30896
767.58        80.08647
768.00        81.66181
768.41        83.59315
768.83           85.03
769.24        85.39375
769.66        84.43271
770.07        82.78641
770.49        81.36206
770.90        80.52834
771.32        81.47054
771.73        83.50495
772.15        82.95393
772.56        80.30504
772.97        79.83677
773.39         81.4523
773.80        81.99271
774.22        81.24854
774.63        81.17513
775.05         81.7325
775.46        82.01892
775.88        81.93256
776.29        81.74132
776.70        81.52685
777.12        81.44726
777.53        81.55547
777.95        81.73351
778.36        81.88091
778.77        81.82197
779.19        81.56682
779.60        81.18265
780.02          80.808
780.43        80.76369
780.84        81.16193
781.26        81.38882
781.67        81.48874
782.09        82.63002
782.50        84.22558
782.91        83.43778
783.33        80.92821
783.74        80.13133
784.15        81.20177
784.57         81.8732
784.98        81.86392
785.39        81.88796
785.81        81.87875
786.22        81.47595
786.63        80.96246
787.04        80.91722
787.46        81.39976
787.87        82.23515
788.28        83.12984
788.70        83.57961
789.11        83.45811
789.52        82.93539
789.93        82.28938
790.35        81.89948
790.76        81.88136
791.17        82.18488
791.58        82.62003
792.00        82.83682
792.41        82.74132
792.82        82.38724
793.23        82.07539
793.65        82.04224
794.06        82.39545
794.47        83.63543
794.88        85.00941
795.29        84.41161
795.71        82.10403
796.12        79.91901
796.53        78.53799
796.94        78.06174
797.35        78.61516
797.76        80.00649
798.18        81.58934
798.59          82.615
799.00        82.69788
799.41        81.81884
799.82        80.48956
800.23        79.74089
800.64        79.80385
801.06        80.28159
801.47        80.98238
801.88        81.48152
802.29        81.61709
802.70        81.56083
803.11        81.39172
803.52        81.20284
803.93        81.05841
804.34        80.89202
804.75        80.75601
805.17        80.82037
805.58        81.13987
805.99        81.43867
806.40        81.60082
806.81        81.99925
807.22        82.30695
807.63        81.29451
808.04        79.45168
808.45        78.65347
808.86        79.08125
809.27        79.81964
809.68        80.54409
810.09        81.03485
810.50        81.11449
810.91        80.87004
811.32        80.46106
811.73        80.14836
812.14         80.0135
812.55        79.93441
812.96        79.94338
813.37        80.09898
813.78        80.38419
814.19        80.83537
814.60        81.20357
815.01        81.09185
815.42         80.4505
815.83        79.35563
816.24        78.24474
816.65        77.88851
817.05        78.51419
817.46        79.86987
817.87        81.37578
818.28        81.98763
818.69        81.43024
819.10        79.97109
819.51         78.3053
819.92        77.60774
820.33        78.17601
820.74        79.64688
821.14        81.33534
821.55        82.02522
821.96        81.45039
822.37         80.0304
822.78        78.38074
823.19        77.40823
823.60        77.35654
824.00        77.98495
824.41        78.88502
824.82        79.47874
825.23        79.52155
825.64        79.24239
826.04         78.8126
826.45        78.46216
826.86        78.26837
827.27        78.10308
827.68        77.98759
828.08        78.02231
828.49        78.14725
828.90        78.42357
829.31        78.68938
829.72        78.62724
830.12        78.20877
830.53        77.52229
830.94        76.88557
831.35        76.73324
831.75        77.19444
832.16          78.091
832.57        79.20557
832.97        80.06424
833.38        80.41428
833.79        80.36906
834.20        80.14274
834.60        80.07277
835.01        80.26905
835.42        80.60909
835.82        80.88931
836.23        80.70031
836.64        80.01119
837.04        79.00266
837.45        77.98842
837.86         77.4491
838.26        77.51031
838.67        77.99495
839.08        78.68261
839.48         79.1588
839.89        79.24558
840.29        79.08841
840.70         78.7749
841.11        78.42355
841.51        78.09873
841.92        77.71841
842.33        77.39236
842.73        77.32508
843.14        77.50964
843.54        77.95394
843.95        78.39707
844.35        78.45833
844.76        78.04884
845.17        77.30047
845.57        76.51247
845.98        76.15565
846.38        76.33071
846.79        76.87054
847.19        77.54968
847.60        77.87046
848.00        77.72913
848.41        77.26858
848.81        76.71504
849.22        76.32301
849.62        76.23238
850.03        76.37232
850.43        76.72923
850.84        77.19109
851.24        77.73283
851.65        78.18555
852.05        78.70636
852.46        79.36649
852.86        80.14577
853.27        81.03181
853.67        81.45887
854.07        80.70383
854.48        78.81911
854.88        76.08694
855.29        73.48512
855.69        72.42611
856.10        73.18549
856.50        75.57863
856.90        78.72239
857.31        80.55937
857.71        80.41444
858.12         78.8166
858.52        76.73509
858.92        75.45348
859.33        75.25671
859.73        75.79066
860.13        76.77625
860.54        77.64471
860.94         78.2014
861.34        78.58325
861.75        78.84788
862.15        79.15864
862.55        79.51836
862.96        79.83259
863.36        80.02279
863.76        79.95474
864.17        79.63106
864.57        79.18413
864.97        78.82338
865.38        78.84307
865.78        79.33595
866.18        80.12453
866.58         81.0274
866.99        81.71618
867.39        82.13247
867.79        82.39939
868.19         82.4111
868.60        81.98059
869.00        81.15903
869.40        80.00012
869.80        79.14138
870.21        79.56923
870.61        81.52152
871.01        84.68519
871.41        88.09042
871.81        90.06116
872.22        90.14065
872.62        88.80748
873.02         86.9685
873.42        86.19164
873.82          86.719
874.22        87.84349
874.63        89.14059
875.03        89.75539
875.43        89.25499
875.83        88.68223
876.23        87.16708
876.63        86.55763
877.03        86.88186
877.44        88.32181
877.84        102.6934
878.24        94.57832
878.64         94.6004
879.04        93.98458
879.44        90.57263
879.84        89.07666
880.24         92.4772
880.64        94.72922
881.04         96.4138
881.44        97.10533
881.84        95.93541
882.24        93.42525
882.65        90.99067
883.05        90.11878
883.45        91.03888
883.85        93.57302
884.25        96.70654
884.65        98.36671
885.05        97.92713
885.45        96.11018
885.85        93.99161
886.25        93.04475
886.65        93.57938
887.05        95.06669
887.45        96.95587
887.85        98.27558
888.25        98.64751
888.65        98.44794
889.04        97.83973
889.44        97.10239
889.84        96.37555
890.24        95.51373
890.64         94.7861
891.04        94.64216
891.44        95.11211
891.84        96.13042
892.24        97.18088
892.64        97.29234
893.04           96.33
893.44        94.72569
893.83        93.13932
894.23        92.53232
894.63        93.06847
895.03        94.34846
895.43        96.13972
895.83        97.97935
896.23        99.54284
896.63        100.9628
897.02        101.7272
897.42        101.0348
897.82         98.9233
898.22        95.72755
898.62        92.58582
899.01        91.17811
899.41        91.82579
899.81        93.97516
900.21        96.68526
900.61        98.39231
901.00        98.62961
901.40        97.87772
901.80        96.66393
902.20        95.81485
902.59        95.60669
902.99        95.76197
903.39        96.08223
903.79        96.26163
904.18        96.21203
904.58        96.13496
904.98        96.19181
905.38        96.59285
905.77        97.31061
906.17         98.1526
906.57        98.93117
906.96        99.45535
907.36        99.59441
907.76        99.43845
908.15        98.91872
908.55         97.8182
908.95        96.24295
909.34        94.29115
909.74        92.43965
910.14        91.22836
910.53        90.83759
910.93        91.21906
911.33        92.14977
911.72        93.17166
912.12        93.98885
912.52        94.60551
912.91        95.16528
913.31        95.94072
913.70        97.04794
914.10        98.40727
914.49        99.65166
914.89        99.77829
915.29        98.53229
915.68        96.31518
916.08        94.19141
916.47        93.08874
916.87         93.1311
917.26        94.04585
917.66        95.18759
918.05        95.54903
918.45        94.86243
918.84        93.47851
919.24        92.08556
919.64        91.65755
920.03         92.4384
920.42        94.11895
920.82         96.0492
921.21        97.26564
921.61        97.30132
922.00        96.48632
922.40        95.27884
922.79        94.30232
923.19        93.78037
923.58         93.5015
923.98        93.17529
924.37        92.50491
924.77        91.66476
925.16        89.03281
925.55         88.7739
925.95        89.05402
926.34        91.15012
926.74        94.32082
927.13        97.61113
927.52        99.24361
927.92        98.91164
928.31         97.1889
928.70        94.75128
929.10        92.74712
929.49        91.54234
929.89         90.8313
930.28        90.75831
930.67        91.57838
931.07        93.08848
931.46        95.29572
931.85        97.36996
932.24        98.03758
932.64        97.07626
933.03        94.69025
933.42        91.54445
933.82        89.22813
934.21        88.27106
934.60        88.31596
934.99        88.78986
935.39        89.06669
935.78        89.03503
936.17        88.61469
936.56        87.59711
936.96        88.26965
937.35        87.07534
937.74        86.92657
938.13        86.94047
938.53        87.56087
938.92        88.80832
939.31        90.71429
939.70        92.79365
940.09        93.59621
940.49        92.66935
940.88        90.63962
941.27        88.49276
941.66        87.40314
942.05        87.52805
942.44        88.43166
942.84        89.82697
943.23        91.29787
943.62        92.48754
944.01        93.50772
944.40        94.07098
944.79        93.71746
945.18        92.34682
945.57        89.90697
945.97        86.92002
946.36        84.88419
946.75        84.53108
947.14        85.45635
947.53         86.8372
947.92         87.7866
948.31        88.19514
948.70         88.3043
949.09        88.35867
949.48        88.81158
949.87        89.73492
950.26        90.81898
950.65        91.66201
951.04        91.76012
951.43        91.02291
951.82        89.66469
952.21        87.97064
952.60        86.44159
952.99        85.29216
953.38        84.38265
953.77        83.76669
954.16        83.47925
954.55        83.48209
954.94        83.87262
955.33        84.28373
955.72        84.06526
956.11        83.12104
956.50        81.56982
956.89        80.18986
957.28        80.42559
957.66         82.6624
958.05        86.18085
958.44         89.8494
958.83         91.9978
959.22        92.20506
959.61        90.88626
960.00        88.76286
960.39        87.03923
960.78        86.12269
961.16        85.74615
961.55        85.44721
961.94        84.47284
962.33        82.74049
962.72        80.70645
963.11        78.97607
963.49        78.25251
963.88        78.63158
964.27        79.92334
964.66        81.67088
965.04        82.88093
965.43        83.03394
965.82        82.45296
966.21        81.67691
966.60        81.46495
966.98        81.97968
967.37        82.89935
967.76        83.92036
968.15        84.45628
968.53        84.29494
968.92        83.65136
969.31        82.75302
969.69        81.82597
970.08        80.97887
970.47        80.17545
970.86        79.42672
971.24        78.78796
971.63        78.28738
972.02        77.93011
972.40        77.85747
972.79        78.24146
973.17        79.17728
973.56        80.49524
973.95        81.79237
974.33        82.28547
974.72        81.70123
975.11        80.27441
975.49        78.70959
975.88        78.03464
976.26        78.38624
976.65        79.57393
977.04        80.90721
977.42        80.71696
977.81        78.52614
978.19         75.0895
978.58        72.12469
978.96        71.31301
979.35        72.87037
979.74        76.39635
980.12        81.17245
980.51        84.39587
980.89        85.14072
981.28        84.09174
981.66        82.17907
982.05        80.61225
982.43        79.71598
982.82        79.09467
983.20        78.99891
983.59        79.93215
983.97        82.00388
984.35        85.24162
984.74        88.76767
985.12        90.71784
985.51        89.93724
985.89        86.79691
986.28         82.2998
986.66        78.19753
987.04        75.55397
987.43        74.14952
987.81        73.64375
988.20         73.5548
988.58        73.66544
988.96        74.04446
989.35         75.2163
989.73        78.04025
990.12        81.79658
990.50          85.459
990.88        87.03154
991.27        85.43961
991.65        81.24012
992.03        74.80042
992.42        68.25988
992.80        65.60248
993.18        67.84319
993.56        72.75723
993.95        78.04668
994.33         81.6163
994.71         82.9965
995.10        83.21578
995.48        82.38132
995.86        80.41257
996.24        77.44691
996.63        73.13096
997.01         68.5737
997.39        67.20466
997.77        70.39301
998.15        77.26318
998.54        84.67985
998.92        88.46269
999.30        87.33932
999.68        82.42507
1000.06         74.8682
1000.45        67.93396
1000.83        63.47417
1001.21        60.76641
1001.59        59.94466
1001.97        61.14046
1002.35         64.1234
1002.73        69.60043
1003.12        76.05393
1003.50        78.11607
1003.88        73.38342
1004.26        64.32582
1004.64        55.54254
1005.02        50.99013
1005.40        50.93095
1005.78        54.83724
1006.16        63.45296
1006.54        73.09128
1006.92        77.82759
1007.30        78.41183
1007.69        77.26254
1008.07        76.38956
1008.45        75.95609
1008.83        74.97418
1009.21        71.34406
1009.59          56.956
1009.97        13.00615
1010.35       -50.87059
1010.73       -43.08047
1011.11       -5.574763
1011.49        21.81789
1011.86        41.90691
1012.24        53.45575
1012.62        58.76939
1013.00        60.47618
1013.38        59.56806
1013.76        58.06512
1014.14        62.15585
1014.52        76.55905
1014.90        102.3293
1015.28        131.5833
1015.66         143.058
1016.04        124.8484
1016.41        82.97802
1016.79        40.01189
1017.17        18.71201
1017.55        16.94865
1017.93        22.71988
1018.31        30.26569
1018.69        37.29565
1019.06        44.23193
1019.44         52.6658
1019.82        64.62051
1020.20        79.95928
1020.58        96.97257
1020.95        113.9401
1021.33        121.6582
1021.71        167.8824
1022.09        137.0685
1022.46        139.3945
1022.84        143.6403
1023.22         152.974
1023.60        178.1681
1023.97         423.027
1024.35         11.8711
1024.73        63.15079
