SpectraSmart Spectrum 2.9.0.0
--------- Device Information -----------
Spectrum Name :  反射率_0
Saving Time :  2024/04/26 01:39:29
Spectro-Module Model Name : SE2030-DUVN
Spectro-Module Serial Number : OS361AC55029948
Wavelength Start : 200
Wavelength End : 1025
Wavelength Unit : Wavelength(nm)
Spectrum Unit : Reflectance(%)
-----------Spectrum Setting ------------
Integration Time : 20ms
Average : 10
Boxcar : 0
Background removal :  enabled
linearity correction :  enabled
SC :  disabled
Intensity correction :  disabled
DWT denoise :  enabled
savitzky-golay :  disabled
FFT :  disabled
Running average :  disabled
Kalman :  disabled
High pass :  disabled
---------------BEGIN--------------------
Wavelength(nm)             Reflectance(%)
200.29               0
200.75        95.73592
201.21        94.68758
201.67        91.98833
202.13        87.64609
202.58        82.03317
203.04        75.84104
203.50        70.21349
203.96        67.54139
204.42        68.19973
204.88          70.773
205.34        74.24055
205.80        78.13713
206.26        83.21563
206.72        92.25384
207.18        108.1658
207.64        120.3901
208.10        108.8532
208.55         87.9936
209.01         75.3169
209.47        71.59015
209.93        73.04713
210.39        78.04779
210.85        83.91393
211.31        84.80452
211.77        78.93849
212.23        68.58639
212.69        58.06525
213.14        53.96305
213.60        57.41802
214.06        66.76674
214.52        77.99124
214.98        84.84357
215.44        85.64928
215.90        82.22731
216.36        77.57278
216.81         75.7831
217.27        77.70571
217.73        81.58949
218.19        84.74483
218.65        83.70968
219.11           77.28
219.57        64.76743
220.02         47.8111
220.48        36.53636
220.94        37.35322
221.40        48.04041
221.86        59.51249
222.32         61.9159
222.77        55.91088
223.23        46.59617
223.69         38.7952
224.15        37.41731
224.61        41.90422
225.06        49.65244
225.52        57.25189
225.98        60.43753
226.44        58.43898
226.90        53.16546
227.36        46.90968
227.81        42.69233
228.27        41.55577
228.73        42.32287
229.19        44.08082
229.65        45.51195
230.10        46.17599
230.56        46.53806
231.02        46.85713
231.48        47.36797
231.93        48.08038
232.39        48.86121
232.85        49.49631
233.31        49.76019
233.77        49.60069
234.22        49.07762
234.68        48.46052
235.14        48.20257
235.60        48.47236
236.05         49.2051
236.51        50.07079
236.97        50.55827
237.43        50.60429
237.88        50.38161
238.34        50.30485
238.80        51.56151
239.26        54.54879
239.71        58.94754
240.17        63.51918
240.63        66.67274
241.08        67.98281
241.54        67.79573
242.00        66.92768
242.46        66.54451
242.91        67.43803
243.37        70.11161
243.83        80.29669
244.28        121.8906
244.74        184.1657
245.20        169.0341
245.66        146.3809
246.11        141.0242
246.57        147.9689
247.03        173.8687
247.48        246.8831
247.94        199.1678
248.40        118.5958
248.85        94.86063
249.31        88.39307
249.77        88.40594
250.22        92.16293
250.68         100.031
251.14        111.2809
251.59        117.0201
252.05        109.7313
252.51        94.31346
252.96        79.46742
253.42        72.90514
253.88        73.81133
254.33        79.10307
254.79        87.16904
255.25        95.01889
255.70        100.9322
256.16        105.7735
256.62        108.3779
257.07        107.5045
257.53        104.2323
257.99        98.91677
258.44        93.26955
258.90        90.40498
259.35        89.38647
259.81        89.34266
260.27         88.3788
260.72        84.63451
261.18        79.02437
261.63        72.34933
262.09        66.32522
262.55        62.16128
263.00        59.76791
263.46        58.61529
263.91        57.73978
264.37        56.49829
264.83        54.63127
265.28        52.27627
265.74        49.91796
266.19        48.01408
266.65        46.85371
267.11        46.16824
267.56        45.54747
268.02        44.50671
268.47        42.90163
268.93        40.91517
269.38        38.83644
269.84        37.40372
270.30        36.81525
270.75        36.85423
271.21        37.11944
271.66        37.00402
272.12         36.3389
272.57        35.30766
273.03        34.19323
273.48        33.32935
273.94        32.84161
274.39        32.57187
274.85        32.37023
275.31        32.01001
275.76        31.42862
276.22        30.73635
276.67        30.04747
277.13        29.61869
277.58        29.42761
278.04        29.41534
278.49        29.35813
278.95        29.01944
279.40        28.33727
279.86        27.46508
280.31        26.55324
280.77         25.9467
281.22         25.6634
281.68        25.61691
282.13        25.64643
282.59        25.56323
283.04        25.31725
283.50        25.02426
283.95        24.71423
284.41        24.45284
284.86        24.25987
285.32        24.11149
285.77        24.07026
286.22        24.30051
286.68        24.77312
287.13        25.39415
287.59        25.94445
288.04        26.08552
288.50        25.79134
288.95        25.15857
289.41        24.43031
289.86        23.86342
290.32        23.59562
290.77        23.54791
291.22        23.68058
291.68        23.88481
292.13        24.14191
292.59        24.51002
293.04        25.04132
293.50        25.80773
293.95        26.79523
294.40        27.92817
294.86        29.12534
295.31        30.28482
295.77        31.38361
296.22        32.45541
296.68        33.50627
297.13        34.51446
297.58        35.50761
298.04        36.51068
298.49        37.61379
298.95        39.01031
299.40        40.71795
299.85         42.6755
300.31        44.73658
300.76        46.65522
301.21        48.33385
301.67        49.86666
302.12        51.26633
302.58        52.66629
303.03        54.08495
303.48        55.51246
303.94        57.05222
304.39        58.80008
304.84        60.77034
305.30        62.92781
305.75        65.06001
306.20        66.86406
306.66        68.30043
307.11        69.40672
307.57          70.422
308.02        71.58533
308.47        73.01447
308.93        74.63935
309.38        76.30639
309.83        77.82944
310.29        79.13886
310.74         80.2507
311.19         81.2711
311.65         82.3591
312.10        83.53709
312.55        84.77408
313.00        85.89255
313.46        86.61634
313.91        86.88723
314.36        86.81744
314.82        86.72171
315.27        87.02353
315.72        87.84782
316.18        89.07057
316.63        90.40822
317.08        91.34512
317.53        91.73572
317.99        91.71022
318.44        91.57743
318.89        91.84293
319.35        92.60086
319.80        93.72153
320.25        94.83234
320.70        95.32063
321.16        95.05436
321.61        94.25237
322.06        93.32937
322.51        92.92587
322.97        93.17676
323.42        93.92206
323.87        94.84695
324.32        95.41199
324.78        95.44234
325.23        95.15239
325.68        94.73191
326.13        94.51479
326.59        94.58736
327.04        94.86328
327.49        95.26423
327.94        95.70415
328.39        96.13339
328.85        96.57233
329.30        97.02928
329.75        97.33372
330.20        97.47872
330.66        97.48888
331.11         97.5548
331.56        97.91515
332.01        98.64119
332.46        99.64479
332.92         100.773
333.37        101.9384
333.82        102.9594
334.27        103.8546
334.72        104.5154
335.17        104.7858
335.63        104.6719
336.08        104.2871
336.53        103.8391
336.98        103.7126
337.43        104.0182
337.88        104.6533
338.34        105.5177
338.79        106.5233
339.24        107.5499
339.69        108.6461
340.14        109.6118
340.59        110.1022
341.05        110.0755
341.50        109.6111
341.95        109.0831
342.40        109.0846
342.85        109.7377
343.30        110.8808
343.75        112.1681
344.20        112.9783
344.66        113.1384
345.11        112.8201
345.56        112.2962
346.01        111.9791
346.46        111.9904
346.91        112.1986
347.36        112.4728
347.81        112.6207
348.26        112.5964
348.72        112.5022
349.17        112.4012
349.62        112.4295
350.07        112.6087
350.52        112.8604
350.97        113.1147
351.42        113.2806
351.87        113.3265
352.32         113.291
352.77        113.1582
353.22        112.9032
353.67        112.5444
354.13        112.1055
354.58         111.658
355.03        111.3789
355.48         111.287
355.93        111.3203
356.38        111.3436
356.83        111.1372
357.28        110.6465
357.73        109.9466
358.18        109.1227
358.63        108.3124
359.08        107.5754
359.53        106.8821
359.98        106.2372
360.43        105.6462
360.88        105.0915
361.33        104.5628
361.78        104.0374
362.23        103.4717
362.68        102.8586
363.13        102.2277
363.58        101.5465
364.03        100.7637
364.48        99.88889
364.93        98.93566
365.38        98.03766
365.83        97.41393
366.28        97.08479
366.73        96.95882
367.18        96.84366
367.63        96.42489
368.08        95.63718
368.53        94.61421
368.98        93.47972
369.43        92.41345
369.88        91.48862
370.33        90.64947
370.78        89.96084
371.23        89.53419
371.68        89.36476
372.13        89.41901
372.58        89.52348
373.03        89.37399
373.48        88.89653
373.93        88.18103
374.38        87.37195
374.83         86.6981
375.28        86.22399
375.72        85.86724
376.17        85.60279
376.62        85.36684
377.07        85.11886
377.52        84.86629
377.97         84.5788
378.42        84.20104
378.87        83.73361
379.32        83.21235
379.77        82.64048
380.22        82.02064
380.67        81.36097
381.11        80.65536
381.56         79.9983
382.01         79.5514
382.46        79.34961
382.91        79.36876
383.36        79.41951
383.81         79.1953
384.26        78.64326
384.71        77.84903
385.15        77.04822
385.60        76.66689
386.05         76.7225
386.50        77.06609
386.95        77.40907
387.40        77.27369
387.85         76.5956
388.29        75.57076
388.74         74.5649
389.19        73.79049
389.64        73.29556
390.09        72.95577
390.54        72.79252
390.98        72.84703
391.43        73.07712
391.88        73.44394
392.33        73.72852
392.78        73.54382
393.23        72.87738
393.67        72.00623
394.12        71.24848
394.57        70.48708
395.02        69.95838
395.47        70.33839
395.91        71.43013
396.36        72.03683
396.81        71.98237
397.26        71.82306
397.71        71.62913
398.15        71.21889
398.60        70.73017
399.05        70.25076
399.50        69.80335
399.95        69.16387
400.39        68.69459
400.84        68.30846
401.29        68.12009
401.74        68.13801
402.18         68.3194
402.63        68.41698
403.08        68.46063
403.53        68.66283
403.97          69.007
404.42        69.33224
404.87        69.48717
405.32        69.29956
405.76        68.74551
406.21        67.94608
406.66        67.15211
407.11        66.74994
407.55        66.82561
408.00        67.21936
408.45        67.73984
408.90        68.04918
409.34        67.98303
409.79        67.54163
410.24        66.94549
410.68        66.62788
411.13        66.67855
411.58        66.88461
412.03        67.20123
412.47        67.61534
412.92        68.01928
413.37        68.43974
413.81        68.75211
414.26        68.80744
414.71        68.57421
415.15        68.08741
415.60         67.5146
416.05        67.15319
416.49        67.08888
416.94        67.26669
417.39        67.50853
417.83        67.49026
418.28        67.15424
418.73        66.61263
419.17        66.10732
419.62        66.02383
420.07        66.40192
420.51        67.10833
420.96        67.87138
421.41        68.21932
421.85        68.02156
422.30        67.58417
422.74        67.06944
423.19        66.70119
423.64        66.57034
424.08        66.88258
424.53        67.51222
424.98        67.96886
425.42          68.153
425.87        68.54239
426.31        69.04413
426.76        68.82499
427.21        68.18578
427.65        68.48591
428.10        69.61607
428.54        70.65808
428.99        71.04458
429.44        71.45015
429.88        71.68282
430.33        72.34365
430.77        72.89992
431.22        71.62804
431.66        69.15609
432.11        67.99688
432.56        68.37607
433.00        69.38665
433.45        70.84593
433.89        72.48493
434.34        72.95042
434.78        74.71845
435.23        71.32462
435.67        68.94834
436.12        71.64569
436.57        72.67548
437.01        73.33521
437.46        73.56126
437.90        73.51196
438.35        73.47148
438.79        73.68548
439.24        73.67628
439.68        73.54604
440.13         73.3544
440.57         73.3483
441.02        74.13451
441.46        75.40645
441.91        76.30789
442.35        76.54263
442.80        75.88304
443.24         74.8004
443.69        75.50646
444.13        77.49625
444.58        77.89114
445.02        75.75771
445.47        75.33809
445.91         76.2825
446.36        76.53508
446.80        76.05611
447.24        75.98957
447.69         76.3656
448.13        76.64947
448.58        76.90986
449.02        77.22687
449.47        77.58526
449.91         77.8745
450.36        78.07809
450.80        78.21814
451.25        78.27319
451.69        78.17186
452.13        77.94315
452.58        77.62077
453.02        77.32255
453.47        77.27245
453.91        77.48328
454.36        77.90237
454.80        78.38126
455.24        78.48406
455.69        78.13674
456.13        77.74651
456.58        77.56169
457.02        76.59789
457.46        76.64218
457.91        76.94669
458.35        77.69215
458.79        77.99841
459.24         77.8147
459.68        77.45132
460.13        76.99773
460.57        76.74376
461.01        76.66056
461.46        76.16635
461.90        75.73808
462.34        76.54271
462.79         75.7097
463.23        75.82084
463.68        76.27969
464.12        76.58959
464.56         76.7933
465.01        76.97416
465.45        76.89418
465.89        77.11391
466.34        76.54626
466.78        75.34197
467.22        73.79304
467.67        73.67125
468.11        74.91019
468.55        75.72663
468.99        75.76414
469.44        75.41494
469.88        74.89571
470.32        74.88469
470.77        75.30908
471.21        75.29738
471.65        74.81056
472.10        74.52177
472.54        74.52383
472.98         74.5751
473.42         74.6574
473.87        75.09374
474.31        75.62849
474.75        75.34983
475.20         74.4919
475.64        74.32583
476.08        74.84132
476.52        74.92901
476.97        74.55415
477.41        74.54169
477.85        74.90776
478.29        74.68192
478.74        74.75761
479.18        74.99184
479.62        74.00772
480.06        74.70364
480.50        74.98821
480.95        75.37963
481.39         75.4271
481.83        74.43035
482.27        74.80064
482.72        74.36252
483.16        73.35569
483.60        73.35162
484.04         75.1506
484.48        75.37249
484.93        74.80032
485.37        76.93634
485.81        77.29633
486.25        76.36823
486.69        103.4237
487.14        84.14352
487.58        52.13384
488.02        63.97731
488.46        72.69044
488.90        72.44608
489.34        73.51169
489.79        72.58403
490.23        74.89409
490.67        75.72298
491.11        74.46135
491.55        74.51398
491.99        75.38721
492.43        75.37388
492.88        74.54115
493.32         74.4525
493.76        74.59422
494.20        74.80892
494.64        74.85624
495.08        74.93063
495.52        75.07983
495.96        75.12051
496.41        74.99253
496.85        75.36185
497.29        75.99039
497.73        74.78516
498.17        72.79288
498.61        73.15099
499.05        75.81361
499.49        76.35184
499.93        76.37169
500.37        75.97641
500.82        75.15614
501.26        75.14501
501.70        75.70429
502.14        76.11287
502.58         76.1384
503.02        76.06053
503.46        75.85053
503.90        75.30338
504.34        74.65727
504.78        74.38711
505.22        74.54948
505.66        75.08868
506.10        75.85224
506.54        76.06472
506.98        75.51026
507.42        75.72533
507.86        75.68273
508.30        74.01611
508.74        75.23158
509.18        75.37714
509.62        75.70959
510.06        75.85298
510.50        75.78384
510.94         75.5368
511.38        75.20977
511.82        75.07643
512.26        75.18491
512.70        75.45004
513.14        75.76102
513.58        75.96666
514.02        76.01476
514.46        75.90647
514.90        75.69936
515.34        75.71014
515.78        75.57341
516.22        75.61729
516.66        75.68311
517.10        75.57317
517.54        75.27244
517.98         75.3315
518.42        75.09421
518.86        75.13653
519.30         75.2555
519.74        75.47742
520.18        75.74143
520.62        75.94324
521.06         76.0597
521.50        76.11792
521.93        76.12627
522.37        76.09707
522.81        76.04855
523.25        75.97935
523.69        75.94518
524.13        75.98988
524.57        76.11205
525.01        76.37434
525.45        76.72839
525.89        76.64777
526.32            76.8
526.76        76.65126
527.20        76.45731
527.64        76.29514
528.08        76.21604
528.52        76.12538
528.96        75.97092
529.40        75.90441
529.83        75.95734
530.27        75.32271
530.71        75.52203
531.15        75.40525
531.59        75.42844
532.03        75.52856
532.46        75.71149
532.90         75.9514
533.34        76.20712
533.78        76.47215
534.22        76.68462
534.66        76.76314
535.09         76.6843
535.53        76.50212
535.97         76.2555
536.41        76.03326
536.85        75.87312
537.28        75.76144
537.72        75.69758
538.16        75.69049
538.60        75.73426
539.04        75.76968
539.47        75.77361
539.91        75.91197
540.35        76.09229
540.79        76.00278
541.22        75.70462
541.66        75.60442
542.10        75.71955
542.54        75.82547
542.97        75.89395
543.41        75.99963
543.85        76.11746
544.29        76.25648
544.72        76.33282
545.16        76.23357
545.60        75.93971
546.04        75.52268
546.47        75.15864
546.91        75.04325
547.35        75.25743
547.79        75.96714
548.22        76.82455
548.66        77.03796
549.10        76.52859
549.53        75.71393
549.97        74.94654
550.41         74.5397
550.84        74.60246
551.28        75.08933
551.72        75.78473
552.15        76.17456
552.59        76.12226
553.03        76.20632
553.46        75.77914
553.90        75.69232
554.34         75.7756
554.77        75.87683
555.21         75.9306
555.65        76.09673
556.08        76.39635
556.52        75.87282
556.96        76.28885
557.39        76.13849
557.83        75.99911
558.27        75.89594
558.70        75.89403
559.14        76.01524
559.57        76.22819
560.01        76.53951
560.45        76.83765
560.88         76.9696
561.32        76.90936
561.75        76.60539
562.19        76.20983
562.63        75.83566
563.06        75.58854
563.50        75.68169
563.93        76.01066
564.37        76.21591
564.80        76.22372
565.24         76.2738
565.68        76.34259
566.11        76.30124
566.55        76.21473
566.98        76.12022
567.42         76.0782
567.85        76.19188
568.29        76.49388
568.72        76.64042
569.16        76.78082
569.60        77.31843
570.03        77.86825
570.47        77.80534
570.90         77.4654
571.34        75.61181
571.77        76.66646
572.21         76.6581
572.64        76.00531
573.08        75.20863
573.51        71.90412
573.95        74.77922
574.38        79.47234
574.82        77.44845
575.25        77.05848
575.69        74.43961
576.12         73.3954
576.56        72.37296
576.99        73.73154
577.42        77.47745
577.86        77.41412
578.29         76.9781
578.73        80.94453
579.16        74.52527
579.60        68.26902
580.03        71.18233
580.47        75.74581
580.90        77.68585
581.33        76.00367
581.77        75.25382
582.20        82.36019
582.64        82.41524
583.07        70.31277
583.51        68.72984
583.94        67.62743
584.37        70.60088
584.81        74.29418
585.24        78.23495
585.68         79.9031
586.11        79.02356
586.54        73.57999
586.98         70.8051
587.41        71.63776
587.85        75.09045
588.28        78.38132
588.71        74.31384
589.15        71.86519
589.58        73.48008
590.01        73.65353
590.45        74.87102
590.88        75.70059
591.31        74.98729
591.75        74.49789
592.18        74.47714
592.61         76.0541
593.05        76.51211
593.48        79.97945
593.91        80.94973
594.35        74.49754
594.78        72.52299
595.21        72.37183
595.65        75.74134
596.08        79.03043
596.51        75.29767
596.94        73.24714
597.38        73.76092
597.81        76.76177
598.24        78.79562
598.68        77.23935
599.11        76.04978
599.54        78.90651
599.97        80.53814
600.41        75.23016
600.84        75.20001
601.27        76.92942
601.70        75.60359
602.14        75.65192
602.57        74.51819
603.00        75.06673
603.43         76.9277
603.87        78.55933
604.30        78.04028
604.73        75.63973
605.16         74.5079
605.60        75.18749
606.03        76.41978
606.46        77.77219
606.89        77.26583
607.32        75.29333
607.76        74.84428
608.19        77.65417
608.62        76.73864
609.05        75.53952
609.48        76.03021
609.92        75.66869
610.35        75.45818
610.78        77.58337
611.21        78.35504
611.64        74.71516
612.07        75.51504
612.50        76.06438
612.94        76.57949
613.37        75.90828
613.80        75.85645
614.23        76.54984
614.66        76.14961
615.09        76.78899
615.52        76.92525
615.96         76.8866
616.39        77.29937
616.82        75.99245
617.25        75.49158
617.68        76.17478
618.11         76.7125
618.54        77.07459
618.97        76.65012
619.40        75.87152
619.84        75.46199
620.27        76.75844
620.70        77.43911
621.13        77.66938
621.56        76.99592
621.99        75.80553
622.42        76.53439
622.85         78.6649
623.28        78.45155
623.71        77.71294
624.14        77.81493
624.57        77.71843
625.00        76.91315
625.43        77.50671
625.86        76.77001
626.29        76.95671
626.72        77.17031
627.15        77.02982
627.58        77.20161
628.01        77.37708
628.44        77.46889
628.87        77.50056
629.30        77.66873
629.73        77.86253
630.16        78.15559
630.59        77.68462
631.02        77.32455
631.45        76.94833
631.88        76.63519
632.31         76.4118
632.74        76.55438
633.17        76.50166
633.60        76.62988
634.03        76.75095
634.46        76.89611
634.89        77.02305
635.32        77.07529
635.75        77.04836
636.18        76.93749
636.61        76.81331
637.04        76.79859
637.47        76.91228
637.89         77.1336
638.32        77.34879
638.75        77.40331
639.18        77.25993
639.61        77.04158
640.04        76.72057
640.47        76.50648
640.90        76.40975
641.33        76.38727
641.76        76.39919
642.18        76.49281
642.61        76.64686
643.04        76.67822
643.47        76.51208
643.90        77.02159
644.33        76.61056
644.76        76.57394
645.18        76.46963
645.61        76.37273
646.04        76.29084
646.47        76.20706
646.90        76.18191
647.33         76.2737
647.75        76.50753
648.18        76.83974
648.61        77.09701
649.04        77.17388
649.47        76.95115
649.89        76.02653
650.32        74.90344
650.75         74.7226
651.18        75.50822
651.61        76.60307
652.03        77.46872
652.46        77.44327
652.89        76.97824
653.32        76.23698
653.74        75.61137
654.17         77.3951
654.60        78.45269
655.03        75.14574
655.46        75.98366
655.88        80.64864
656.31        86.15531
656.74        195.3533
657.16        127.4525
657.59        44.87123
658.02        33.56995
658.45        57.94535
658.87        73.68911
659.30        76.90411
659.73        76.24031
660.15        73.58775
660.58        76.41076
661.01        78.45187
661.44        76.13092
661.86        75.27723
662.29        75.08356
662.72         75.9322
663.14        77.52618
663.57         77.4906
664.00        76.11387
664.42        75.83982
664.85        76.74933
665.27        77.28693
665.70        77.21954
666.13        77.04917
666.55        76.75623
666.98        76.18747
667.41        75.55511
667.83        75.27061
668.26        75.42136
668.69         75.8576
669.11        76.31252
669.54        76.72914
669.96        76.30654
670.39        75.74649
670.82        75.10587
671.24        74.87086
671.67        75.15515
672.09         75.7317
672.52        76.27781
672.94        76.87511
673.37        76.19091
673.80        75.99058
674.22        75.96207
674.65        75.85732
675.07        75.67695
675.50        75.44521
675.92         75.2617
676.35          75.299
676.77        75.57262
677.20        76.02039
677.62        76.40808
678.05        76.67836
678.47          76.728
678.90        76.61792
679.32        76.44274
679.75        76.20737
680.17        76.25372
680.60        76.32552
681.02        76.41868
681.45        76.27572
681.87        75.96853
682.30        75.59979
682.72        75.32207
683.15        75.25757
683.57        75.46396
684.00        75.86958
684.42        76.43514
684.85        76.71519
685.27        76.66842
685.70        76.42104
686.12        76.07875
686.54        75.87289
686.97        75.85606
687.39        75.91772
687.82        75.99184
688.24         76.1767
688.66        76.35592
689.09        76.22603
689.51        75.90269
689.94        75.83196
690.36        76.06505
690.78        76.35956
691.21        76.60373
691.63         76.7203
692.06         76.6788
692.48        76.51938
692.90        76.34637
693.33        76.30733
693.75        76.43506
694.17        76.68397
694.60        76.97878
695.02        77.16746
695.44        77.16747
695.87        77.23269
696.29         77.3801
696.71        76.98247
697.14        76.29597
697.56        76.74294
697.98        78.03459
698.41        77.88931
698.83        77.09775
699.25        76.66346
699.68        76.86914
700.10        76.87611
700.52        76.68713
700.94        76.74204
701.37        76.99385
701.79        77.25212
702.21        77.44546
702.64        77.63832
703.06        77.75608
703.48        77.67203
703.90        77.39051
704.33        76.95076
704.75        76.50285
705.17        76.34161
705.59        76.53334
706.01        76.94516
706.44        77.40884
706.86        77.89386
707.28        77.95456
707.70        77.92724
708.12        77.78291
708.55        77.63762
708.97        77.51174
709.39        77.37453
709.81        77.25986
710.23        77.23206
710.66        77.30126
711.08        77.49092
711.50        77.69615
711.92        77.75951
712.34         77.6493
712.76          77.393
713.19        77.12381
713.61        77.09554
714.03        77.34126
714.45        77.78458
714.87        78.22803
715.29        78.35793
715.71        78.11235
716.13         77.5989
716.56        77.01827
716.98        76.72588
717.40        76.80739
717.82        77.15619
718.24        77.61427
718.66        77.91244
719.08        77.96504
719.50        77.85152
719.92        77.65049
720.34        77.50829
720.76         77.4743
721.19         77.3726
721.61        77.42497
722.03        77.45243
722.45        77.51076
722.87        77.60509
723.29        77.72515
723.71        77.83833
724.13        77.92944
724.55        77.99795
724.97        78.04201
725.39         78.0666
725.81        78.07431
726.23         78.0653
726.65        78.04524
727.07        78.02126
727.49        78.00373
727.91         78.0048
728.33        78.02914
728.75        78.08166
729.17        78.15852
729.59        78.24474
730.01        78.35838
730.43        78.51886
730.85        78.72612
731.27        78.99921
731.69        79.24561
732.10        79.30399
732.52        79.16232
732.94        78.86513
733.36        78.57421
733.78        78.56948
734.20        78.92178
734.62        79.23594
735.04        80.42053
735.46        80.28905
735.88        79.45532
736.30         79.7106
736.72          80.991
737.13        81.46008
737.55        80.85634
737.97        80.65457
738.39        80.92411
738.81        80.27276
739.23        79.14446
739.65         80.0568
740.06        82.45619
740.48        82.73805
740.90        81.01122
741.32        80.15237
741.74        80.64813
742.16        80.84182
742.57        80.85458
742.99        81.53284
743.41        82.63764
743.83        83.28779
744.25        83.33286
744.67        82.99926
745.08        82.55733
745.50        82.46078
745.92        82.84199
746.34        83.50077
746.75        84.18464
747.17        84.68333
747.59        84.57529
748.01        84.27701
748.42         83.9483
748.84        83.93587
749.26        84.36208
749.68        85.20405
750.09        86.18199
750.51        86.71524
750.93        86.69959
751.35        86.29278
751.76        85.72029
752.18        85.50859
752.60        85.66285
753.01         85.6796
753.43        85.57357
753.85        85.79806
754.27        86.36933
754.68        87.07806
755.10        87.75772
755.52        88.30605
755.93        88.63006
756.35        88.67725
756.77        88.63891
757.18        88.64088
757.60        88.73385
758.02        89.38912
758.43        90.16765
758.85        89.30155
759.26        87.50079
759.68        86.87851
760.10        89.03324
760.51        89.67585
760.93        88.98712
761.34        87.57657
761.76        87.11687
762.18        86.43936
762.59         86.1537
763.01        86.50667
763.42        87.44223
763.84        88.17529
764.26        88.56418
764.67        88.87461
765.09        89.02724
765.50        88.87348
765.92        88.38501
766.33        87.20905
766.75        85.81979
767.16        85.27474
767.58        85.81097
768.00        87.42501
768.41        89.68073
768.83        91.20407
769.24        91.39088
769.66        90.40092
770.07        88.86513
770.49        87.33635
770.90        86.26054
771.32        87.30957
771.73        89.71294
772.15        89.16687
772.56        86.17713
772.97         85.5153
773.39        87.12654
773.80         87.6591
774.22         86.9119
774.63        86.96606
775.05        87.71036
775.46        88.06152
775.88        87.88173
776.29        87.49679
776.70        87.06551
777.12         86.8681
777.53        86.99874
777.95        87.30804
778.36        87.63959
778.77        87.71996
779.19        87.51725
779.60        87.11149
780.02        86.70871
780.43        86.67534
780.84        87.13097
781.26        87.60458
781.67        88.01416
782.09        88.91115
782.50        89.85968
782.91        88.96908
783.33        86.88148
783.74        86.22372
784.15        87.11986
784.57        87.83347
784.98        88.04418
785.39        87.97736
785.81        87.64504
786.22        87.20363
786.63        86.92448
787.04        87.00394
787.46        87.48931
787.87        88.42091
788.28        89.48366
788.70        89.99691
789.11        89.81304
789.52        89.23555
789.93        88.54491
790.35        87.93065
790.76        87.60128
791.17        87.93092
791.58        88.66947
792.00        88.92501
792.41        88.55968
792.82        88.02741
793.23        87.59589
793.65        87.26509
794.06        87.33868
794.47        88.53829
794.88        89.90569
795.29        90.64995
795.71         87.4688
796.12        85.48361
796.53        84.34649
796.94        84.01408
797.35        84.57048
797.76        85.92797
798.18        87.48878
798.59        88.47087
799.00        88.50577
799.41        87.59264
799.82        86.21285
800.23        85.35285
800.64        85.24155
801.06        85.48451
801.47         85.9981
801.88        86.53141
802.29        86.95377
802.70         87.3922
803.11        87.73387
803.52        87.75277
803.93        87.43687
804.34        86.80212
804.75        86.13699
805.17        85.98821
805.58        86.50719
805.99        87.35358
806.40        88.17306
806.81        88.80914
807.22        88.87631
807.63        87.54345
808.04        85.44191
808.45         84.4221
808.86        84.72332
809.27        85.51555
809.68        86.38976
810.09        86.90259
810.50         86.8333
810.91        86.35388
811.32        85.73515
811.73        85.40322
812.14         85.4744
812.55        85.75635
812.96        86.17142
813.37        86.58615
813.78        86.91267
814.19        87.24919
814.60        87.40186
815.01        87.05848
815.42        86.20803
815.83        84.90022
816.24        83.61842
816.65        83.21351
817.05        83.93158
817.46        85.51523
817.87        87.29411
818.28        88.05635
818.69          87.479
819.10        85.85267
819.51        83.98422
819.92        83.24721
820.33        83.98138
820.74        85.76175
821.14        87.75454
821.55        88.49554
821.96        87.67434
822.37        85.81087
822.78        83.68795
823.19        82.45704
823.60        82.42788
824.00        83.29706
824.41        84.55782
824.82        85.45282
825.23        85.65171
825.64        85.42489
826.04         84.9824
826.45        84.62072
826.86        84.43708
827.27        84.27258
827.68        84.12731
828.08         84.0795
828.49        84.06493
828.90        84.17706
829.31         84.2939
829.72        84.15872
830.12        83.76315
830.53        83.16961
830.94        82.67268
831.35         82.6789
831.75         83.2969
832.16        84.33723
832.57        85.54336
832.97        86.37404
833.38        86.55872
833.79        86.24986
834.20         85.7055
834.60        85.32133
835.01        85.24291
835.42        85.35394
835.82        85.50027
836.23        85.34201
836.64        84.85459
837.04        84.18343
837.45        83.57162
837.86        83.39298
838.26        83.73106
838.67        84.41227
839.08        85.20245
839.48        85.67922
839.89        85.66803
840.29        85.31996
840.70        84.77536
841.11        84.22726
841.51        83.76913
841.92         83.3268
842.33        82.98544
842.73        82.89881
843.14        83.04514
843.54        83.43801
843.95        83.86555
844.35        84.03136
844.76        83.84441
845.17        83.39362
845.57        82.85822
845.98        82.53836
846.38        82.50631
846.79        82.64664
847.19        82.86733
847.60        82.90512
848.00        82.73659
848.41        82.43803
848.81        82.12904
849.22        81.90105
849.62        81.84383
850.03        81.92382
850.43        82.17717
850.84        82.56239
851.24        83.08984
851.65        83.56094
852.05        84.08979
852.46        84.67825
852.86        85.30103
853.27        85.97961
853.67         86.2302
854.07        85.44942
854.48        83.70329
854.88        81.22338
855.29        78.89035
855.69         77.9692
856.10        78.69611
856.50        80.93025
856.90        83.85063
857.31        85.55167
857.71        85.43127
858.12         83.9632
858.52         82.0563
858.92        80.92898
859.33        80.84463
859.73        81.48326
860.13        82.56274
860.54        83.48801
860.94        84.07826
861.34        84.47544
861.75        84.75443
862.15        85.12195
862.55        85.58403
862.96        86.00166
863.36        86.33286
863.76          86.487
864.17        86.45129
864.57        86.35595
864.97        86.23799
865.38        86.12421
865.78        86.09018
866.18        86.04681
866.58        86.11646
866.99        86.48922
867.39        87.24275
867.79        88.35503
868.19         89.3957
868.60        89.55682
869.00        88.66742
869.40        86.93338
869.80        85.21349
870.21        84.86212
870.61        86.27318
871.01        89.05643
871.41        92.21264
871.81         94.0219
872.22        94.00938
872.62        92.69385
873.02        91.03783
873.42        90.62787
873.82        91.72855
874.22        93.75675
874.63        96.08462
875.03        97.28906
875.43        96.71287
875.83        95.23082
876.23        93.34908
876.63        92.73519
877.03        93.71823
877.44        96.53329
877.84        99.62199
878.24        103.5585
878.64        102.6288
879.04        100.0117
879.44        97.31601
879.84         96.0187
880.24         97.7057
880.64        99.64344
881.04         102.004
881.44        103.3844
881.84        102.6502
882.24        100.4729
882.65        98.19642
883.05        97.38367
883.45        98.30431
883.85        100.5913
884.25        103.3841
884.65         105.041
885.05        105.0029
885.45        103.8485
885.85        102.3702
886.25        101.6384
886.65         101.907
887.05        102.7942
887.45        103.9647
887.85        104.8409
888.25         105.183
888.65        105.2328
889.04         105.045
889.44         104.729
889.84        104.3428
890.24        103.7992
890.64        103.3002
891.04        103.1873
891.44        103.4912
891.84        104.1589
892.24        104.8249
892.64        104.8039
893.04        104.0237
893.44        102.8209
893.83        101.6753
894.23        101.2986
894.63        101.7942
895.03        102.8416
895.43        104.3021
895.83        105.8862
896.23        107.3428
896.63        108.7556
897.02        109.5772
897.42        108.9427
897.82        106.8651
898.22        103.7013
898.62        100.5975
899.01        99.23318
899.41        99.93351
899.81        102.1347
900.21        104.8728
900.61        106.5536
901.00        106.7103
901.40        105.8395
901.80        104.5071
902.20         103.606
902.59        103.4146
902.99        103.6072
903.39        103.9434
903.79        104.0486
904.18        103.8074
904.58        103.4565
904.98        103.1411
905.38        103.0372
905.77        103.1629
906.17        103.3997
906.57        103.6869
906.96        104.0113
907.36         104.281
907.76        104.5254
908.15        104.6132
908.55         104.211
908.95        103.3489
909.34         102.111
909.74        100.9048
910.14        100.1921
910.53        100.1307
910.93        100.6553
911.33        101.5541
911.72        102.4181
912.12        102.9964
912.52        103.3134
912.91        103.5529
913.31        104.0236
913.70         104.827
914.10         105.869
914.49        106.7755
914.89        106.5204
915.29        104.9187
915.68        102.4063
916.08        100.1009
916.47        98.94183
916.87        99.03748
917.26        100.0891
917.66        101.3856
918.05        101.8062
918.45        101.0607
918.84        99.54364
919.24        98.00714
919.64        97.53118
920.03        98.38764
920.42        100.2184
920.82        102.3791
921.21        103.9053
921.61        104.3027
922.00        103.9179
922.40         103.089
922.79        102.2488
923.19        101.5851
923.58        101.0001
923.98        100.4837
924.37        99.95169
924.77        99.54305
925.16        99.17056
925.55        99.33566
925.95        100.1164
926.34        101.5993
926.74        103.4082
927.13        105.0969
927.52        105.7298
927.92        105.2317
928.31        103.9084
928.70        102.1485
929.10        100.6204
929.49        99.53076
929.89        98.73318
930.28        98.47462
930.67        99.16315
931.07        100.6447
931.46        102.8228
931.85        104.8579
932.24        105.4934
932.64        104.5001
933.03        102.1371
933.42        98.99299
933.82        96.50878
934.21        95.22388
934.60        94.86111
934.99        95.07138
935.39        95.40307
935.78        95.77174
936.17        96.33321
936.56        96.90847
936.96        97.41093
937.35        96.81574
937.74        95.91405
938.13        95.21359
938.53        95.50874
938.92        96.81963
939.31        99.06029
939.70        101.5003
940.09        102.2341
940.49        100.6673
940.88        97.64038
941.27        94.53617
941.66        92.93942
942.05         93.0591
942.44        94.40206
942.84        96.36803
943.23        97.99217
943.62         98.7919
944.01        99.01653
944.40        98.93919
944.79        99.00549
945.18        99.34383
945.57        99.74981
945.97        99.88622
946.36        99.24012
946.75        97.84355
947.14        96.21606
947.53        94.84523
947.92         94.0452
948.31        93.79362
948.70        93.98421
949.09        94.54321
949.48        95.27843
949.87        96.00944
950.26        96.66724
950.65        97.23384
951.04        97.74331
951.43        98.18298
951.82         98.5088
952.21        98.47385
952.60        97.75606
952.99        96.37254
953.38        94.47492
953.77        92.62653
954.16        91.61659
954.55        91.58789
954.94        92.40318
955.33        93.39816
955.72        93.42098
956.11        92.21633
956.50        90.08712
956.89        87.95872
957.28         87.5429
957.66        89.35725
958.05        92.57781
958.44        96.09349
958.83        98.26645
959.22         98.6478
959.61        97.67674
960.00        95.91272
960.39        94.26835
960.78        93.10849
961.16        92.24753
961.55        91.47066
961.94        90.49467
962.33        89.31431
962.72        88.15466
963.11        87.35414
963.49        87.29012
963.88        87.96704
964.27        89.28072
964.66        90.70357
965.04        91.17295
965.43        90.25001
965.82        88.37051
966.21        86.36064
966.60        85.25896
966.98        85.26263
967.37         86.0618
967.76        87.18998
968.15        87.73327
968.53        87.39978
968.92        86.45281
969.31        85.42898
969.69        85.02139
970.08        85.36584
970.47        86.25967
970.86        87.19512
971.24        87.31136
971.63        86.34449
972.02        84.52447
972.40        82.61025
972.79        81.91264
973.17        82.96843
973.56        85.36934
973.95          88.237
974.33        89.82876
974.72        89.50922
975.11        87.78822
975.49        85.75655
975.88        84.94474
976.26        85.59846
976.65        87.39505
977.04        89.33623
977.42        89.08222
977.81        85.97985
978.19        81.17238
978.58        77.02541
978.96        75.92908
979.35        78.22857
979.74        83.38342
980.12        90.35173
980.51        95.35607
980.89        96.87846
981.28        95.74033
981.66        93.20219
982.05        90.97992
982.43        89.53322
982.82        88.42181
983.20          87.702
983.59        87.58564
983.97          88.133
984.35        89.42409
984.74         91.0839
985.12        92.48404
985.51        92.97246
985.89        92.57531
986.28        91.31807
986.66        89.24323
987.04        86.89478
987.43         84.6271
987.81        82.66173
988.20          81.118
988.58        79.87185
988.96        78.64967
989.35        78.03296
989.73        80.01096
990.12        84.73833
990.50        90.74017
990.88        94.96774
991.27        95.71112
991.65        93.53123
992.03        88.95546
992.42        83.62032
992.80        80.59136
993.18        80.95316
993.56        83.21454
993.95        85.95119
994.33        87.93861
994.71        88.78291
995.10        89.15923
995.48        88.95345
995.86        87.76043
996.24        85.56302
996.63        82.13184
997.01        78.33139
997.39        76.88264
997.77        78.91646
998.15        83.74464
998.54        88.92811
998.92        91.28978
999.30        89.80997
999.68        85.39761
1000.06        79.12599
1000.45        73.85912
1000.83        70.99948
1001.21        69.75384
1001.59        69.97017
1001.97        71.53986
1002.35        74.28387
1002.73        78.88606
1003.12        83.94979
1003.50        84.99995
1003.88        80.14935
1004.26        71.60917
1004.64        63.67667
1005.02        60.04647
1005.40        61.03647
1005.78        66.55585
1006.16        77.06341
1006.54        86.96353
1006.92        89.82418
1007.30        87.83732
1007.69        84.93678
1008.07        83.86215
1008.45        84.90948
1008.83        87.98772
1009.21        94.32434
1009.59         101.936
1009.97        93.13805
1010.35        45.51849
1010.73         16.3428
1011.11         25.2979
1011.49        40.13384
1011.86        53.79054
1012.24        62.66259
1012.62        67.76591
1013.00        70.97146
1013.38         73.5604
1013.76        77.30556
1014.14        85.77004
1014.52        100.9271
1014.90        122.1778
1015.28        143.5149
1015.66        152.0917
1016.04         140.174
1016.41        110.6954
1016.79        77.14032
1017.17        53.90815
1017.55        43.56145
1017.93        40.27393
1018.31         41.0733
1018.69        45.04406
1019.06        52.13889
1019.44        63.52836
1019.82        81.94034
1020.20        107.1007
1020.58        137.6662
1020.95        175.5948
1021.33        235.0232
1021.71       -669.7262
1022.09        50.82584
1022.46        90.94499
1022.84        104.7285
1023.22        112.6626
1023.60        122.9142
1023.97        194.2356
1024.35        76.62418
1024.73         87.6133
