SpectraSmart Spectrum 2.9.0.0
--------- Device Information -----------
Spectrum Name :  反射率_0
Saving Time :  2024/04/26 01:40:40
Spectro-Module Model Name : SE2030-DUVN
Spectro-Module Serial Number : OS361AC55029948
Wavelength Start : 200
Wavelength End : 1025
Wavelength Unit : Wavelength(nm)
Spectrum Unit : Reflectance(%)
-----------Spectrum Setting ------------
Integration Time : 20ms
Average : 10
Boxcar : 0
Background removal :  enabled
linearity correction :  enabled
SC :  disabled
Intensity correction :  disabled
DWT denoise :  enabled
savitzky-golay :  disabled
FFT :  disabled
Running average :  disabled
Kalman :  disabled
High pass :  disabled
---------------BEGIN--------------------
Wavelength(nm)             Reflectance(%)
200.29               0
200.75        98.05605
201.21        96.51056
201.67        93.27583
202.13        89.93133
202.58        86.92616
203.04        84.43552
203.50         81.9431
203.96        79.04778
204.42        76.14518
204.88        73.53022
205.34        72.05477
205.80        72.66681
206.26        75.98664
206.72        84.30087
207.18        100.8375
207.64        114.8914
208.10         104.567
208.55        84.21939
209.01         71.7569
209.47         68.4055
209.93        70.60506
210.39        76.69514
210.85         84.0666
211.31        86.88028
211.77        83.12518
212.23        74.86977
212.69        66.73194
213.14        65.82637
213.60        73.18692
214.06         86.6679
214.52        100.8271
214.98        107.4638
215.44        104.8865
215.90        96.04316
216.36        85.64591
216.81        80.23245
217.27         81.1512
217.73        85.77644
218.19        90.43868
218.65        90.44592
219.11        84.25629
219.57        71.46671
220.02        53.79264
220.48         41.7173
220.94        41.92089
221.40        51.82787
221.86        62.33305
222.32        63.59974
222.77        56.34038
223.23        45.88577
223.69        36.90554
224.15        34.06433
224.61        36.82858
225.06        42.64763
225.52         48.4974
225.98        50.74025
226.44        48.75094
226.90        44.35461
227.36        39.27319
227.81        35.70253
228.27        34.55841
228.73        34.83519
229.19        36.44088
229.65        39.21413
230.10        42.54016
230.56        46.14505
231.02        49.14896
231.48        50.52428
231.93        50.34539
232.39         49.0629
232.85        47.45395
233.31        46.79378
233.77         47.4021
234.22         48.9547
234.68        50.96289
235.14        52.32192
235.60        52.66047
236.05        52.41575
236.51        52.04167
236.97        52.17741
237.43        53.12057
237.88        54.81984
238.34        57.39165
238.80        60.98856
239.26        65.25397
239.71        70.12538
240.17        74.46739
240.63        77.07966
241.08        77.84307
241.54        76.91192
242.00        75.58799
242.46        75.91251
242.91        79.45784
243.37        89.04745
243.83        118.1319
244.28        204.2578
244.74        285.6219
245.20        221.3473
245.66        171.7619
246.11         158.199
246.57        164.5034
247.03        196.4103
247.48        294.3098
247.94         246.922
248.40        142.5802
248.85        110.6776
249.31        101.2679
249.77        99.82436
250.22        102.5735
250.68        109.1169
251.14        119.3665
251.59         127.228
252.05        125.9497
252.51        118.1761
252.96        108.6418
253.42        102.5172
253.88        99.62396
254.33        98.15659
254.79        98.97797
255.25        102.6082
255.70        107.7687
256.16        113.7172
256.62         117.933
257.07         117.869
257.53        114.5841
257.99        109.0242
258.44        103.0049
258.90        99.80515
259.35        98.48105
259.81        98.05907
260.27        96.86324
260.72        93.26631
261.18        88.12226
261.63        82.07627
262.09        76.46185
262.55        71.98662
263.00        68.67558
263.46        66.33984
263.91         64.4649
264.37        62.93082
264.83        61.40815
265.28        59.79967
265.74        58.16903
266.19        56.30433
266.65        54.48678
267.11        52.78191
267.56        51.18541
268.02        49.67295
268.47        48.11399
268.93        46.52014
269.38        44.96968
269.84        43.83235
270.30        43.18471
270.75        42.93562
271.21        42.82422
271.66        42.44474
272.12        41.68806
272.57        40.65298
273.03        39.56833
273.48        38.69263
273.94        38.12856
274.39         37.7445
274.85        37.40881
275.31        36.90278
275.76         36.1689
276.22        35.31956
276.67        34.46066
277.13        33.85252
277.58        33.47611
278.04        33.28854
278.49        33.08265
278.95        32.65349
279.40        31.93448
279.86        31.07083
280.31        30.18606
280.77        29.59351
281.22        29.29921
281.68        29.23115
282.13        29.23532
282.59        29.14484
283.04        28.90771
283.50        28.63056
283.95        28.33726
284.41        28.09278
284.86        27.91033
285.32        27.77054
285.77        27.72056
286.22        27.90639
286.68        28.30127
287.13        28.81799
287.59        29.26744
288.04        29.34799
288.50        29.04554
288.95        28.44556
289.41        27.76708
289.86         27.2244
290.32        26.94806
290.77        26.86329
291.22        26.96203
291.68        27.18227
292.13        27.50983
292.59        27.99121
293.04        28.62773
293.50        29.41379
293.95        30.32501
294.40        31.31553
294.86         32.3767
295.31        33.51628
295.77        34.73179
296.22         36.0162
296.68        37.30287
297.13        38.45328
297.58        39.45755
298.04        40.37098
298.49        41.32897
298.95        42.59819
299.40        44.21884
299.85        46.11319
300.31        48.10638
300.76          49.909
301.21        51.42156
301.67        52.76342
302.12        53.99403
302.58         55.3137
303.03        56.74498
303.48        58.25408
303.94        59.88409
304.39         61.6387
304.84        63.51461
305.30        65.50372
305.75        67.45327
306.20        69.15645
306.66        70.59514
307.11        71.77534
307.57        72.87957
308.02        74.05849
308.47        75.41648
308.93        76.91766
309.38        78.46465
309.83        79.95779
310.29        81.34779
310.74        82.61987
311.19        83.82953
311.65        85.06234
312.10        86.31719
312.55        87.57691
313.00         88.7013
313.46        89.47464
313.91        89.85083
314.36        89.92514
314.82        89.95503
315.27        90.27746
315.72        91.00973
316.18        92.05814
316.63        93.23017
317.08        94.15623
317.53         94.7195
317.99        95.00143
318.44         95.2049
318.89        95.66798
319.35        96.44389
319.80        97.45688
320.25         98.4128
320.70        98.83561
321.16        98.63362
321.61        97.97212
322.06        97.22459
322.51        96.97331
322.97        97.32858
323.42        98.15709
323.87        99.12796
324.32         99.6682
324.78        99.60757
325.23        99.17541
325.68        98.61507
326.13        98.35367
326.59        98.49837
327.04        98.93575
327.49         99.5471
327.94        100.1748
328.39        100.7379
328.85        101.2721
329.30        101.7749
329.75        102.0525
330.20         102.105
330.66        101.9642
331.11         101.874
331.56        102.1602
332.01        102.9164
332.46        104.0356
332.92        105.3241
333.37        106.6217
333.82        107.7114
334.27         108.632
334.72        109.2793
335.17        109.5083
335.63        109.3387
336.08        108.8833
336.53        108.3792
336.98        108.2614
337.43        108.6522
337.88        109.4396
338.34        110.4907
338.79        111.6644
339.24        112.8144
339.69        113.9875
340.14        114.9981
340.59        115.5284
341.05        115.5462
341.50        115.1319
341.95         114.618
342.40        114.5385
342.85        115.0168
343.30        115.9104
343.75        116.9813
344.20        117.7904
344.66        118.1934
345.11        118.2944
345.56        118.2007
346.01        118.0742
346.46        117.9903
346.91        117.9047
347.36        117.8242
347.81        117.7756
348.26        117.7712
348.72        117.8365
349.17        117.9679
349.62        118.1889
350.07        118.4773
350.52        118.7998
350.97        119.0777
351.42        119.2021
351.87        119.1499
352.32        118.9524
352.77        118.6624
353.22        118.3711
353.67        118.1153
354.13         117.893
354.58         117.672
355.03        117.4602
355.48        117.2472
355.93        117.0288
356.38        116.7878
356.83         116.494
357.28        116.1297
357.73        115.6912
358.18        115.1671
358.63        114.5439
359.08        113.8362
359.53        113.0744
359.98        112.2874
360.43        111.5143
360.88        110.7713
361.33        110.0459
361.78        109.3775
362.23        108.8266
362.68        108.3948
363.13        108.0679
363.58        107.7328
364.03        107.2093
364.48        106.4624
364.93        105.5362
365.38         104.573
365.83        103.8122
366.28        103.3015
366.73        102.9566
367.18        102.6378
367.63         102.119
368.08        101.3557
368.53        100.4556
368.98        99.50897
369.43        98.63716
369.88        97.88313
370.33        97.19884
370.78        96.61768
371.23        96.20066
371.68        95.94466
372.13        95.84112
372.58        95.77276
373.03        95.53645
373.48        95.08964
373.93        94.48645
374.38        93.86511
374.83        93.44138
375.28        93.25459
375.72        93.21992
376.17        93.22352
376.62        93.06044
377.07        92.66682
377.52        92.08992
377.97        91.42566
378.42        90.82771
378.87        90.34997
379.32        89.97257
379.77         89.5929
380.22        89.05319
380.67        88.32502
381.11        87.45135
381.56        86.60496
382.01        86.07321
382.46        85.92122
382.91        86.07856
383.36        86.27306
383.81        86.07263
384.26        85.39874
384.71        84.38593
385.15        83.35249
385.60        82.84653
386.05        82.91034
386.50        83.36035
386.95        83.84691
387.40        83.78735
387.85        83.09108
388.29        81.98808
388.74        80.91081
389.19        80.13592
389.64         79.7211
390.09        79.51234
390.54        79.49023
390.98        79.62765
391.43        79.85804
391.88        80.16826
392.33        80.37442
392.78        80.10011
393.23         79.3448
393.67        78.46767
394.12        77.78538
394.57        76.86422
395.02        76.31038
395.47        76.77908
395.91        78.14724
396.36        78.94671
396.81        78.96524
397.26        78.88052
397.71        78.76693
398.15        78.37794
398.60        77.86195
399.05        77.39369
399.50         76.9716
399.95        76.19996
400.39        75.52987
400.84        75.18299
401.29        74.96416
401.74        75.25475
402.18        75.76447
402.63        75.70377
403.08        75.22679
403.53        75.28456
403.97        75.90465
404.42        76.48979
404.87        76.79886
405.32         76.6764
405.76        76.06471
406.21         75.1757
406.66        74.26435
407.11        73.59197
407.55        73.35038
408.00        73.62754
408.45        74.24963
408.90        74.84327
409.34        75.06333
409.79        74.43634
410.24        73.30188
410.68        72.73876
411.13        72.86837
411.58        73.08726
412.03         73.3227
412.47        73.71529
412.92        74.15025
413.37        74.61588
413.81        74.96434
414.26        75.01584
414.71        74.73124
415.15        74.15312
415.60        73.49007
416.05        73.10302
416.49        73.09105
416.94        73.38536
417.39        73.74808
417.83        73.74715
418.28        73.30859
418.73        72.58943
419.17        71.90385
419.62        71.74747
420.07        72.16419
420.51        72.96702
420.96        73.84106
421.41        74.18288
421.85        73.82153
422.30        73.30098
422.74        72.73111
423.19         71.8512
423.64        70.95939
424.08        71.21231
424.53        72.40305
424.98        73.04703
425.42        72.95946
425.87        73.13261
426.31        73.55575
426.76        73.39357
427.21          72.903
427.65        73.14473
428.10        73.98391
428.54        74.88448
428.99        75.23891
429.44        75.37444
429.88        75.22633
430.33        76.03802
430.77        77.07645
431.22        75.88242
431.66        73.05256
432.11        71.37054
432.56        71.25472
433.00        72.12648
433.45        73.78694
433.89        75.74002
434.34        76.52645
434.78        77.69508
435.23        74.36023
435.67        71.90042
436.12        74.18592
436.57        75.26399
437.01        76.17889
437.46        76.44877
437.90        76.18008
438.35        76.08289
438.79        76.17943
439.24        76.11493
439.68         75.9163
440.13        75.65443
440.57        75.59663
441.02        76.35777
441.46        77.62342
441.91        78.62103
442.35        78.96148
442.80        78.05753
443.24        76.43601
443.69        76.87128
444.13        78.97011
444.58        78.94592
445.02        77.04601
445.47        76.78175
445.91         78.0387
446.36        78.38184
446.80        77.72437
447.24        77.39153
447.69        77.53941
448.13        77.44756
448.58        77.92652
449.02        78.32518
449.47        78.78257
449.91        79.18195
450.36        79.45472
450.80        79.53394
451.25        79.42107
451.69        79.14491
452.13        78.78059
452.58        78.40737
453.02        78.11024
453.47        77.99774
453.91        78.07741
454.36        78.35806
454.80        78.71845
455.24        78.83186
455.69        78.65205
456.13        78.38548
456.58        78.15987
457.02        77.74487
457.46        77.36713
457.91        77.63789
458.35        78.34696
458.79        78.64702
459.24        78.50378
459.68         78.2335
460.13        77.87939
460.57        77.58155
461.01        77.49264
461.46        76.48479
461.90        76.21399
462.34        76.56325
462.79        75.56855
463.23        75.93261
463.68        76.77999
464.12        77.41331
464.56         77.6396
465.01        77.89198
465.45        78.02415
465.89        77.80373
466.34        77.19054
466.78        76.10341
467.22        75.14843
467.67        73.93975
468.11        75.42159
468.55        76.11026
468.99        76.48491
469.44        76.24245
469.88         75.5866
470.32        75.50804
470.77        75.93401
471.21        75.91727
471.65        75.41991
472.10        75.14304
472.54        75.14697
472.98        75.15182
473.42        75.13725
473.87        75.40026
474.31        75.74722
474.75        75.44938
475.20         74.7234
475.64        74.62755
476.08         75.1171
476.52        75.25679
476.97        75.03277
477.41        74.96607
477.85        75.06283
478.29         75.1907
478.74        75.80127
479.18        75.50129
479.62        74.26112
480.06        74.69475
480.50        75.16416
480.95        75.59869
481.39        75.45215
481.83        74.84167
482.27        74.89842
482.72        74.33689
483.16        73.18539
483.60        73.26676
484.04        74.98775
484.48        75.42513
484.93        75.19922
485.37        76.93266
485.81         77.5472
486.25         75.8958
486.69        103.2693
487.14         83.3849
487.58        52.12537
488.02        63.50152
488.46        72.34376
488.90        71.60352
489.34        74.06049
489.79        72.87082
490.23        75.00445
490.67        75.73347
491.11        74.74597
491.55        74.70521
491.99         75.1515
492.43        74.93063
492.88        74.14284
493.32        74.13217
493.76        74.35389
494.20        74.62881
494.64        74.67565
495.08        74.79202
495.52        75.01628
495.96        74.84875
496.41          74.341
496.85        74.88107
497.29         76.0658
497.73        74.72791
498.17        72.03809
498.61        72.18442
499.05         75.1763
499.49        75.91541
499.93        75.91174
500.37        75.63659
500.82        75.08691
501.26        74.87818
501.70        75.54964
502.14        75.85429
502.58         75.8985
503.02         75.3642
503.46        75.48753
503.90        75.04099
504.34        74.53429
504.78        74.28296
505.22        74.36559
505.66        74.70644
506.10        75.18019
506.54        75.48121
506.98        75.42583
507.42        75.19273
507.86        75.04879
508.30        73.88911
508.74        74.58942
509.18         74.6631
509.62        74.82643
510.06        74.91177
510.50        74.89349
510.94        74.78681
511.38        74.65027
511.82        74.64278
512.26        74.78773
512.70        75.03272
513.14        75.30048
513.58        75.46967
514.02        75.49997
514.46        75.42384
514.90        75.30004
515.34        75.20746
515.78        75.16238
516.22        75.19433
516.66        75.26159
517.10         75.1545
517.54         74.8606
517.98        74.93041
518.42        74.69498
518.86        74.74971
519.30        74.88628
519.74        75.12874
520.18        75.40338
520.62        75.58518
521.06         75.6488
521.50        75.62994
521.93        75.55558
522.37        75.46916
522.81         75.4001
523.25        75.33652
523.69        75.31281
524.13        75.38391
524.57        75.55058
525.01        75.79331
525.45        76.04768
525.89        76.20602
526.32        76.23036
526.76        76.14751
527.20        75.99687
527.64        75.86491
528.08        75.79611
528.52        75.70594
528.96        75.55337
529.40        75.48706
529.83        75.54263
530.27         74.9187
530.71        75.12605
531.15        75.01765
531.59         75.0455
532.03        75.14431
532.46        75.32721
532.90        75.57977
533.34        75.86134
533.78        76.16378
534.22        76.40276
534.66        76.46329
535.09        76.31957
535.53        76.03624
535.97          75.692
536.41        75.43785
536.85        75.32365
537.28        75.31818
537.72        75.37198
538.16        75.41482
538.60        75.42203
539.04        75.35743
539.47        75.24934
539.91        75.33966
540.35        75.55249
540.79        75.55486
541.22        75.35651
541.66        75.28316
542.10        75.33655
542.54        75.31974
542.97        75.26027
543.41          75.319
543.85        75.48823
544.29        75.74286
544.72        75.94561
545.16        75.91204
545.60        75.60765
546.04        75.10183
546.47        74.60555
546.91        74.45349
547.35        74.70979
547.79        75.32156
548.22        75.98564
548.66         76.1998
549.10        75.85801
549.53        75.10686
549.97        74.27817
550.41         73.8417
550.84        73.91444
551.28        74.32519
551.72         74.8885
552.15        75.28953
552.59         75.4081
553.03        75.39788
553.46        75.33338
553.90        75.21446
554.34        75.03928
554.77        75.39742
555.21        75.08065
555.65        75.08458
556.08        75.37151
556.52         74.8282
556.96        75.25105
557.39        75.02794
557.83        74.78648
558.27        74.77689
558.70        74.99345
559.14        75.17504
559.57        75.27061
560.01        75.36329
560.45        75.43935
560.88        75.59221
561.32        75.73494
561.75        75.46791
562.19        74.93687
562.63        74.45827
563.06        74.19266
563.50        74.36304
563.93        74.82051
564.37        75.12366
564.80        75.13754
565.24        74.98551
565.68        74.74332
566.11        74.61642
566.55        74.70073
566.98        74.76588
567.42        74.80416
567.85        75.13327
568.29         75.6749
568.72        75.55253
569.16        75.00472
569.60          75.551
570.03        76.06509
570.47        76.06369
570.90        75.55647
571.34        74.35007
571.77        74.91554
572.21        75.18114
572.64        74.67773
573.08        73.67581
573.51        70.19597
573.95        72.94099
574.38        77.74599
574.82        75.73482
575.25        75.26443
575.69        72.77052
576.12        71.55583
576.56        71.00801
576.99        72.72826
577.42        75.43926
577.86        75.66754
578.29        74.85632
578.73        79.04153
579.16        72.82462
579.60        66.55984
580.03        69.57458
580.47        74.16125
580.90        75.68444
581.33        74.33178
581.77        73.42764
582.20         80.9393
582.64        80.63609
583.07        68.82101
583.51        67.43485
583.94        66.11645
584.37         69.0643
584.81        72.68957
585.24        76.66315
585.68        78.45512
586.11        77.08035
586.54        71.52164
586.98        69.04478
587.41        70.08022
587.85        74.13799
588.28        76.42574
588.71        72.63866
589.15        70.38448
589.58        71.88789
590.01        72.08881
590.45        73.11252
590.88        74.17059
591.31        73.51245
591.75        72.99293
592.18        73.06888
592.61        74.82883
593.05        75.10278
593.48        78.43571
593.91         79.5431
594.35        72.73867
594.78        71.20964
595.21        70.70351
595.65        74.01501
596.08        77.15176
596.51        73.99204
596.94        71.88108
597.38        72.44701
597.81        75.23589
598.24        77.26508
598.68        75.48511
599.11        74.12064
599.54        77.39182
599.97        79.17898
600.41        73.13924
600.84        73.17538
601.27        74.81949
601.70        73.75197
602.14        74.29036
602.57        72.80195
603.00        73.31394
603.43        75.00484
603.87        76.26548
604.30         76.1093
604.73        74.02053
605.16        72.37384
605.60        73.43134
606.03        74.57005
606.46         75.8876
606.89        75.49574
607.32        73.14698
607.76        73.00259
608.19        75.45911
608.62         74.7648
609.05        73.46304
609.48        73.99583
609.92        73.84736
610.35        73.14223
610.78        75.57523
611.21         76.4998
611.64        72.71197
612.07        73.45648
612.50         73.9899
612.94         74.5263
613.37        73.93029
613.80        73.97536
614.23        74.66083
614.66        74.43185
615.09         74.5822
615.52        74.59396
615.96        74.65102
616.39        74.72077
616.82        73.51832
617.25        73.40128
617.68        73.99825
618.11        74.70941
618.54        75.16665
618.97        74.76327
619.40        73.95812
619.84        73.44698
620.27        74.73385
620.70        75.58655
621.13        76.10415
621.56        75.30813
621.99        73.67485
622.42        74.28223
622.85        76.59457
623.28        76.38168
623.71         75.7383
624.14        75.41048
624.57        75.35688
625.00        75.19381
625.43        75.38444
625.86        74.79105
626.29        75.00934
626.72        75.33766
627.15        75.15058
627.58        75.17207
628.01        75.07119
628.44        75.52501
628.87        75.43187
629.30        75.75433
629.73        76.09939
630.16        76.25656
630.59        76.07578
631.02        75.63853
631.45        75.08257
631.88        74.72794
632.31        74.64299
632.74        74.69312
633.17        74.81157
633.60        74.92155
634.03        74.98199
634.46        75.02202
634.89        75.04431
635.32        75.05009
635.75        75.04452
636.18        75.01228
636.61        74.97954
637.04        74.99734
637.47        75.06758
637.89        75.19772
638.32        75.32085
638.75         75.3373
639.18        75.22138
639.61        75.15643
640.04        74.91839
640.47        74.77809
640.90        74.68462
641.33         74.6262
641.76        74.57928
642.18        74.61722
642.61         74.7353
643.04        74.74335
643.47        74.58938
643.90          75.158
644.33        74.89147
644.76        75.04269
645.18         75.1254
645.61        75.12431
646.04        75.01778
646.47        74.80315
646.90        74.59949
647.33        74.54288
647.75        74.68284
648.18        75.03236
648.61        75.35233
649.04         75.2716
649.47        74.75377
649.89         73.7729
650.32        72.81042
650.75        72.80431
651.18        73.68819
651.61        74.59593
652.03        75.10589
652.46        75.04757
652.89        74.78656
653.32        74.22593
653.74        73.76015
654.17        75.11234
654.60        75.48188
655.03        73.25381
655.46        74.42772
655.88        78.28332
656.31        83.27656
656.74        187.3231
657.16        121.3027
657.59        42.90694
658.02        32.49799
658.45        56.32668
658.87        72.16761
659.30        74.98622
659.73         73.9733
660.15        71.77502
660.58        74.05782
661.01        75.93408
661.44        73.49834
661.86         72.8818
662.29        73.16811
662.72        74.09986
663.14        75.40404
663.57        75.32893
664.00        74.16154
664.42        73.89124
664.85        74.60389
665.27        74.99327
665.70        74.86925
666.13        74.68231
666.55        74.42091
666.98        73.94592
667.41        73.43552
667.83        73.24049
668.26        73.42919
668.69        73.86239
669.11        74.28527
669.54        74.65662
669.96        74.20369
670.39        73.60316
670.82        72.91974
671.24        72.64404
671.67        72.89277
672.09        73.44408
672.52        73.97453
672.94        74.55286
673.37        73.87875
673.80        73.64718
674.22        73.57781
674.65        73.48956
675.07        73.38815
675.50         73.2585
675.92        73.16338
676.35         73.2389
676.77        73.48473
677.20        73.80715
677.62        74.13026
678.05        74.25048
678.47        74.10248
678.90        74.07166
679.32        73.71902
679.75        73.48943
680.17           73.54
680.60         73.7766
681.02        73.91319
681.45        73.83477
681.87        73.47857
682.30        73.10825
682.72        72.86184
683.15        72.75417
683.57        72.87886
684.00         73.3392
684.42         74.0725
684.85        74.39458
685.27         74.2453
685.70        73.90318
686.12        73.50246
686.54        73.17397
686.97        73.01574
687.39        73.15154
687.82        73.46819
688.24        73.67952
688.66        73.70757
689.09        73.69524
689.51        73.70541
689.94        73.75302
690.36        73.86272
690.78        74.01511
691.21        74.14586
691.63        74.16674
692.06        74.06387
692.48        73.87508
692.90        73.70016
693.33        73.65257
693.75          73.756
694.17        74.05437
694.60        74.43182
695.02        74.50249
695.44        74.26221
695.87        74.33448
696.29        74.72585
696.71        74.53015
697.14        73.93184
697.56         74.3571
697.98        75.52374
698.41        75.26781
698.83        74.36773
699.25        73.73918
699.68         73.7087
700.10        73.60934
700.52        73.47334
700.94        73.67715
701.37         74.1292
701.79        74.56888
702.21        74.88776
702.64        75.15794
703.06        75.30711
703.48        75.21443
703.90        74.89587
704.33        74.39557
704.75        73.85237
705.17        73.58469
705.59        73.67037
706.01        73.90224
706.44        74.15559
706.86        74.82876
707.28        74.85025
707.70        75.13244
708.12        75.32788
708.55        75.14655
708.97        74.68159
709.39        74.46989
709.81        74.56831
710.23        74.59654
710.66         74.5593
711.08        74.76031
711.50        75.07752
711.92        75.18105
712.34        75.02597
712.76        74.69386
713.19        74.34096
713.61        74.25301
714.03        74.47898
714.45        74.93105
714.87        75.40118
715.29        75.56499
715.71        75.35223
716.13        74.86361
716.56        74.31149
716.98        74.07062
717.40        74.22366
717.82        74.65586
718.24        75.16283
718.66        75.39982
719.08        75.27744
719.50        74.91456
719.92        74.46751
720.34        74.19934
720.76         74.1876
721.19        74.22327
721.61        74.47511
722.03        74.69634
722.45        74.90401
722.87        75.11803
723.29        75.30977
723.71        75.42004
724.13        75.43564
724.55         75.3614
724.97        75.23824
725.39        75.14631
725.81         75.1119
726.23        75.12289
726.65        75.15942
727.07        75.18202
727.49        75.18341
727.91        75.18333
728.33        75.19595
728.75        75.24252
729.17        75.32104
729.59        75.40838
730.01         75.5004
730.43        75.58449
730.85        75.66155
731.27        75.77009
731.69        75.86227
732.10        75.83802
732.52        75.68533
732.94        75.47107
733.36        75.34133
733.78        75.38752
734.20        75.62322
734.62        76.33187
735.04        77.24095
735.46        77.14352
735.88        76.30373
736.30        76.45862
736.72         77.5705
737.13        78.03867
737.55        77.62832
737.97        77.48775
738.39        77.69652
738.81        77.30811
739.23        76.60909
739.65        77.33286
740.06        79.04847
740.48        79.05718
740.90        77.52844
741.32        76.91682
741.74        77.43459
742.16        77.74261
742.57        77.86378
742.99        78.58483
743.41        79.68143
743.83        80.31467
744.25        80.34381
744.67        79.99328
745.08        79.50211
745.50         79.2556
745.92        79.38262
746.34        79.74647
746.75        80.20524
747.17        80.51473
747.59        80.62486
748.01        80.62065
748.42        80.61724
748.84        80.79649
749.26        81.20944
749.68        81.68298
750.09        82.13479
750.51        82.64473
750.93        83.08037
751.35        82.95293
751.76        82.41717
752.18        82.30532
752.60        82.57893
753.01        82.59195
753.43        82.39417
753.85        82.41158
754.27        82.64201
754.68        83.63255
755.10        83.87041
755.52        84.38899
755.93        84.69344
756.35        84.77106
756.77        84.77427
757.18        84.78307
757.60        84.83585
758.02        85.43941
758.43        86.19346
758.85        85.34464
759.26         83.5117
759.68        83.37945
760.10        84.74892
760.51        86.01012
760.93        85.23592
761.34        84.30373
761.76        83.36134
762.18        82.54058
762.59        82.22562
763.01        82.76739
763.42        84.02514
763.84        84.87853
764.26        85.15457
764.67         85.2011
765.09        85.06208
765.50        85.02454
765.92        84.96485
766.33        83.73483
766.75        81.81518
767.16        81.52594
767.58         82.1321
768.00        83.75423
768.41        85.69787
768.83        87.37315
769.24        88.04842
769.66        87.03065
770.07        85.01872
770.49        83.19038
770.90        82.05948
771.32        83.07048
771.73        85.46984
772.15        85.05965
772.56        82.29571
772.97        81.84834
773.39        83.62345
773.80        84.23367
774.22         83.4515
774.63          83.327
775.05        83.83195
775.46        84.06535
775.88        83.93339
776.29        83.70084
776.70        83.45119
777.12        83.34441
777.53        83.43652
777.95        83.61993
778.36        83.77927
778.77        83.71122
779.19        83.42294
779.60        82.98154
780.02        82.57618
780.43        82.60059
780.84        83.17151
781.26        83.66835
781.67        84.04203
782.09        85.24239
782.50        86.67067
782.91        85.66122
783.33        82.95574
783.74        82.00646
784.15         82.9996
784.57        83.69449
784.98        83.78023
785.39        83.89126
785.81        83.93741
786.22        83.57322
786.63        83.10136
787.04        83.13611
787.46        83.73402
787.87        84.69302
788.28        85.68157
788.70        86.13207
789.11        85.91765
789.52        85.25987
789.93        84.45758
790.35        83.91546
790.76        83.74844
791.17        83.87496
791.58         84.1911
792.00        84.40602
792.41        84.42218
792.82        84.52716
793.23        84.71992
793.65        84.31136
794.06        83.69713
794.47        84.54693
794.88        86.02928
795.29        86.50143
795.71        83.32822
796.12        81.43279
796.53        80.57315
796.94         80.3354
797.35        80.78505
797.76        82.06039
798.18        83.59604
798.59        84.54645
799.00        84.55966
799.41        83.66572
799.82        82.36452
800.23         81.6423
800.64        81.71994
801.06        82.21594
801.47        82.93085
801.88        83.42146
802.29        83.52155
802.70        83.40076
803.11         83.1562
803.52         82.9183
803.93        82.77182
804.34        82.64645
804.75        82.57343
805.17        82.74451
805.58        83.21862
805.99        83.53471
806.40        83.61472
806.81        84.33681
807.22        85.16817
807.63        83.87718
808.04        81.14402
808.45        79.97633
808.86        80.63564
809.27        81.61456
809.68        82.46609
810.09        83.03079
810.50        83.08546
810.91        82.70541
811.32        82.14533
811.73        81.81986
812.14        81.84128
812.55        82.03372
812.96        82.34109
813.37        82.65881
813.78        82.91644
814.19        83.21654
814.60        83.35535
815.01        82.99464
815.42        82.12206
815.83        80.80399
816.24        79.53096
816.65        79.16756
817.05        79.95424
817.46        81.60638
817.87        83.46415
818.28         84.3398
818.69        83.90382
819.10         82.4498
819.51        80.68459
819.92        79.81856
820.33         80.1782
820.74        81.39423
821.14        82.83829
821.55        83.38895
821.96        82.80284
822.37         81.4855
822.78        79.98986
823.19        79.11359
823.60        79.07684
824.00        79.67439
824.41        80.53577
824.82        81.16351
825.23        81.33286
825.64        81.22227
826.04        80.98831
826.45        80.85263
826.86        80.87575
827.27        80.93443
827.68        80.98425
828.08        81.01189
828.49        80.93808
828.90        80.86236
829.31        80.73936
829.72        80.46949
830.12        80.09231
830.53        79.62924
830.94        79.29643
831.35        79.38073
831.75        79.95973
832.16        80.88148
832.57        81.93244
832.97        82.65085
833.38        82.80249
833.79        82.51395
834.20        82.00973
834.60        81.63869
835.01        81.53135
835.42        81.58372
835.82        81.67268
836.23        81.50977
836.64        81.08073
837.04        80.51877
837.45        80.01242
837.86        79.85098
838.26        80.10396
838.67        80.62412
839.08        81.26071
839.48        81.73656
839.89        81.90872
840.29        81.87119
840.70        81.65626
841.11        81.29878
841.51        80.85342
841.92        80.29224
842.33        79.76475
842.73        79.53326
843.14        79.61108
843.54         79.9734
843.95        80.38435
844.35        80.50578
844.76        80.23796
845.17        79.70493
845.57        79.08805
845.98        78.67558
846.38        78.54883
846.79        78.59698
847.19        78.77396
847.60        78.90452
848.00        78.96899
848.41         78.9979
848.81        79.03506
849.22        79.06613
849.62        79.14977
850.03        79.27538
850.43        79.49045
850.84        79.79267
851.24        80.20818
851.65        80.52998
852.05        80.89464
852.46        81.34407
852.86        81.87074
853.27        82.51104
853.67        82.75506
854.07        81.94537
854.48        80.13862
854.88        77.57677
855.29        75.18909
855.69        74.32247
856.10        75.22769
856.50        77.73798
856.90        80.94805
857.31        82.76322
857.71        82.51323
858.12         80.7439
858.52        78.49325
858.92        77.13594
859.33        76.97482
859.73        77.65128
860.13        78.85259
860.54        79.91663
860.94        80.61441
861.34        81.10022
861.75        81.46492
862.15        81.94212
862.55        82.53738
862.96        83.09135
863.36        83.49108
863.76        83.54752
864.17        83.24075
864.57        82.75072
864.97        82.23489
865.38        81.89428
865.78        81.84886
866.18        81.97383
866.58        82.29707
866.99        82.84314
867.39        83.63447
867.79        84.68738
868.19         85.6641
868.60        85.92574
869.00        85.33875
869.40         84.0495
869.80        82.78143
870.21        82.68639
870.61        84.10793
871.01        86.71162
871.41        89.62541
871.81        91.34916
872.22        91.45718
872.62        90.37317
873.02        88.93467
873.42        88.56454
873.82        89.46693
874.22        91.06607
874.63        92.78291
875.03        93.38771
875.43        92.39526
875.83        90.90837
876.23        88.78305
876.63        88.05386
877.03        88.93218
877.44        91.70444
877.84        101.0334
878.24        100.2426
878.64        99.95979
879.04        98.00031
879.44        94.81384
879.84        92.97094
880.24        94.94498
880.64        96.49806
881.04        97.85828
881.44        98.56501
881.84        97.89428
882.24         96.2958
882.65        94.79408
883.05        94.48565
883.45        95.56303
883.85        97.82629
884.25        100.4566
884.65        101.8703
885.05        101.5763
885.45        100.1322
885.85        98.40587
886.25        97.58185
886.65        97.92063
887.05        99.02095
887.45        100.4582
887.85        101.4751
888.25        101.7729
888.65        101.6361
889.04        101.1904
889.44        100.6652
889.84        100.1532
890.24        99.52904
890.64        98.96397
891.04        98.74878
891.44        98.90955
891.84        99.43639
892.24         99.9826
892.64        99.89185
893.04        99.10305
893.44         97.9213
893.83        96.86748
894.23        96.71172
894.63         97.5628
895.03        99.10104
895.43        101.0397
895.83        102.8224
896.23        104.1184
896.63        105.0444
897.02        105.3207
897.42        104.5391
897.82         102.806
898.22        100.3555
898.62        97.94455
899.01        96.67435
899.41        96.78288
899.81        97.89867
900.21        99.50953
900.61        100.7364
901.00        101.2605
901.40        101.3405
901.80        101.0685
902.20        100.6042
902.59        100.0545
902.99        99.31862
903.39         98.5705
903.79        98.15026
904.18        98.14642
904.58        98.54963
904.98        99.14632
905.38        99.56547
905.77        99.68695
906.17        99.59734
906.57        99.43845
906.96        99.48277
907.36        99.71729
907.76         100.049
908.15        100.2938
908.55        100.0543
908.95        99.31434
909.34        98.18929
909.74        97.02971
910.14        96.18954
910.53        95.81472
910.93        95.86999
911.33        96.25054
911.72        96.76797
912.12        97.24508
912.52        97.64995
912.91        98.07652
913.31        98.69353
913.70        99.58584
914.10        100.7304
914.49        101.7685
914.89        101.7178
915.29         100.363
915.68        98.05051
916.08        95.93214
916.47        95.05701
916.87        95.52068
917.26        97.00191
917.66        98.60797
918.05        98.89796
918.45        97.54355
918.84         95.0852
919.24        92.55751
919.64        91.45894
920.03        92.17643
920.42        94.25959
920.82        96.92367
921.21        98.89851
921.61        99.55037
922.00         99.2866
922.40        98.49786
922.79        97.72463
923.19        97.19592
923.58        96.70939
923.98        96.17235
924.37        95.56664
924.77        95.08563
925.16        93.75782
925.55        93.94566
925.95        94.48646
926.34        96.06168
926.74        98.19653
927.13        100.3175
927.52        101.2522
927.92        100.8509
928.31        99.48482
928.70        97.62821
929.10        96.10468
929.49        95.14217
929.89        94.51528
930.28        94.37675
930.67         94.9884
931.07        96.17503
931.46        97.94483
931.85        99.50675
932.24        99.65166
932.64        98.19843
933.03        95.37505
933.42        91.95723
933.82        89.71536
934.21         89.1892
934.60        89.90412
934.99        91.11368
935.39        92.00946
935.78         92.4497
936.17        92.51272
936.56        92.03731
936.96        92.37476
937.35        91.26069
937.74        90.65168
938.13        90.21542
938.53        90.43994
938.92        91.32578
939.31        92.87811
939.70        94.65137
940.09         95.3404
940.49         94.5395
940.88        92.79404
941.27         90.9829
941.66         90.1617
942.05        90.46879
942.44        91.51897
942.84        92.97552
943.23        94.34702
943.62        95.28526
944.01        95.92033
944.40        96.15868
944.79        95.85021
945.18         94.9722
945.57        93.44005
945.97        91.49282
946.36        89.94954
946.75        89.27909
947.14        89.34686
947.53        89.76698
947.92        90.05226
948.31        90.11411
948.70        90.09424
949.09        90.06154
949.48        90.14881
949.87        90.38834
950.26        90.64404
950.65        90.88942
951.04         91.1376
951.43        91.37719
951.82        91.63007
952.21        91.74707
952.60         91.5041
952.99        90.87084
953.38        89.88243
953.77        88.87218
954.16        88.31874
954.55        88.30218
954.94        88.77052
955.33        89.21516
955.72        88.75952
956.11        87.25241
956.50        84.94263
956.89        82.72866
957.28        82.25565
957.66        84.02171
958.05        87.26327
958.44        90.86452
958.83         93.1571
959.22        93.68825
959.61        92.88467
960.00         91.3119
960.39        89.91642
960.78        89.04573
961.16         88.4601
961.55        87.91743
961.94        87.07999
962.33        85.92135
962.72        84.71404
963.11        83.74776
963.49        83.30848
963.88        83.40942
964.27        83.96934
964.66        84.70166
965.04        85.05207
965.43        84.73116
965.82        83.96107
966.21        83.16747
966.60        82.91577
966.98        83.31549
967.37        84.15968
967.76        85.11797
968.15        85.54099
968.53        85.23151
968.92        84.37875
969.31        83.40391
969.69         82.8382
970.08        82.80778
970.47        83.19544
970.86        83.67381
971.24        83.67664
971.63        83.04006
972.02        81.91874
972.40         80.8638
972.79        80.81277
973.17        82.13718
973.56        84.46901
973.95        87.06113
974.33        88.44686
974.72        88.09717
975.11        86.46851
975.49        84.49554
975.88        83.49581
976.26        83.67138
976.65        84.70633
977.04        85.85767
977.42        85.40737
977.81        82.88041
978.19        79.14063
978.58        75.94215
978.96         74.9255
979.35        76.30766
979.74        79.72031
980.12        84.50096
980.51        87.94254
980.89        89.10397
981.28        88.51517
981.66        87.08437
982.05        86.05727
982.43        85.70968
982.82         85.6495
983.20        85.89586
983.59        86.60526
983.97        87.82296
984.35        89.60149
984.74        91.40794
985.12        92.34325
985.51        91.71278
985.89        89.70576
986.28        86.78899
986.66        83.69695
987.04        81.16869
987.43        79.33999
987.81        78.13348
988.20        77.32898
988.58         76.7503
988.96        76.27366
989.35        76.45539
989.73         78.8094
990.12        83.13419
990.50        88.15039
990.88        91.28408
991.27        91.13988
991.65        88.28468
992.03        83.15129
992.42        77.61684
992.80         75.1274
993.18        76.67736
993.56        80.47146
993.95        84.59206
994.33        87.29271
994.71        88.18612
995.10        88.14523
995.48          87.386
995.86        86.03622
996.24        84.25293
996.63        81.72554
997.01        79.16228
997.39        78.77852
997.77        81.37858
998.15        86.34604
998.54        91.42335
998.92        93.78101
999.30        92.51396
999.68        88.40487
1000.06        82.41098
1000.45        77.18896
1000.83        74.08314
1001.21        72.44242
1001.59        72.22358
1001.97        73.36668
1002.35        75.67642
1002.73        79.78387
1003.12        84.30105
1003.50        84.92702
1003.88        79.95153
1004.26        71.60081
1004.64        64.01049
1005.02        60.73543
1005.40        62.08917
1005.78        67.97233
1006.16        78.95136
1006.54        89.46492
1006.92        92.76567
1007.30         90.9773
1007.69        87.92146
1008.07        86.08792
1008.45        85.55838
1008.83        85.46342
1009.21        84.92014
1009.59        79.16036
1009.97        54.01842
1010.35        9.409472
1010.73        7.982069
1011.11        31.56874
1011.49        50.77505
1011.86        65.42551
1012.24        73.63326
1012.62        76.41539
1013.00        75.69482
1013.38        72.05768
1013.76        67.42465
1014.14        69.04488
1014.52        83.13893
1014.90        111.6464
1015.28        147.4077
1015.66        168.2567
1016.04        160.2144
1016.41        126.7392
1016.79        86.27415
1017.17        60.33792
1017.55        51.16818
1017.93        49.81272
1018.31        52.20883
1018.69        56.86523
1019.06        63.85741
1019.44        74.84143
1019.82        92.48415
1020.20        116.3841
1020.58         145.007
1020.95        178.6799
1021.33        228.9515
1021.71       -577.5638
1022.09        60.62626
1022.46        94.29074
1022.84        105.2607
1023.22        111.9722
1023.60        121.2924
1023.97        187.1809
1024.35        82.28899
1024.73        100.1843
