SpectraSmart Spectrum 2.9.0.0
--------- Device Information -----------
Spectrum Name :  反射率_0
Saving Time :  2024/04/26 01:24:36
Spectro-Module Model Name : SE2030-DUVN
Spectro-Module Serial Number : OS361AC55029948
Wavelength Start : 200
Wavelength End : 1025
Wavelength Unit : Wavelength(nm)
Spectrum Unit : Reflectance(%)
-----------Spectrum Setting ------------
Integration Time : 20ms
Average : 10
Boxcar : 0
Background removal :  enabled
linearity correction :  enabled
SC :  disabled
Intensity correction :  disabled
DWT denoise :  enabled
savitzky-golay :  disabled
FFT :  disabled
Running average :  disabled
Kalman :  disabled
High pass :  disabled
---------------BEGIN--------------------
Wavelength(nm)             Reflectance(%)
200.29               0
200.75        86.97233
201.21        82.66429
201.67        77.03575
202.13        71.99164
202.58        67.96828
203.04        64.97894
203.50        63.36031
203.96        63.74678
204.42         65.7691
204.88        68.59238
205.34        71.55599
205.80        74.44542
206.26         77.7801
206.72        83.03457
207.18        90.88205
207.64        92.98179
208.10         80.3938
208.55        65.94115
209.01        58.29776
209.47        56.15053
209.93        56.95398
210.39        60.06798
210.85        63.88271
211.31         64.7665
211.77        61.71564
212.23        56.15525
212.69        50.87384
213.14        50.37387
213.60        55.19312
214.06        63.84146
214.52        73.76852
214.98        81.12115
215.44        84.50137
215.90        84.97681
216.36        83.23715
216.81        80.10036
217.27        76.65588
217.73        72.95531
218.19        69.07341
218.65        64.85176
219.11         59.7641
219.57        52.86286
220.02        44.70793
220.48        40.05325
220.94        41.26741
221.40        47.61113
221.86        53.25928
222.32        52.05614
222.77        44.99651
223.23        35.60414
223.69        28.07441
224.15        26.78751
224.61        31.04795
225.06        38.58361
225.52        45.85859
225.98        48.35432
226.44          45.408
226.90        39.11332
227.36        32.10598
227.81        27.94265
228.27        27.69164
228.73        29.85752
229.19        33.35417
229.65        36.55333
230.10        38.74922
230.56        40.40598
231.02        41.46372
231.48        41.77902
231.93        41.48564
232.39        40.63005
232.85         39.6234
233.31        39.20284
233.77        39.53196
234.22        40.46281
234.68        41.65519
235.14        42.29488
235.60        42.13147
236.05        41.45586
236.51        40.68214
236.97        40.36187
237.43        40.72501
237.88        41.78926
238.34        43.48644
238.80        45.53883
239.26         47.5663
239.71          49.506
240.17        51.29439
240.63        53.43688
241.08        56.07253
241.54         58.9108
242.00        61.42251
242.46        63.03666
242.91        63.93449
243.37        63.94395
243.83        65.27633
244.28         87.1087
244.74        145.3538
245.20        153.5355
245.66        142.0521
246.11        139.6929
246.57        146.0152
247.03        167.2924
247.48        220.3224
247.94        161.2657
248.40        97.32008
248.85        81.44032
249.31        78.45252
249.77        80.50014
250.22        86.06891
250.68        96.19446
251.14        111.1308
251.59        122.4572
252.05        120.7268
252.51        109.2041
252.96        95.07089
253.42        85.66138
253.88        80.85785
254.33        78.24175
254.79         78.5022
255.25        81.99252
255.70        87.28128
256.16        93.52007
256.62        97.86975
257.07        97.44051
257.53        93.29234
257.99        86.64895
258.44        79.78021
258.90        76.30807
259.35        75.37383
259.81        75.62122
260.27        75.12111
260.72        72.03123
261.18        67.09598
261.63        61.14707
262.09        55.65496
262.55        51.60951
263.00        49.03219
263.46        47.53716
263.91        46.41022
264.37        45.17868
264.83        43.61178
265.28        41.75137
265.74        39.99489
266.19        38.68445
266.65        38.00047
267.11        37.71014
267.56        37.39693
268.02        36.54762
268.47        35.06114
268.93        33.11758
269.38        31.06874
269.84        29.76285
270.30        29.41431
270.75         29.7782
271.21        30.36676
271.66        30.44316
272.12         29.8168
272.57        28.72504
273.03        27.52939
273.48        26.69407
273.94        26.36363
274.39        26.33039
274.85        26.38838
275.31        26.24042
275.76        25.80282
276.22         25.2106
276.67        24.57643
277.13        24.13909
277.58        23.89526
278.04        23.78568
278.49        23.65113
278.95        23.32802
279.40        22.77098
279.86        22.10765
280.31         21.4267
280.77        20.96112
281.22        20.71891
281.68        20.64519
282.13        20.65529
282.59        20.65972
283.04        20.62057
283.50        20.59262
283.95        20.54466
284.41        20.44396
284.86        20.28701
285.32        20.08735
285.77        19.92454
286.22        19.98187
286.68        20.25336
287.13        20.65225
287.59        21.01168
288.04        21.07738
288.50        20.83027
288.95        20.35136
289.41         19.8085
289.86        19.35212
290.32        19.09096
290.77          18.971
291.22         19.0113
291.68        19.20012
292.13        19.52843
292.59        20.00355
293.04        20.59859
293.50        21.26405
293.95        21.96304
294.40        22.66981
294.86        23.36621
295.31        24.04485
295.77        24.71518
296.22        25.38983
296.68        26.06922
297.13        26.72275
297.58         27.3733
298.04        28.05327
298.49        28.84035
298.95        29.89362
299.40        31.22281
299.85        32.76868
300.31        34.39446
300.76        35.88426
301.21        37.15088
301.67        38.27232
302.12         39.2726
302.58        40.27404
303.03        41.30043
303.48         42.3465
303.94         43.4888
304.39        44.79288
304.84        46.27438
305.30        47.91282
305.75        49.56741
306.20        51.03502
306.66         52.2855
307.11        53.32838
307.57        54.31466
308.02         55.3778
308.47        56.59803
308.93        57.93414
309.38        59.28635
309.83         60.5433
310.29        61.65921
310.74        62.63905
311.19        63.55481
311.65        64.51778
312.10        65.54359
312.55        66.61206
313.00        67.59588
313.46        68.29123
313.91        68.65412
314.36        68.77707
314.82        68.88454
315.27        69.28101
315.72        70.06054
316.18        71.12309
316.63        72.29625
317.08        73.25291
317.53        73.88155
317.99        74.25446
318.44         74.5116
318.89        74.89191
319.35         75.4407
319.80        76.10431
320.25         76.7121
320.70        76.99137
321.16        76.89799
321.61        76.54642
322.06        76.15531
322.51         76.0596
322.97        76.32262
323.42        76.87248
323.87        77.53933
324.32        78.02746
324.78        78.23367
325.23        78.27576
325.68        78.23185
326.13         78.2578
326.59        78.38931
327.04        78.59549
327.49        78.86348
327.94        79.20462
328.39        79.60815
328.85        80.06762
329.30         80.5649
329.75         80.9173
330.20        81.10358
330.66         81.1574
331.11        81.25668
331.56        81.62255
332.01        82.31956
332.46          83.263
332.92        84.30695
333.37        85.34296
333.82        86.21095
334.27        86.93951
334.72        87.45753
335.17        87.66721
335.63        87.58838
336.08        87.30936
336.53        87.00558
336.98        86.99848
337.43        87.37859
337.88        88.06358
338.34        88.95255
338.79        89.94871
339.24        90.93901
339.69        91.95798
340.14        92.85513
340.59        93.37485
341.05        93.47644
341.50        93.20912
341.95        92.84529
342.40        92.82307
342.85        93.24294
343.30        94.00502
343.75        94.86839
344.20        95.39523
344.66        95.47612
345.11        95.23415
345.56        94.89712
346.01        94.80441
346.46         95.0396
346.91        95.48528
347.36        95.98226
347.81        96.29381
348.26        96.36585
348.72        96.30595
349.17        96.20538
349.62        96.25803
350.07        96.50964
350.52        96.87878
350.97        97.28132
351.42        97.60252
351.87        97.80135
352.32        97.91097
352.77        97.94035
353.22        97.90204
353.67        97.80704
354.13        97.65998
354.58        97.45255
355.03        97.23484
355.48        97.01546
355.93        96.78725
356.38        96.53384
356.83        96.22422
357.28        95.84881
357.73        95.41939
358.18        94.94512
358.63        94.43652
359.08        93.91054
359.53        93.38512
359.98         92.8649
360.43        92.35331
360.88        91.85268
361.33        91.35157
361.78        90.89256
362.23        90.54508
362.68        90.30773
363.13        90.15418
363.58        89.96618
364.03        89.55869
364.48        88.90076
364.93        88.05048
365.38        87.15199
365.83        86.44339
366.28         85.9818
366.73        85.68935
367.18        85.45749
367.63        85.10695
368.08        84.59188
368.53        83.99255
368.98        83.35172
369.43        82.71987
369.88        82.12467
370.33        81.54363
370.78        81.02303
371.23        80.65089
371.68         80.4347
372.13        80.34355
372.58        80.29871
373.03        80.16016
373.48           79.89
373.93        79.53764
374.38        79.13515
374.83        78.73103
375.28        78.34982
375.72        77.96259
376.17        77.63028
376.62        77.42973
377.07        77.35564
377.52        77.36124
377.97        77.35081
378.42        77.16866
378.87        76.78632
379.32        76.27837
379.77        75.68256
380.22        75.04909
380.67        74.40276
381.11        73.71971
381.56        73.09504
382.01        72.69221
382.46        72.54469
382.91        72.63702
383.36        72.76311
383.81        72.58522
384.26        72.04686
384.71        71.23972
385.15         70.4367
385.60        70.11534
386.05        70.30368
386.50         70.8364
386.95        71.37536
387.40        71.35331
387.85        70.68675
388.29        69.61185
388.74        68.53929
389.19         67.7635
389.64        67.34386
390.09        67.12428
390.54        67.10172
390.98        67.27348
391.43        67.58336
391.88        68.01765
392.33        68.34396
392.78        68.17699
393.23        67.51905
393.67        66.58617
394.12        65.75986
394.57        65.18432
395.02         65.0294
395.47        65.59298
395.91        66.66904
396.36        67.36293
396.81        67.49645
397.26        67.43762
397.71        67.23381
398.15        66.77367
398.60        66.20113
399.05        65.58784
399.50         65.0318
399.95        64.41663
400.39        64.08875
400.84        63.99519
401.29        64.14006
401.74        64.22579
402.18        64.20897
402.63        64.15783
403.08        64.16871
403.53        64.33257
403.97        64.65823
404.42        65.09503
404.87         65.4453
405.32         65.3858
405.76        64.86662
406.21        64.05462
406.66        63.23773
407.11        62.86416
407.55        63.03452
408.00        63.53059
408.45        64.13448
408.90        64.55836
409.34        64.57552
409.79        63.99304
410.24        63.11136
410.68        62.64729
411.13        62.71083
411.58        62.95376
412.03         63.2812
412.47        63.64841
412.92        63.93537
413.37        64.18957
413.81         64.3377
414.26        64.30191
414.71        64.06757
415.15        63.64546
415.60        63.17205
416.05        62.89496
416.49        62.88001
416.94        63.08683
417.39         63.3423
417.83        63.32754
418.28        62.99297
418.73        62.45327
419.17        61.94657
419.62         61.8519
420.07        62.19957
420.51         62.8455
420.96        63.54935
421.41         63.8398
421.85        63.57972
422.30        63.21816
422.74        62.82185
423.19        62.13152
423.64        61.39715
424.08        61.62803
424.53        62.65849
424.98        63.23163
425.42        63.19601
425.87        63.39901
426.31        63.82627
426.76        63.73527
427.21        63.32692
427.65         63.5484
428.10        64.32262
428.54        64.94675
428.99        65.37653
429.44        65.58665
429.88        65.58974
430.33        66.23069
430.77        66.96088
431.22        65.88799
431.66         63.5636
432.11         62.4555
432.56         62.8095
433.00        63.67303
433.45        64.83197
433.89        66.39418
434.34        67.19375
434.78        68.17243
435.23         64.9792
435.67        63.42315
436.12        65.75776
436.57        66.75485
437.01        67.09368
437.46         67.1963
437.90        67.20728
438.35        67.27406
438.79         67.4138
439.24        67.39989
439.68         67.2752
440.13        66.97008
440.57        66.78489
441.02        67.63828
441.46        69.15374
441.91        69.94967
442.35        69.81114
442.80        69.03117
443.24        68.00983
443.69         68.5261
444.13        70.22226
444.58        70.20721
445.02        68.68021
445.47        68.54851
445.91         69.6937
446.36        70.06802
446.80        69.59693
447.24        69.34679
447.69        69.43388
448.13        69.60569
448.58        69.88405
449.02        70.28051
449.47        70.70021
449.91         71.0022
450.36        71.14692
450.80        71.15768
451.25        71.06928
451.69        70.91045
452.13        70.72713
452.58        70.51582
453.02        70.33906
453.47        70.33454
453.91        70.49793
454.36        70.79829
454.80        71.11903
455.24        71.15883
455.69        70.86489
456.13        70.52228
456.58         70.2943
457.02        69.77464
457.46        69.19724
457.91        69.98946
458.35        70.73345
458.79        71.17171
459.24        70.90769
459.68        70.48119
460.13        70.02207
460.57         69.6666
461.01        69.57512
461.46        68.98118
461.90        68.78587
462.34         69.2601
462.79        68.97681
463.23        69.16856
463.68        69.30296
464.12        69.62018
464.56        69.98334
465.01        70.00013
465.45        69.60467
465.89         69.5261
466.34        69.23977
466.78        68.45082
467.22        67.51999
467.67        66.98193
468.11        68.54734
468.55        69.10122
468.99        68.93725
469.44        68.53583
469.88        68.13324
470.32        68.26195
470.77        68.78227
471.21        68.83804
471.65        68.37193
472.10          68.043
472.54        67.94637
472.98        67.91208
473.42        67.95328
473.87        68.22617
474.31        68.56591
474.75        68.52832
475.20        68.20138
475.64        68.01578
476.08        68.49697
476.52        68.38921
476.97        67.73455
477.41        68.23011
477.85        68.51423
478.29        67.26296
478.74        68.40331
479.18        68.16148
479.62        67.25578
480.06        67.76083
480.50        68.08289
480.95        68.45149
481.39        68.41765
481.83         67.6705
482.27        67.87205
482.72        67.72698
483.16         66.6507
483.60        66.86557
484.04        68.06342
484.48        68.48461
484.93        68.57565
485.37        69.75363
485.81        69.99119
486.25        68.84907
486.69        92.44302
487.14        74.88396
487.58         46.8945
488.02        58.01759
488.46        66.03722
488.90        65.65259
489.34        67.02424
489.79        66.49261
490.23        68.56492
490.67         69.2969
491.11        67.99545
491.55        67.82236
491.99        68.37558
492.43        68.20635
492.88        67.40947
493.32        67.36416
493.76        67.58401
494.20        67.88444
494.64         68.0276
495.08        68.20684
495.52         68.4268
495.96        68.47198
496.41        68.29221
496.85        68.46409
497.29        68.85155
497.73         67.7979
498.17        66.19164
498.61        66.58315
499.05          68.915
499.49         69.2951
499.93        69.27238
500.37        69.07302
500.82        68.61174
501.26        68.78749
501.70         69.2937
502.14        69.42451
502.58         69.0825
503.02        68.84086
503.46        68.71995
503.90         68.3703
504.34        67.92432
504.78        67.75987
505.22        67.91724
505.66         68.2976
506.10        68.77637
506.54        69.00028
506.98        68.86663
507.42        68.73415
507.86        68.78526
508.30          67.978
508.74         68.5117
509.18        68.59471
509.62        68.78478
510.06        68.90287
510.50        68.92579
510.94         68.8819
511.38        68.79461
511.82        68.74955
512.26        68.76439
512.70        68.81292
513.14        68.87916
513.58        68.94276
514.02        68.99017
514.46        69.02409
514.90        69.05267
515.34        69.07155
515.78        69.06976
516.22        69.10995
516.66        69.17698
517.10        69.07076
517.54        68.78892
517.98        68.98552
518.42        68.79343
518.86        68.89679
519.30        69.02927
519.74        69.24483
520.18         69.4836
520.62        69.63873
521.06         69.6921
521.50        69.66821
521.93        69.59074
522.37        69.49903
522.81        69.41875
523.25        69.34368
523.69        69.29626
524.13        69.31081
524.57        69.39021
525.01        69.52501
525.45        69.68277
525.89        69.80759
526.32        69.87224
526.76        69.88518
527.20        69.85475
527.64        69.81583
528.08        69.79537
528.52        69.72765
528.96        69.58374
529.40        69.51582
529.83        69.56421
530.27        68.98523
530.71        69.17567
531.15        69.08985
531.59        69.14391
532.03        69.27457
532.46        69.48351
532.90        69.73927
533.34        69.99797
533.78        70.25745
534.22         70.4448
534.66        70.46072
535.09        70.28791
535.53        69.98989
535.97        69.64207
536.41        69.38974
536.85        69.27905
537.28         69.2719
537.72        69.33108
538.16        69.41615
538.60        69.46651
539.04         69.4931
539.47        69.47416
539.91         69.5244
540.35        69.59365
540.79        69.51173
541.22        69.31088
541.66        69.22164
542.10        69.25431
542.54         69.2855
542.97        69.31262
543.41        69.40836
543.85        69.55502
544.29        69.74896
544.72         69.8985
545.16         69.8932
545.60        69.71171
546.04        69.38114
546.47         69.0489
546.91        68.99561
547.35        69.25424
547.79        69.69283
548.22        70.09684
548.66        70.26133
549.10        70.06496
549.53        69.35516
549.97        68.45672
550.41        68.03615
550.84        68.19666
551.28        68.66518
551.72        69.25167
552.15        69.63029
552.59        69.66875
553.03        69.75754
553.46        69.54075
553.90        69.39005
554.34        69.19258
554.77        69.48271
555.21        69.08752
555.65        69.22923
556.08           69.57
556.52         69.0956
556.96        69.41453
557.39        69.32288
557.83        69.34138
558.27        69.34631
558.70        69.36193
559.14        69.46494
559.57        69.62083
560.01        69.73172
560.45        69.79106
560.88        69.93495
561.32        70.08096
561.75        69.93489
562.19        69.57589
562.63        69.02848
563.06        68.50455
563.50        68.62441
563.93        69.24184
564.37        69.53934
564.80        69.43192
565.24        69.43436
565.68        69.53039
566.11        69.50513
566.55        69.41128
566.98        69.21707
567.42        69.01362
567.85        69.12426
568.29        69.53085
568.72        69.58267
569.16        69.42966
569.60        69.84594
570.03        70.23363
570.47         70.1104
570.90        69.72034
571.34        67.96876
571.77        68.88488
572.21        68.87181
572.64        68.41831
573.08        67.52211
573.51        64.70281
573.95        67.32809
574.38        71.65686
574.82        69.56703
575.25        68.96593
575.69        66.77777
576.12        65.66146
576.56        64.82705
576.99        66.40131
577.42        69.83005
577.86         69.4826
578.29        68.67446
578.73        72.17533
579.16        66.70663
579.60        61.11056
580.03        63.91904
580.47        67.88187
580.90        69.70565
581.33        68.26366
581.77        67.40734
582.20        73.54767
582.64        73.11893
583.07        62.70099
583.51        61.70488
583.94         60.8333
584.37        63.63765
584.81        66.83753
585.24        70.32338
585.68        71.90795
586.11        70.80109
586.54        66.03815
586.98        63.78674
587.41        64.47649
587.85        68.05471
588.28        70.41797
588.71        66.68918
589.15        64.34729
589.58        66.37819
590.01        66.32001
590.45         67.2574
590.88        68.38185
591.31        67.74281
591.75        67.17168
592.18        67.28516
592.61        68.90382
593.05        69.46541
593.48         72.1558
593.91        72.34044
594.35        66.58534
594.78        65.33025
595.21         65.1851
595.65        68.23667
596.08        70.82555
596.51         68.1638
596.94        66.34045
597.38        67.01337
597.81        69.56187
598.24        71.36545
598.68        69.94873
599.11        68.41343
599.54        70.87278
599.97        72.31818
600.41        67.08722
600.84        67.39503
601.27        69.25282
601.70         67.6101
602.14        68.48455
602.57        67.44861
603.00        67.76985
603.43        69.50366
603.87        70.83523
604.30        70.30877
604.73        68.06676
605.16         66.7542
605.60        67.78967
606.03        68.79366
606.46        69.44779
606.89        69.53683
607.32          67.257
607.76        67.36945
608.19        69.56625
608.62        68.78574
609.05        67.63448
609.48        68.20628
609.92        68.20233
610.35         67.6773
610.78        70.08601
611.21        70.32218
611.64        67.38311
612.07        68.05191
612.50        68.49645
612.94        68.97386
613.37        68.45753
613.80        68.43681
614.23        68.96664
614.66         68.8981
615.09        69.19544
615.52        69.24404
615.96        69.16573
616.39         69.2122
616.82        68.19871
617.25        68.05277
617.68         68.5473
618.11        69.13885
618.54        69.57893
618.97         69.0933
619.40        68.06939
619.84        68.13451
620.27        69.22393
620.70        69.94678
621.13        70.07768
621.56         69.6099
621.99        68.83582
622.42        69.44872
622.85        70.98389
623.28        70.80637
623.71        70.34433
624.14         70.1921
624.57        69.69231
625.00        69.50604
625.43        69.80415
625.86        69.28487
626.29        69.32159
626.72        70.20056
627.15        69.75462
627.58        69.96415
628.01        70.00677
628.44         70.3574
628.87        70.02623
629.30        70.24599
629.73        70.60197
630.16        70.84205
630.59        70.38159
631.02        69.98772
631.45         69.6386
631.88        69.41608
632.31        69.36589
632.74        69.47089
633.17        69.66171
633.60        69.80696
634.03        69.87264
634.46        69.86675
634.89        69.80229
635.32         69.8013
635.75        69.90186
636.18        69.68683
636.61        69.84688
637.04        69.85834
637.47        69.92175
637.89        70.01991
638.32        70.11472
638.75        70.17332
639.18        70.17556
639.61        70.14315
640.04        70.06577
640.47        69.93184
640.90        69.75894
641.33        69.54401
641.76        69.31921
642.18        69.26823
642.61        69.41578
643.04        69.43613
643.47        69.44915
643.90        70.03041
644.33        69.76925
644.76        69.84747
645.18        69.84462
645.61        69.79545
646.04        69.69841
646.47        69.54273
646.90        69.40673
647.33         69.3927
647.75        69.53851
648.18        69.78758
648.61        69.97948
649.04        70.02734
649.47        69.82845
649.89        68.98232
650.32        67.92657
650.75        67.80495
651.18        68.59776
651.61        69.35665
652.03        69.72485
652.46        69.78477
652.89         69.8049
653.32        69.24392
653.74        68.51077
654.17        69.72559
654.60        70.63499
655.03        68.26768
655.46        69.17284
655.88        72.50111
656.31        76.69123
656.74        168.5552
657.16        108.5376
657.59        38.49629
658.02        29.70837
658.45        51.76382
658.87        66.56902
659.30        70.01243
659.73        69.09158
660.15        66.64722
660.58        69.09599
661.01        70.88792
661.44        68.79293
661.86        68.12026
662.29        68.10332
662.72        68.84722
663.14        70.12228
663.57        70.12445
664.00        69.08781
664.42        68.89768
664.85        69.62466
665.27        70.05392
665.70        69.99281
666.13         69.8254
666.55        69.53951
666.98        69.02717
667.41        68.46999
667.83        68.21618
668.26        68.34081
668.69         68.7084
669.11        69.09428
669.54        69.47567
669.96        69.12946
670.39        68.67994
670.82        68.14509
671.24        67.91262
671.67         68.0808
672.09        68.46835
672.52        68.82359
672.94        69.28241
673.37        68.65842
673.80        68.52036
674.22        68.56873
674.65         68.5486
675.07        68.44469
675.50        68.28088
675.92        68.12911
676.35         68.1353
676.77        68.31509
677.20          68.545
677.62        68.77033
678.05        68.90724
678.47        68.91834
678.90        68.84831
679.32        68.74021
679.75        68.53436
680.17        68.52615
680.60        68.48451
681.02        68.46227
681.45        68.38662
681.87        68.25934
682.30        68.11669
682.72        68.02401
683.15         68.0524
683.57        68.25138
684.00        68.59294
684.42        69.10383
684.85        69.32757
685.27        69.25349
685.70        69.01211
686.12        68.68573
686.54        68.51744
686.97        68.56359
687.39        68.60695
687.82        68.51241
688.24        69.04832
688.66        68.67689
689.09        68.63432
689.51        68.54479
689.94          68.521
690.36        68.57719
690.78        68.70811
691.21         68.8781
691.63          68.944
692.06         68.8815
692.48        68.93706
692.90        68.80235
693.33        68.81958
693.75        68.89532
694.17        69.01653
694.60        69.15878
695.02        69.25134
695.44        69.23838
695.87        69.36932
696.29        69.61491
696.71        69.22054
697.14        68.45507
697.56        68.89091
697.98        70.22782
698.41        70.11063
698.83        69.24294
699.25        68.70367
699.68        68.79357
700.10        68.74718
700.52        68.58344
700.94        68.77578
701.37        69.11872
701.79        69.52575
702.21        69.86486
702.64        70.19183
703.06         70.4154
703.48        70.39278
703.90        70.12469
704.33        69.64809
704.75        69.11016
705.17        68.83886
705.59         68.9187
706.01        69.15722
706.44         69.3917
706.86        69.95185
707.28        69.83956
707.70        69.83952
708.12        69.74041
708.55        69.64801
708.97         69.5693
709.39        69.47967
709.81        69.40556
710.23        69.38468
710.66        69.42317
711.08        69.54398
711.50        69.66319
711.92        69.65842
712.34        69.50678
712.76        69.23013
713.19        68.94577
713.61        68.87362
714.03        69.04614
714.45        69.40711
714.87        69.78007
715.29        69.88245
715.71         69.6599
716.13        69.20251
716.56        68.70972
716.98         68.5337
717.40        68.74863
717.82        69.24306
718.24        69.81899
718.66        70.14146
719.08        70.11601
719.50        69.84868
719.92        69.47263
720.34        69.21881
720.76        69.15882
721.19        69.10288
721.61        69.22767
722.03         69.3355
722.45         69.4564
722.87        69.61119
723.29        69.76228
723.71         69.8318
724.13         69.8041
724.55        69.69041
724.97        69.55381
725.39        69.50822
725.81        69.57848
726.23        69.73163
726.65        69.90469
727.07        69.99292
727.49        69.97563
727.91         69.8963
728.33        69.80022
728.75        69.76449
729.17        69.81069
729.59        69.89286
730.01        69.99813
730.43        70.15553
730.85        70.36317
731.27        70.54504
731.69        70.58907
732.10        70.82746
732.52        70.38774
732.94        70.04792
733.36        69.73225
733.78        69.61823
734.20        69.74627
734.62        70.37103
735.04        71.25791
735.46        71.29948
735.88        70.71824
736.30        71.08355
736.72        72.31993
737.13        72.88209
737.55        72.48425
737.97        72.18435
738.39        72.10657
738.81        71.35498
739.23        70.34782
739.65         71.1135
740.06        73.15432
740.48        73.36192
740.90        71.82819
741.32        71.16388
741.74          71.627
742.16        71.93192
742.57        72.12091
742.99        72.92847
743.41        74.10105
743.83        74.79059
744.25        74.84659
744.67         74.4885
745.08        73.99105
745.50        73.80032
745.92        74.05283
746.34        74.59616
746.75        75.21752
747.17        75.56061
747.59        75.54976
748.01        75.30182
748.42        75.03115
748.84        75.05576
749.26        75.45834
749.68         76.1125
750.09        76.82244
750.51        77.27043
750.93        77.38333
751.35        77.20277
751.76         76.8713
752.18         76.8014
752.60        76.97713
753.01        76.96376
753.43        76.80085
753.85        76.94469
754.27        77.42029
754.68        78.00884
755.10        78.56816
755.52        79.02028
755.93        79.29362
756.35        79.36289
756.77        79.33698
757.18        79.27683
757.60        79.21024
758.02        79.45113
758.43        79.79978
758.85        79.19775
759.26        78.04915
759.68        78.11845
760.10        79.18391
760.51        79.68745
760.93        79.27084
761.34        77.86506
761.76        77.28262
762.18         76.7968
762.59        76.98121
763.01        77.52997
763.42        78.36251
763.84         79.0789
764.26         79.5358
764.67        79.83647
765.09        79.90116
765.50        79.54057
765.92        78.83549
766.33        77.77557
766.75        76.75996
767.16        76.47015
767.58        77.04179
768.00        78.49344
768.41        80.45401
768.83        81.72582
769.24        81.81556
769.66         81.0177
770.07        79.79937
770.49         78.2781
770.90        76.92243
771.32        77.67247
771.73        79.88603
772.15        79.44609
772.56        76.80244
772.97         76.3901
773.39        78.09915
773.80        78.70551
774.22        77.98298
774.63        77.86082
775.05        78.32617
775.46        78.56215
775.88        78.48579
776.29        78.32948
776.70        78.16044
777.12        78.11407
777.53         78.2391
777.95         78.4431
778.36        78.61092
778.77        78.54124
779.19        78.22655
779.60        77.72279
780.02         77.2391
780.43        77.12746
780.84        77.49419
781.26        77.96909
781.67        78.42899
782.09        79.15517
782.50        79.79958
782.91        78.96465
783.33        77.22736
783.74        76.72687
784.15        77.57349
784.57        78.31361
784.98        78.64156
785.39        78.73219
785.81        78.54079
786.22        78.06072
786.63        77.59058
787.04        77.53954
787.46        77.97272
787.87         78.8052
788.28        79.73595
788.70        80.19377
789.11        80.04971
789.52        79.51443
789.93        78.83678
790.35         78.3494
790.76        78.15819
791.17        78.20397
791.58        78.41074
792.00        78.57282
792.41        78.61275
792.82        78.71257
793.23         78.9393
793.65        78.74938
794.06        78.39597
794.47        79.39356
794.88         81.0334
795.29         80.5497
795.71        78.20313
796.12        76.13612
796.53        75.00436
796.94        74.85648
797.35        75.70483
797.76        76.99868
798.18        78.16527
798.59        78.98866
799.00        79.15148
799.41        78.34694
799.82        77.02596
800.23        76.25023
800.64        76.23617
801.06        76.59666
801.47        77.18433
801.88        77.64265
802.29        77.83606
802.70        77.92635
803.11        77.95411
803.52         77.9465
803.93        77.92814
804.34        77.82511
804.75         77.7311
805.17        77.82391
805.58        78.14909
805.99        78.62614
806.40        79.00979
806.81        78.97053
807.22          78.397
807.63        77.23421
808.04         75.9137
808.45        75.27045
808.86        75.44868
809.27        76.15033
809.68        77.05769
810.09        77.63509
810.50        77.68252
810.91        77.36979
811.32        76.89406
811.73        76.58328
812.14         76.5312
812.55        76.57178
812.96        76.69555
813.37        76.89799
813.78        77.13945
814.19         77.4884
814.60        77.70328
815.01        77.39288
815.42        76.52739
815.83         75.1887
816.24        73.88494
816.65        73.50851
817.05        74.30868
817.46        75.99717
817.87        77.89578
818.28        78.79335
818.69        78.35371
819.10         76.8733
819.51        75.08736
819.92        74.25211
820.33        74.69999
820.74        76.04807
821.14        77.61355
821.55        78.18661
821.96        77.51125
822.37        76.03161
822.78        74.36745
823.19        73.41982
823.60        73.43037
824.00        74.14654
824.41        75.17429
824.82        75.94785
825.23        76.20143
825.64        76.13405
826.04        75.86022
826.45        75.53335
826.86        75.22458
827.27        74.84215
827.68        74.45914
828.08        74.26115
828.49         74.2391
828.90        74.44665
829.31        74.74929
829.72        74.86349
830.12        74.73824
830.53        74.41552
830.94        74.14014
831.35        74.25735
831.75        74.86491
832.16        75.79678
832.57        76.80301
832.97        77.37338
833.38        77.28456
833.79         76.6938
834.20         75.9324
834.60         75.4935
835.01        75.52551
835.42        75.88641
835.82        76.31237
836.23          76.275
836.64        75.69781
837.04        74.78541
837.45        73.87703
837.86        73.50232
838.26        73.79154
838.67         74.5302
839.08        75.45538
839.48         76.0942
839.89        76.24191
840.29        76.05569
840.70        75.64554
841.11        75.16173
841.51        74.69322
841.92         74.1765
842.33        73.71721
842.73        73.50986
843.14        73.55534
843.54        73.85611
843.95        74.22715
844.35        74.40413
844.76        74.29462
845.17        73.97669
845.57        73.57715
845.98         73.3061
846.38        73.22389
846.79        73.25069
847.19         73.3364
847.60        73.31438
848.00        73.18349
848.41        72.97401
848.81        72.79819
849.22        72.74062
849.62        72.86745
850.03         73.1517
850.43        73.53423
850.84        73.82877
851.24        74.00852
851.65        73.94124
852.05        73.88107
852.46        74.07969
852.86        74.58908
853.27        75.36664
853.67        75.85796
854.07        75.33127
854.48        73.79647
854.88        71.52138
855.29        69.36593
855.69        68.57365
856.10        69.38703
856.50        71.63792
856.90        74.53964
857.31        76.26582
857.71         76.2176
858.12        74.84631
858.52        73.01984
858.92        71.88634
859.33        71.69862
859.73        72.13888
860.13        72.95416
860.54        73.62463
860.94        73.99616
861.34        74.23427
861.75        74.38453
862.15        74.58404
862.55        74.83976
862.96        75.05502
863.36        75.27519
863.76        75.56993
864.17         75.9315
864.57        76.39169
864.97        76.85555
865.38        77.16384
865.78        77.33282
866.18        77.32063
866.58        77.25283
866.99        77.34151
867.39        77.68534
867.79        78.25869
868.19         78.7555
868.60        78.59563
869.00        77.68285
869.40        76.23814
869.80        74.95498
870.21         74.8937
870.61        76.36078
871.01        78.99818
871.41        82.02601
871.81        84.10412
872.22        84.80489
872.62        84.46643
873.02        83.63402
873.42        83.37133
873.82         83.7789
874.22        84.19839
874.63        84.43288
875.03        84.26299
875.43         83.5803
875.83        83.52863
876.23        82.20405
876.63        81.65581
877.03        81.69418
877.44        82.51961
877.84        104.6809
878.24        89.20271
878.64        90.06152
879.04        90.74879
879.44        86.97554
879.84        85.01266
880.24        88.85223
880.64        90.52408
881.04        90.81927
881.44        90.84962
881.84        90.36219
882.24         89.4366
882.65        88.65222
883.05        88.44901
883.45        88.91898
883.85         90.1614
884.25        91.70687
884.65        92.50407
885.05        92.26167
885.45        91.32484
885.85        90.29083
886.25        89.99368
886.65        90.59064
887.05        91.79367
887.45        93.18078
887.85         93.9964
888.25         93.9814
888.65        93.40891
889.04        92.54564
889.44        91.84879
889.84        91.46307
890.24        91.22941
890.64        91.16025
891.04         91.2915
891.44        91.58689
891.84        92.08222
892.24        92.58367
892.64         92.6973
893.04        92.39567
893.44        91.86943
893.83        91.40089
894.23        91.43449
894.63        92.03258
895.03        92.96579
895.43        94.19527
895.83        95.61499
896.23        97.04127
896.63         98.4836
897.02        99.37933
897.42         98.8453
897.82        96.86346
898.22        93.82083
898.62        90.76338
899.01        89.21293
899.41        89.48683
899.81        91.07876
900.21        93.22043
900.61        94.63603
901.00        94.92496
901.40        94.48395
901.80        93.66971
902.20         93.0409
902.59        92.79234
902.99        92.69691
903.39        92.67969
903.79        92.66059
904.18        92.59943
904.58          92.617
904.98        92.71474
905.38        92.85241
905.77        93.00433
906.17        93.15147
906.57        93.28763
906.96        93.47302
907.36        93.63904
907.76         93.7564
908.15        93.77934
908.55        93.52545
908.95        93.02416
909.34        92.32844
909.74         91.5829
910.14        90.82114
910.53        90.11964
910.93        89.52695
911.33        89.21358
911.72        89.49524
912.12        90.29124
912.52        91.36151
912.91         92.4548
913.31        93.29722
913.70         93.8847
914.10        94.28948
914.49        94.31606
914.89        93.52415
915.29        91.98866
915.68        89.93732
916.08        88.24864
916.47        87.66604
916.87        88.22089
917.26        89.69955
917.66        91.35513
918.05         91.9655
918.45        91.22561
918.84        89.55408
919.24         87.7709
919.64        87.08436
920.03        87.79865
920.42         89.5126
920.82        91.60876
921.21        93.13843
921.61        93.58855
922.00        93.31243
922.40        92.51328
922.79        91.46579
923.19        90.38999
923.58        89.09972
923.98        87.68669
924.37        86.91454
924.77        87.19438
925.16        85.79753
925.55        87.52913
925.95        88.71944
926.34        90.65955
926.74        92.91382
927.13        94.92561
927.52        95.52972
927.92        94.61678
928.31        92.58229
928.70        90.07037
929.10        88.19143
929.49        87.24945
929.89        86.98437
930.28        87.37659
930.67        88.36987
931.07        89.69265
931.46         91.4147
931.85        92.88712
932.24        93.14843
932.64        92.05349
933.03        89.69668
933.42        86.67476
933.82        84.42476
934.21        83.42705
934.60        83.43018
934.99        83.79053
935.39        83.83907
935.78        83.47027
936.17        82.34856
936.56        80.36823
936.96        81.79839
937.35        81.07613
937.74        82.33667
938.13        83.44977
938.53        84.41672
938.92        85.30854
939.31         86.3088
939.70        87.20259
940.09        87.26295
940.49        86.38014
940.88        84.89871
941.27        83.51516
941.66        83.06444
942.05        83.62509
942.44        84.91696
942.84         86.5513
943.23        87.89686
943.62        88.59022
944.01        88.77052
944.40        88.50153
944.79        87.89184
945.18        86.98603
945.57        85.68201
945.97        84.08379
946.36        82.62222
946.75         81.6963
947.14         81.3539
947.53        81.44038
947.92        81.69838
948.31        82.05537
948.70        82.58071
949.09        83.25191
949.48        83.94881
949.87        84.54324
950.26        84.93672
950.65        85.15587
951.04        85.33017
951.43        85.47888
951.82        85.55181
952.21        85.40479
952.60        84.83734
952.99        83.85303
953.38        82.56798
953.77        81.26395
954.16        80.30784
954.55        79.79521
954.94        79.70905
955.33        79.76613
955.72        79.47182
956.11        78.73185
956.50        77.65955
956.89         76.7937
957.28        77.09351
957.66        78.83245
958.05        81.46695
958.44        84.14277
958.83        85.61644
959.22        85.57944
959.61        84.29855
960.00        82.45296
960.39        81.17139
960.78        80.79546
961.16        81.10947
961.55        81.44489
961.94        80.66295
962.33        78.61829
962.72        75.86247
963.11        73.39453
963.49        72.48261
963.88        73.33212
964.27        75.65739
964.66         78.6282
965.04        80.40475
965.43        80.16785
965.82         78.5171
966.21        76.55647
966.60        75.75753
966.98        76.40043
967.37        77.97097
967.76        79.77987
968.15        80.52878
968.53        79.82429
968.92        78.16373
969.31        76.24805
969.69        74.93388
970.08         74.4334
970.47        74.50683
970.86        74.81112
971.24        74.77114
971.63        74.21162
972.02        73.31195
972.40        72.51358
972.79        72.55582
973.17        73.73279
973.56        75.71569
973.95        77.88119
974.33        79.04448
974.72        78.74834
975.11        77.33804
975.49        75.63567
975.88        74.80092
976.26        75.00273
976.65        76.00089
977.04        77.03377
977.42        76.35931
977.81        73.57555
978.19        69.57539
978.58        66.20238
978.96        65.22591
979.35        66.88206
979.74        70.78373
980.12        76.18682
980.51        80.17458
980.89        81.63697
981.28        81.14893
981.66        79.65369
982.05        78.44091
982.43        77.85096
982.82        77.46918
983.20        77.42071
983.59        77.99711
983.97        79.28124
984.35        81.34917
984.74        83.59371
985.12        84.81207
985.51        84.19989
985.89        81.93618
986.28        78.73872
986.66        75.76476
987.04        73.78171
987.43        72.69673
987.81        72.09713
988.20         71.3527
988.58        70.15719
988.96        68.26801
989.35        66.26222
989.73        66.57011
990.12        70.24281
990.50        75.92126
990.88        80.11861
991.27        80.37538
991.65          77.242
992.03        71.46051
992.42        65.28382
992.80         62.8092
993.18        65.12256
993.56        69.96044
993.95        75.09321
994.33        78.55167
994.71        79.89852
995.10          80.156
995.48        79.48421
995.86        77.88304
996.24         75.4703
996.63        71.83329
997.01        67.92285
997.39        66.76017
997.77        69.51938
998.15        75.53344
998.54        81.67044
998.92        83.68577
999.30        80.35496
999.68        72.71071
1000.06        62.85454
1000.45        55.98444
1000.83        54.21568
1001.21         55.8845
1001.59        59.23423
1001.97        62.41117
1002.35        64.93889
1002.73        67.71623
1003.12        70.02566
1003.50        69.55558
1003.88         65.6766
1004.26        59.80969
1004.64        54.32964
1005.02        51.05974
1005.40        49.96835
1005.78        50.60692
1006.16         54.2664
1006.54         61.7047
1006.92        69.16216
1007.30        74.11165
1007.69        76.22842
1008.07        76.23708
1008.45        74.26029
1008.83        68.69314
1009.21         52.9025
1009.59        7.131163
1009.97        -100.694
1010.35       -225.5284
1010.73       -174.8459
1011.11       -76.84802
1011.49       -12.53488
1011.86        30.33799
1012.24        53.63876
1012.62        62.20107
1013.00        61.45968
1013.38        53.25059
1013.76        40.07021
1014.14        33.24025
1014.52        43.20979
1014.90        73.44971
1015.28        115.3315
1015.66        138.0592
1016.04        123.4544
1016.41        79.13931
1016.79        32.61278
1017.17        12.48426
1017.55        15.03843
1017.93        24.97715
1018.31        35.24398
1018.69         42.7975
1019.06        48.28078
1019.44        53.46061
1019.82        60.11441
1020.20        69.63702
1020.58        82.84104
1020.95        100.2752
1021.33        116.4755
1021.71        102.6468
1022.09        127.8734
1022.46        134.8669
1022.84        141.8695
1023.22        154.8109
1023.60        188.8649
1023.97        525.3674
1024.35        -43.8433
1024.73         22.3499
