SpectraSmart Spectrum 2.9.0.0
--------- Device Information -----------
Spectrum Name :  反射率_0
Saving Time :  2024/04/26 01:41:05
Spectro-Module Model Name : SE2030-DUVN
Spectro-Module Serial Number : OS361AC55029948
Wavelength Start : 200
Wavelength End : 1025
Wavelength Unit : Wavelength(nm)
Spectrum Unit : Reflectance(%)
-----------Spectrum Setting ------------
Integration Time : 20ms
Average : 10
Boxcar : 0
Background removal :  enabled
linearity correction :  enabled
SC :  disabled
Intensity correction :  disabled
DWT denoise :  enabled
savitzky-golay :  disabled
FFT :  disabled
Running average :  disabled
Kalman :  disabled
High pass :  disabled
---------------BEGIN--------------------
Wavelength(nm)             Reflectance(%)
200.29               0
200.75        86.48344
201.21         82.9024
201.67        78.90126
202.13        76.40137
202.58        75.60102
203.04        76.27031
203.50        77.49454
203.96        77.83646
204.42        77.03404
204.88        75.64063
205.34        74.49671
205.80        74.47723
206.26        76.02984
206.72        80.29732
207.18           88.99
207.64        96.68189
208.10        91.66479
208.55        80.89388
209.01         74.4849
209.47        73.56103
209.93         76.0925
210.39        81.18595
210.85        86.42174
211.31        86.42716
211.77        79.79001
212.23        68.79036
212.69        57.95588
213.14        54.18523
213.60        58.62796
214.06        69.43211
214.52        82.41269
214.98        91.02932
215.44        93.28245
215.90        90.93739
216.36        86.45402
216.81        83.16994
217.27        82.26251
217.73        82.68491
218.19        82.45824
218.65         78.8287
219.11        70.62437
219.57        56.79219
220.02        39.44555
220.48        29.86434
220.94         34.4059
221.40        49.85839
221.86        64.72165
222.32        67.13992
222.77        58.42664
223.23        44.98055
223.69        33.25794
224.15        29.73475
224.61        33.81191
225.06        42.29647
225.52        50.84595
225.98        53.92488
226.44        50.61535
226.90        43.31417
227.36        35.35521
227.81        31.21499
228.27        32.02993
228.73        35.95494
229.19        40.77409
229.65        43.29997
230.10         42.9432
230.56        41.08978
231.02        39.07038
231.48        38.29513
231.93        38.88604
232.39        40.22794
232.85        41.67542
233.31        42.35899
233.77        42.05886
234.22        41.09481
234.68        39.94272
235.14        39.39997
235.60        39.77248
236.05        40.80328
236.51        42.12668
236.97        43.26083
237.43        44.15192
237.88        45.07082
238.34        46.25019
238.80        48.17329
239.26        50.88524
239.71        54.16936
240.17        57.34237
240.63        59.90358
241.08         61.7491
241.54        62.84692
242.00        63.70201
242.46        65.23839
242.91        68.57683
243.37        75.98888
243.83         97.2827
244.28        160.6055
244.74        222.1781
245.20        175.3174
245.66        139.2276
246.11        131.1163
246.57        140.2387
247.03        176.7765
247.48        290.4083
247.94        253.2804
248.40        136.8526
248.85        98.84058
249.31        86.86131
249.77        85.04745
250.22        88.82719
250.68        97.87619
251.14        111.9731
251.59        122.4024
252.05        119.9886
252.51        108.3814
252.96        95.52068
253.42        89.43941
253.88        89.66522
254.33        92.97408
254.79        97.99079
255.25        102.3223
255.70        104.8389
256.16        106.7158
256.62        107.0288
257.07        104.6415
257.53        100.5065
257.99        94.87728
258.44        89.24996
258.90        86.46285
259.35        85.53039
259.81        85.54784
260.27        84.71046
260.72        81.26513
261.18        76.03965
261.63        69.75242
262.09        63.96669
262.55        59.74358
263.00        57.05389
263.46        55.49397
263.91        54.23715
264.37        52.73635
264.83        50.75011
265.28        48.38382
265.74        46.09485
266.19        44.31779
266.65        43.30275
267.11        42.76796
267.56        42.31224
268.02         41.4593
268.47        40.06831
268.93        38.31049
269.38        36.41414
269.84        35.00965
270.30        34.27356
270.75        34.03212
271.21        33.98204
271.66        33.66426
272.12        32.94546
272.57        31.97428
273.03        30.96888
273.48        30.16489
273.94        29.65746
274.39        29.32026
274.85        29.04105
275.31        28.65079
275.76        28.10086
276.22         27.4804
276.67        26.86299
277.13        26.44246
277.58        26.19635
278.04        26.08446
278.49        25.95288
278.95        25.65048
279.40        25.12458
279.86        24.48847
280.31        23.81389
280.77        23.32023
281.22        23.01093
281.68        22.84605
282.13        22.74644
282.59        22.63175
283.04        22.47548
283.50        22.34824
283.95        22.23319
284.41        22.12046
284.86        22.01018
285.32        21.90423
285.77        21.88532
286.22        22.14214
286.68        22.65646
287.13        23.32758
287.59        23.93694
288.04        24.15408
288.50        23.94968
288.95        23.41839
289.41        22.79839
289.86        22.34111
290.32        22.17875
290.77        22.23409
291.22        22.45693
291.68        22.72415
292.13        23.01868
292.59        23.40498
293.04        23.95657
293.50        24.77723
293.95        25.86138
294.40        27.12631
294.86        28.47124
295.31        29.76423
295.77         30.9742
296.22         32.1401
296.68        33.28608
297.13        34.41935
297.58        35.56951
298.04        36.74853
298.49        38.01606
298.95        39.52076
299.40        41.27547
299.85        43.23829
300.31         45.2963
300.76        47.25607
301.21        49.02995
301.67         50.6879
302.12        52.22206
302.58        53.73875
303.03        55.24443
303.48        56.74032
303.94        58.31937
304.39        60.05856
304.84        61.97831
305.30        64.05527
305.75        66.11018
306.20        67.89346
306.66        69.37573
307.11        70.57394
307.57        71.70235
308.02         72.9608
308.47        74.45263
308.93        76.11704
309.38        77.80002
309.83        79.31365
310.29        80.59816
310.74        81.68088
311.19        82.67595
311.65        83.75784
312.10        84.95107
312.55        86.20741
313.00        87.37761
313.46        88.22783
313.91        88.69337
314.36        88.87516
314.82        88.98544
315.27        89.29122
315.72        89.90366
316.18        90.74938
316.63        91.70686
317.08        92.52757
317.53        93.12748
317.99        93.55711
318.44        93.95285
318.89         94.5461
319.35        95.35579
319.80        96.32445
320.25        97.20727
320.70        97.61245
321.16        97.46706
321.61        96.91149
322.06        96.24451
322.51        95.93485
322.97        96.07999
323.42        96.59025
323.87        97.24662
324.32        97.66473
324.78        97.72099
325.23        97.58002
325.68         97.3728
326.13        97.34061
326.59        97.53184
327.04        97.88534
327.49        98.33055
327.94        98.79557
328.39        99.23539
328.85         99.6534
329.30        100.0618
329.75         100.299
330.20         100.369
330.66        100.3138
331.11        100.3247
331.56        100.6317
332.01        101.3087
332.46        102.2662
332.92        103.3902
333.37        104.6649
333.82        105.9161
334.27        107.1422
334.72        108.1339
335.17        108.5659
335.63        108.4022
336.08        107.7986
336.53        107.0868
336.98        106.8578
337.43        107.2719
337.88        108.1668
338.34        109.3266
338.79        110.4735
339.24        111.4288
339.69        112.2942
340.14        112.9601
340.59        113.2397
341.05        113.1443
341.50        112.7075
341.95         112.225
342.40        112.1754
342.85        112.6564
343.30        113.5476
343.75        114.5818
344.20        115.2681
344.66        115.4689
345.11        115.3126
345.56        114.9858
346.01        114.7721
346.46        114.7668
346.91        114.8815
347.36        115.0561
347.81        115.2099
348.26        115.3179
348.72        115.4319
349.17        115.5582
349.62        115.7414
350.07         115.973
350.52        116.2105
350.97        116.3937
351.42        116.4464
351.87        116.3526
352.32        116.1418
352.77        115.8493
353.22        115.5333
353.67        115.2219
354.13        114.9202
354.58        114.6103
355.03        114.3237
355.48         114.053
355.93        113.7835
356.38        113.4851
356.83        113.1065
357.28        112.6323
357.73        112.0823
358.18        111.4528
358.63        110.7416
359.08        109.9694
359.53        109.1524
359.98        108.3532
360.43         107.664
360.88         107.095
361.33         106.611
361.78        106.1504
362.23        105.6134
362.68        104.9741
363.13         104.269
363.58        103.5145
364.03        102.7333
364.48        101.9426
364.93        101.1358
365.38        100.3495
365.83         99.6476
366.28        99.03242
366.73        98.47281
367.18        97.92903
367.63        97.33438
368.08        96.68033
368.53        96.01707
368.98        95.32777
369.43        94.57451
369.88        93.76699
370.33         92.9097
370.78        92.13215
371.23        91.65563
371.68        91.51307
372.13        91.63023
372.58        91.80785
373.03        91.70514
373.48        91.23883
373.93         90.5268
374.38        89.72696
374.83        89.08065
375.28        88.65501
375.72        88.35154
376.17        88.14919
376.62        87.99442
377.07        87.83942
377.52        87.68709
377.97        87.46282
378.42        87.04294
378.87        86.42558
379.32        85.67763
379.77        84.87499
380.22        84.12368
380.67        83.45244
381.11        82.82755
381.56         82.2886
382.01        81.90321
382.46        81.68137
382.91        81.62885
383.36        81.59924
383.81        81.35522
384.26        80.85761
384.71        80.15789
385.15        79.45783
385.60        79.14172
386.05        79.21351
386.50        79.54205
386.95        79.84205
387.40         79.6412
387.85        78.88895
388.29        77.78436
388.74        76.71783
389.19        75.92595
389.64        75.45654
390.09        75.17466
390.54        75.08298
390.98        75.18935
391.43        75.43752
391.88        75.79482
392.33        76.04805
392.78        75.82098
393.23        75.11307
393.67        74.20298
394.12        73.41514
394.57        72.64944
395.02        72.14007
395.47        72.52427
395.91        73.64059
396.36        74.38406
396.81        74.56732
397.26        74.67892
397.71        74.71883
398.15        74.38406
398.60        73.80284
399.05        73.21022
399.50        72.64826
399.95        71.72638
400.39        70.95139
400.84        70.60802
401.29        70.77184
401.74        71.14492
402.18        71.52647
402.63        71.46411
403.08        71.11759
403.53        71.22411
403.97        71.80347
404.42        72.35828
404.87        72.67484
405.32         72.5807
405.76        72.01646
406.21        71.25661
406.66        70.49285
407.11        69.74306
407.55        69.25281
408.00        69.48357
408.45        70.27173
408.90        70.89457
409.34        71.01637
409.79        70.46021
410.24        69.51815
410.68        69.02428
411.13        69.08535
411.58        69.19495
412.03        69.31734
412.47        69.63192
412.92        70.04566
413.37        70.52627
413.81        70.89919
414.26        70.94221
414.71        70.60843
415.15        69.96386
415.60        69.22345
416.05        68.75791
416.49        68.67316
416.94        68.88823
417.39        69.19991
417.83        69.23879
418.28         68.9295
418.73        68.40164
419.17        67.88695
419.62          67.757
420.07        68.04701
420.51        68.61394
420.96        69.22428
421.41        69.46174
421.85        69.20153
422.30        68.78709
422.74        68.30322
423.19        67.73651
423.64        67.22961
424.08        67.30959
424.53        67.86772
424.98        68.22454
425.42         68.2911
425.87         68.5826
426.31        69.05614
426.76        69.06482
427.21        68.80594
427.65        69.20914
428.10        70.13586
428.54         70.8569
428.99        71.32002
429.44        71.31168
429.88        70.96967
430.33        71.76167
430.77        72.94522
431.22        71.68232
431.66         68.6433
432.11        67.19003
432.56        67.56838
433.00        68.35777
433.45         69.4604
433.89        71.09375
434.34        71.89349
434.78        73.98544
435.23        69.80479
435.67        67.38074
436.12         69.5691
436.57        70.88788
437.01        72.10699
437.46        72.68429
437.90        72.79713
438.35        71.45741
438.79        72.13846
439.24        71.80983
439.68        71.52739
440.13        71.24438
440.57        71.20441
441.02        72.00578
441.46        73.24738
441.91        74.01852
442.35        74.06076
442.80        73.10735
443.24        71.69807
443.69        72.41992
444.13        74.77119
444.58         74.8991
445.02        72.98694
445.47        72.49599
445.91        73.43439
446.36        73.65617
446.80        73.12289
447.24        73.15563
447.69        73.41517
448.13        73.70563
448.58        73.92728
449.02        74.25348
449.47        74.64415
449.91        74.96232
450.36         75.1881
450.80        75.35489
451.25        75.43307
451.69        75.32825
452.13        75.06782
452.58        74.69667
453.02         74.3364
453.47        74.21642
453.91        74.36012
454.36        74.70425
454.80        75.10149
455.24        75.23404
455.69        75.05153
456.13        74.71935
456.58        74.39706
457.02        74.00919
457.46        73.73782
457.91        73.95168
458.35        74.47054
458.79        74.71646
459.24        74.66211
459.68        74.47314
460.13        74.17083
460.57        74.12775
461.01         73.8138
461.46        73.27935
461.90        72.79459
462.34        73.18124
462.79        72.78423
463.23        72.96521
463.68         73.1375
464.12        73.47272
464.56        73.82681
465.01        73.81194
465.45        73.42002
465.89        73.32882
466.34        73.35179
466.78        72.39561
467.22        71.12465
467.67        70.06738
468.11        72.22368
468.55        72.84136
468.99        72.53415
469.44        72.04384
469.88        71.62188
470.32        71.68639
470.77        72.11879
471.21         72.1582
471.65         71.7556
472.10        71.55813
472.54        71.61584
472.98        71.67156
473.42        71.71149
473.87        71.92648
474.31        72.17609
474.75        72.04464
475.20        71.62916
475.64        71.45259
476.08        71.57528
476.52         71.5073
476.97        71.22797
477.41        71.29623
477.85        71.78925
478.29        71.08485
478.74        71.96976
479.18        71.81561
479.62        70.79108
480.06        71.31079
480.50        71.63539
480.95        72.13202
481.39        72.33042
481.83        71.10786
482.27        71.56187
482.72        71.12516
483.16        69.79787
483.60        70.05277
484.04        71.62829
484.48        72.04361
484.93        71.73837
485.37        73.54986
485.81        74.00259
486.25        72.46147
486.69        97.87497
487.14        78.85818
487.58        49.53239
488.02        60.99825
488.46        69.30463
488.90        69.18278
489.34        70.52503
489.79        69.78001
490.23        71.89733
490.67         72.5875
491.11        71.28246
491.55        71.23504
491.99        71.98984
492.43        71.92366
492.88        71.10119
493.32        71.02269
493.76        71.20364
494.20        71.44398
494.64        71.49599
495.08        71.67534
495.52        71.95632
495.96        71.78133
496.41        71.22063
496.85        71.54379
497.29        72.48566
497.73        71.49879
498.17        69.51389
498.61        69.72797
499.05        72.14697
499.49        72.56328
499.93        72.56507
500.37        72.33884
500.82        71.82059
501.26        71.83842
501.70        72.55621
502.14        72.72415
502.58        72.38393
503.02        72.19025
503.46        72.16101
503.90        71.89559
504.34        71.49643
504.78        71.30766
505.22        71.33961
505.66        71.58772
506.10        71.96494
506.54        71.98965
506.98        71.53743
507.42        71.96332
507.86         71.2868
508.30         71.1315
508.74        71.33992
509.18        71.56069
509.62        71.81477
510.06        71.96555
510.50        71.99593
510.94        71.92963
511.38         71.8246
511.82        71.77818
512.26        71.81972
512.70        71.89806
513.14        71.98192
513.58        72.07802
514.02         72.1768
514.46        72.08205
514.90        72.15199
515.34        72.09052
515.78        71.99691
516.22        71.92584
516.66        71.88693
517.10        71.72825
517.54        71.45429
517.98        71.66004
518.42        71.53831
518.86        71.69011
519.30        71.86201
519.74        72.10464
520.18        72.36393
520.62        72.54472
521.06        72.63024
521.50        72.64115
521.93        72.59187
522.37        72.50819
522.81        72.41584
523.25        72.31563
523.69        72.24763
524.13        72.27275
524.57        72.39722
525.01        72.59952
525.45        72.82879
525.89        73.00018
526.32        73.07699
526.76        73.07457
527.20         73.0054
527.64        72.92248
528.08        72.86147
528.52        72.72434
528.96        72.49186
529.40        72.40553
529.83        72.48017
530.27        71.79536
530.71        71.83947
531.15        71.70184
531.59        71.82613
532.03        72.04977
532.46        72.35363
532.90        72.70856
533.34        73.05623
533.78        73.39149
534.22        73.63532
534.66        73.68362
535.09        73.51888
535.53        73.20211
535.97        72.82883
536.41          72.577
536.85        72.49856
537.28        72.55318
537.72        72.66758
538.16         72.7295
538.60        72.70468
539.04        72.57483
539.47        72.38228
539.91        72.38255
540.35          72.511
540.79        72.43966
541.22        72.18751
541.66        72.08142
542.10        72.12345
542.54        72.12511
542.97        72.08974
543.41        72.13179
543.85        72.24146
544.29        72.41131
544.72        72.54141
545.16        72.50947
545.60        72.29011
546.04        71.91225
546.47        71.55766
546.91         71.5356
547.35        71.87608
547.79        72.50301
548.22        73.12444
548.66          73.249
549.10        72.81707
549.53        72.08033
549.97        71.35317
550.41        70.96651
550.84        71.02122
551.28         71.4481
551.72        72.04903
552.15        72.39954
552.59        72.38008
553.03        72.34065
553.46        72.02207
553.90          71.877
554.34        71.83972
554.77        71.97612
555.21        71.88584
555.65        72.02537
556.08        72.30773
556.52        71.83945
556.96        72.27989
557.39        72.15986
557.83        72.04316
558.27         72.0383
558.70        72.15398
559.14        72.26864
559.57        72.34036
560.01        72.40107
560.45        72.44553
560.88        72.52724
561.32        72.59191
561.75        72.43853
562.19         72.1404
562.63        71.65477
563.06        71.17005
563.50        71.29438
563.93        71.87419
564.37        72.12129
564.80        71.95802
565.24        71.87177
565.68        71.88675
566.11        71.88391
566.55         71.9268
566.98        71.91055
567.42        71.87943
567.85        72.16357
568.29        72.67682
568.72        72.59904
569.16        72.17605
569.60        72.42143
570.03        73.02645
570.47        72.96938
570.90        72.50344
571.34        71.07909
571.77        71.97739
572.21        71.80495
572.64        71.50527
573.08        70.46268
573.51        67.57059
573.95        70.06821
574.38        74.32938
574.82        72.57577
575.25        71.67367
575.69        69.43036
576.12        68.38099
576.56        67.63007
576.99        69.05888
577.42        72.39826
577.86        72.38588
578.29        71.53889
578.73         75.4554
579.16        69.59837
579.60         63.8268
580.03        66.44278
580.47        70.96237
580.90        72.69395
581.33        71.19089
581.77        70.44965
582.20        77.13223
582.64        76.84367
583.07        65.44225
583.51        64.22483
583.94        63.16837
584.37        66.05518
584.81        69.41167
585.24        73.16892
585.68        75.00188
586.11        73.65264
586.54        68.66206
586.98        66.38412
587.41        66.78195
587.85        70.68147
588.28         73.0558
588.71        69.77678
589.15        67.23425
589.58         69.1379
590.01        69.34907
590.45        70.40823
590.88        70.87774
591.31        70.14043
591.75        69.89153
592.18        69.95249
592.61        71.23631
593.05        72.06353
593.48        74.63496
593.91        75.70092
594.35        69.46458
594.78         68.1698
595.21        67.79682
595.65        70.92166
596.08        73.79425
596.51        70.79325
596.94        68.82812
597.38        69.47876
597.81         72.3551
598.24        73.89852
598.68        72.50292
599.11        71.39163
599.54        74.10159
599.97        75.54704
600.41        70.12548
600.84        70.24487
601.27        71.81213
601.70        70.85768
602.14         71.0423
602.57        70.00175
603.00        70.43562
603.43        71.97707
603.87        73.53407
604.30        73.10764
604.73          71.006
605.16        69.24001
605.60        70.68973
606.03        71.79707
606.46        72.70553
606.89        72.14624
607.32        70.12258
607.76        70.14127
608.19        72.25097
608.62        71.61056
609.05        70.35328
609.48        70.89143
609.92        70.68798
610.35        70.17952
610.78        72.41828
611.21        73.05288
611.64        69.76714
612.07        70.58904
612.50        71.19501
612.94        71.78362
613.37        71.25812
613.80        71.26273
614.23        71.76105
614.66        71.64325
615.09        71.88423
615.52        71.90708
615.96        71.82761
616.39        71.75522
616.82        70.50245
617.25        70.43726
617.68        71.08953
618.11        71.81476
618.54        72.26552
618.97        71.89278
619.40        71.02612
619.84        71.00175
620.27        71.79083
620.70        72.35093
621.13        72.53909
621.56        72.09531
621.99        71.24976
622.42        72.31196
622.85        73.86982
623.28        73.53749
623.71        73.14758
624.14        72.83378
624.57        72.45821
625.00        71.76026
625.43        72.50651
625.86        71.86944
626.29         71.7921
626.72         72.4624
627.15         72.2327
627.58        72.59066
628.01        72.83933
628.44        73.00507
628.87        73.11044
629.30        73.25138
629.73         73.3124
630.16        73.80738
630.59        73.10763
631.02         72.7709
631.45        72.46536
631.88        72.18388
632.31        71.92136
632.74        72.43942
633.17        72.33371
633.60        72.51955
634.03        72.55322
634.46        72.51289
634.89        72.42057
635.32        72.34466
635.75        72.31893
636.18        72.29774
636.61        72.29018
637.04        72.31421
637.47        72.36015
637.89         72.4579
638.32         72.5524
638.75        72.53336
639.18        72.37634
639.61        72.36532
640.04        72.09939
640.47        72.01297
640.90        71.99724
641.33        72.03648
641.76        72.08244
642.18        72.16735
642.61        72.27838
643.04        72.24251
643.47        72.02618
643.90         72.5114
644.33        72.20651
644.76        72.31321
645.18        72.37007
645.61        72.37376
646.04        72.30353
646.47        72.15733
646.90         72.0269
647.33        72.00686
647.75        72.13714
648.18        72.42941
648.61        72.68322
649.04        72.61214
649.47        72.18413
649.89        71.30701
650.32        70.41499
650.75        70.43954
651.18        71.29833
651.61        72.04088
652.03        72.29397
652.46        72.18628
652.89        72.10482
653.32        71.49159
653.74        70.71857
654.17        72.40952
654.60        73.66727
655.03        70.93235
655.46        71.67325
655.88        75.79353
656.31        79.92692
656.74        176.9844
657.16        114.6397
657.59         40.5423
658.02        30.97659
658.45        53.94748
658.87        69.31772
659.30        72.44434
659.73        71.86631
660.15         69.2161
660.58        71.54846
661.01        73.46754
661.44        71.55846
661.86        70.91006
662.29        70.72219
662.72        71.45332
663.14        72.85534
663.57         72.7849
664.00        71.51459
664.42        71.21053
664.85        71.95556
665.27        72.40531
665.70        72.35368
666.13        72.21358
666.55        71.96507
666.98        71.49377
667.41        70.97366
667.83        70.74066
668.26        70.86403
668.69        71.20795
669.11        71.56113
669.54        71.91406
669.96        71.52266
670.39        71.09804
670.82        70.63078
671.24         70.3122
671.67        70.31606
672.09        70.83249
672.52          71.534
672.94        72.14633
673.37        71.40303
673.80         71.1386
674.22         71.0957
674.65        71.02888
675.07        70.94334
675.50        70.84583
675.92        70.77784
676.35        70.83891
676.77        71.01855
677.20        71.24245
677.62        71.47834
678.05        71.54818
678.47        71.39331
678.90         71.5837
679.32        71.24783
679.75        71.07613
680.17        71.10179
680.60        71.10934
681.02        71.12238
681.45        71.03647
681.87        70.85799
682.30        70.61123
682.72        70.40833
683.15        70.42883
683.57        70.71883
684.00        71.15091
684.42        71.71026
684.85         71.9696
685.27        71.89857
685.70         71.6104
686.12        71.22523
686.54        70.97353
686.97        70.90584
687.39        70.97146
687.82        71.08624
688.24        71.16457
688.66        71.15475
689.09        71.09988
689.51        71.05341
689.94        71.06499
690.36        71.15783
690.78        71.29974
691.21        71.45132
691.63        71.56253
692.06        71.61744
692.48        71.63398
692.90         71.6428
693.33        71.67236
693.75        71.73234
694.17        71.83513
694.60        71.94692
695.02        71.96931
695.44        71.87614
695.87        71.90684
696.29        72.07594
696.71        71.86904
697.14        71.43237
697.56        71.80066
697.98        72.74718
698.41         72.4857
698.83        71.77231
699.25        71.35163
699.68        71.48061
700.10        71.43575
700.52         71.2179
700.94         71.3285
701.37        71.53521
701.79        71.82269
702.21        72.06065
702.64        72.30607
703.06        72.47802
703.48        72.44123
703.90        72.20097
704.33        71.80467
704.75        71.37235
705.17          71.187
705.59        71.31649
706.01        71.56049
706.44        71.81216
706.86        72.46861
707.28        72.49409
707.70        72.78931
708.12        73.02537
708.55        72.73489
708.97        72.40383
709.39        72.05721
709.81        71.92255
710.23        71.84247
710.66        71.85212
711.08        72.12938
711.50        72.51274
711.92        72.67022
712.34        72.53979
712.76        72.20149
713.19        71.82662
713.61        71.72614
714.03        71.95409
714.45        72.41177
714.87        72.87674
715.29        73.00194
715.71        72.71673
716.13        72.14063
716.56        71.50148
716.98        71.19382
717.40        71.31155
717.82        71.73431
718.24         72.2696
718.66        72.59165
719.08         72.6019
719.50        72.40033
719.92        72.10314
720.34        71.91257
720.76        71.89266
721.19        71.85904
721.61        71.99154
722.03        72.08253
722.45        72.16801
722.87        72.26319
723.29        72.36946
723.71        72.47368
724.13        72.56654
724.55        72.64058
724.97        72.68195
725.39        72.67796
725.81        72.63113
726.23        72.55295
726.65        72.46986
727.07        72.41956
727.49        72.41824
727.91        72.46544
728.33        72.54878
728.75        72.64497
729.17        72.73875
729.59         72.8185
730.01        72.89446
730.43        73.00896
730.85        73.17281
731.27        73.34243
731.69        73.42638
732.10        73.58749
732.52        73.28298
732.94        73.02274
733.36        72.81746
733.78        72.81009
734.20        73.02306
734.62        73.71606
735.04        74.63687
735.46        74.61504
735.88        73.89187
736.30        74.16585
736.72        75.34975
737.13        75.73931
737.55        75.11056
737.97         74.7458
738.39        74.77697
738.81        74.21662
739.23        73.40161
739.65        74.20447
740.06        76.13772
740.48        76.28599
740.90        74.76622
741.32        74.09051
741.74        74.50427
742.16        74.74059
742.57         74.8475
742.99        75.56877
743.41        76.67532
743.83        77.34515
744.25        77.43044
744.67        77.14414
745.08        76.72007
745.50        76.53197
745.92        76.70425
746.34         77.1129
746.75        77.58809
747.17        77.84303
747.59        77.82929
748.01        77.64284
748.42        77.48659
748.84        77.68044
749.26        78.29197
749.68        79.11878
750.09          79.944
750.51        80.57151
750.93        80.84269
751.35        80.46428
751.76        79.67359
752.18        79.33058
752.60        79.46117
753.01        79.40449
753.43        79.18565
753.85        79.33451
754.27        79.87105
754.68        80.56596
755.10           81.25
755.52         81.8009
755.93        82.11997
756.35        82.17331
756.77        82.11639
757.18        82.02605
757.60        81.93745
758.02        82.34248
758.43        82.90761
758.85        82.01444
759.26        80.26891
759.68        80.22796
760.10        81.63511
760.51        82.64619
760.93        82.10396
761.34        80.64597
761.76        81.23793
762.18         80.5639
762.59        79.83152
763.01        80.08757
763.42        81.31779
763.84        82.05046
764.26        82.11698
764.67        82.23442
765.09         82.3509
765.50         82.1864
765.92        81.72783
766.33        80.61822
766.75        79.32726
767.16        79.03887
767.58        79.86049
768.00         81.3946
768.41        83.21976
768.83        84.25402
769.24        84.12313
769.66        83.35934
770.07        82.40025
770.49        81.09118
770.90        79.84833
771.32        80.70831
771.73        82.99442
772.15        82.48518
772.56        79.65775
772.97        79.03962
773.39        80.56501
773.80        81.06744
774.22        80.35556
774.63        80.36703
775.05        81.03604
775.46         81.4255
775.88         81.4136
776.29        81.26987
776.70        81.07456
777.12        80.98774
777.53        81.07115
777.95        81.21317
778.36        81.32529
778.77        81.25517
779.19        81.01103
779.60        80.64224
780.02        80.30225
780.43        80.29919
780.84        80.73199
781.26        81.09785
781.67        81.35583
782.09         82.2692
782.50        83.35934
782.91        82.42284
783.33        80.11978
783.74        79.38065
784.15        80.35208
784.57        81.08461
784.98        81.26783
785.39        81.39359
785.81        81.36973
786.22        80.89817
786.63        80.29733
787.04         80.2008
787.46         80.6787
787.87        81.52572
788.28         82.4344
788.70        82.87789
789.11        82.73006
789.52        82.19436
789.93        81.52694
790.35         81.0691
790.76        80.92698
791.17        81.03878
791.58        81.32193
792.00        81.55416
792.41        81.64977
792.82        81.79511
793.23          82.047
793.65        81.83083
794.06        81.40207
794.47        82.32412
794.88        83.89951
795.29        83.30382
795.71        80.81541
796.12        78.72997
796.53        77.68825
796.94        77.44554
797.35        78.09604
797.76        79.63147
798.18        81.38129
798.59        82.44952
799.00        82.44381
799.41        81.41879
799.82        79.90368
800.23        78.93456
800.64        78.76796
801.06        79.01765
801.47        79.56727
801.88        80.11669
802.29        80.51691
802.70        80.88811
803.11         81.1841
803.52        81.29121
803.93          81.216
804.34         80.9431
804.75           80.59
805.17        80.49249
805.58        80.76994
805.99        80.96784
806.40        80.99827
806.81        81.63426
807.22        82.37633
807.63        81.19961
808.04        78.74196
808.45        77.76847
808.86        78.51257
809.27        79.58133
809.68         80.5049
810.09        81.03769
810.50        80.95014
810.91        80.33714
811.32        79.52349
811.73        79.03354
812.14        79.01357
812.55        79.28249
812.96         79.7132
813.37        80.06528
813.78        80.23421
814.19        80.35439
814.60        80.33955
815.01        80.03209
815.42        79.44276
815.83        78.57529
816.24        77.75405
816.65        77.55975
817.05        78.15681
817.46        79.34644
817.87        80.64792
818.28        81.17968
818.69        80.70828
819.10        79.44533
819.51        77.97421
819.92        77.29171
820.33        77.65418
820.74        78.76413
821.14        80.05709
821.55         80.5116
821.96        79.91998
822.37        78.64704
822.78        77.21874
823.19        76.40461
823.60        76.41221
824.00        77.04294
824.41          77.944
824.82        78.63229
825.23        78.88059
825.64        78.85699
826.04         78.6759
826.45        78.49918
826.86        78.38262
827.27        78.22239
827.68        78.04023
828.08        77.93558
828.49        77.86255
828.90         77.8875
829.31        77.90195
829.72        77.68629
830.12        77.24322
830.53        76.64194
830.94        76.13857
831.35         76.0709
831.75        76.53889
832.16        77.38002
832.57        78.40195
832.97        79.18588
833.38        79.49618
833.79        79.42386
834.20        79.15421
834.60         78.9806
835.01         79.0108
835.42        79.15594
835.82        79.24875
836.23         78.9376
836.64        78.21667
837.04        77.24924
837.45        76.35126
837.86        76.00814
838.26        76.32993
838.67        77.12666
839.08        78.11955
839.48        78.79229
839.89        78.93371
840.29        78.71251
840.70        78.26224
841.11         77.7793
841.51        77.35928
841.92        76.90714
842.33        76.53688
842.73        76.45754
843.14        76.65671
843.54        77.13998
843.95        77.63537
844.35         77.7336
844.76        77.33922
845.17        76.60127
845.57        75.80081
845.98        75.38341
846.38        75.45391
846.79        75.84375
847.19        76.40843
847.60        76.79401
848.00        76.91081
848.41        76.84416
848.81        76.66943
849.22        76.41753
849.62        76.17921
850.03        75.93889
850.43        75.80801
850.84        75.91505
851.24        76.32733
851.65        76.82868
852.05         77.4815
852.46        78.19154
852.86        78.89018
853.27        79.61964
853.67          79.898
854.07        79.12009
854.48         77.3525
854.88        74.82354
855.29        72.41319
855.69        71.39606
856.10        72.01454
856.50        74.11452
856.90        76.90535
857.31        78.53941
857.71        78.42811
858.12        77.04407
858.52        75.24404
858.92        74.16168
859.33         74.0521
859.73        74.60009
860.13        75.58823
860.54        76.55757
860.94        77.34378
861.34        78.04594
861.75        78.62882
862.15        79.12396
862.55        79.50441
862.96        79.70322
863.36        79.75381
863.76         79.7138
864.17        79.62296
864.57        79.54841
864.97        79.54939
865.38        79.68833
865.78        80.01782
866.18        80.44505
866.58        80.92544
866.99          81.365
867.39        81.77283
867.79        82.18652
868.19        82.43086
868.60        82.18487
869.00        81.43517
869.40        80.29737
869.80        79.35127
870.21        79.48273
870.61        80.94823
871.01        83.46678
871.41        86.28805
871.81        88.11431
872.22        88.55669
872.62        87.94971
873.02        86.93056
873.42        86.66365
873.82        87.29594
874.22        88.25983
874.63        89.19997
875.03        89.45943
875.43        88.74198
875.83        88.05782
876.23        86.47282
876.63        85.93424
877.03        86.46869
877.44        88.34885
877.84         102.502
878.24         95.2359
878.64        94.83511
879.04        93.65218
879.44        89.51408
879.84        87.43079
880.24        91.01327
880.64        93.27494
881.04        94.85323
881.44        95.69242
881.84        94.96387
882.24        93.08836
882.65        91.27893
883.05        90.82791
883.45        91.96468
883.85        94.50401
884.25        97.53437
884.65        99.22867
885.05        99.00273
885.45        97.48009
885.85        95.58567
886.25        94.57668
886.65        94.73585
887.05        95.63837
887.45        96.83985
887.85        97.56561
888.25        97.54125
888.65        97.09558
889.04         96.4267
889.44        95.85411
889.84        95.48261
890.24        95.14371
890.64        94.93767
891.04        95.05827
891.44        95.48534
891.84        96.20527
892.24        96.86471
892.64         96.8006
893.04        95.96087
893.44        94.67667
893.83         93.4575
894.23        93.04954
894.63        93.57418
895.03        94.71425
895.43        96.32314
895.83        98.08566
896.23        99.72977
896.63        101.3258
897.02        102.3223
897.42        101.8581
897.82        99.93266
898.22        96.89532
898.62        93.84553
899.01        92.40381
899.41        92.89687
899.81        94.79336
900.21        97.22623
900.61        98.75458
901.00        98.94307
901.40        98.23853
901.80        97.10803
902.20        96.28242
902.59        96.00049
902.99        95.99408
903.39        96.09177
903.79        96.04226
904.18        95.77445
904.58        95.48234
904.98        95.28742
905.38        95.33291
905.77        95.61419
906.17        96.01373
906.57        96.44231
906.96        96.83791
907.36        97.10323
907.76        97.28597
908.15        97.28683
908.55        96.83576
908.95        95.97636
909.34        94.76209
909.74        93.59854
910.14        92.94019
910.53        92.92964
910.93        93.51839
911.33          94.424
911.72        95.12619
912.12        95.37914
912.52        95.26871
912.91        95.12074
913.31        95.38239
913.70        96.17458
914.10        97.39751
914.49        98.57121
914.89        98.46129
915.29        96.77994
915.68        94.04822
916.08        91.53228
916.47        90.38437
916.87        90.70981
917.26        92.13835
917.66        93.83604
918.05        94.46532
918.45        93.67735
918.84        91.95152
919.24        90.13731
919.64        89.46448
920.03        90.24628
920.42        92.06355
920.82        94.26936
921.21        95.87807
921.61        96.36328
922.00        96.08392
922.40        95.28461
922.79        94.29234
923.19        93.31738
923.58        92.18298
923.98        90.95017
924.37        90.16191
924.77        90.17632
925.16        88.92267
925.55         90.1721
925.95        91.10168
926.34        92.72843
926.74        94.62892
927.13        96.37611
927.52        97.00776
927.92        96.42949
928.31        94.97692
928.70        93.04183
929.10        91.31946
929.49        90.03434
929.89        89.04857
930.28        88.65936
930.67        89.34648
931.07        90.97871
931.46        93.46461
931.85         95.8626
932.24        96.76048
932.64        95.89651
933.03        93.51353
933.42        90.36499
933.82        88.18481
934.21        87.52007
934.60        87.93626
934.99        88.74317
935.39        89.19565
935.78        89.18039
936.17        88.66868
936.56        87.51469
936.96        88.21166
937.35        87.22481
937.74        87.32571
938.13        87.57554
938.53        88.40505
938.92        89.85059
939.31        92.00716
939.70         94.2517
940.09        94.84145
940.49        93.29234
940.88        90.36484
941.27        87.45457
941.66         86.2104
942.05        86.80767
942.44        88.69016
942.84        91.16153
943.23        93.04279
943.62        93.76894
944.01         93.6805
944.40        92.99708
944.79         92.0461
945.18        90.95549
945.57        89.51525
945.97        87.87571
946.36        86.60319
946.75         86.0507
947.14        86.19053
947.53        86.68066
947.92        87.07895
948.31        87.31873
948.70        87.50438
949.09        87.71476
949.48        88.09864
949.87        88.63702
950.26        89.14463
950.65        89.51611
951.04        89.66057
951.43        89.55037
951.82        89.25648
952.21        88.68089
952.60        87.69315
952.99        86.36094
953.38        84.76259
953.77        83.32317
954.16        82.63445
954.55        82.78677
954.94        83.68739
955.33         84.7454
955.72        84.94714
956.11        84.05859
956.50        82.30134
956.89        80.52855
957.28        80.32166
957.66        82.15888
958.05        85.31184
958.44        88.64524
958.83        90.47803
959.22         90.3999
959.61        88.85429
960.00        86.66267
960.39        85.16982
960.78        84.79436
961.16        85.21497
961.55        85.76534
961.94        85.32832
962.33        83.70222
962.72         81.4156
963.11        79.30193
963.49        78.40146
963.88        78.88128
964.27        80.47435
964.66        82.52728
965.04        83.64833
965.43        83.21906
965.82        81.75774
966.21        80.11061
966.60        79.37531
966.98         79.7653
967.37        80.87717
967.76        82.23553
968.15        82.93226
968.53        82.66212
968.92        81.73898
969.31        80.59614
969.69        79.75584
970.08        79.35818
970.47        79.24659
970.86         79.2206
971.24         78.9599
971.63        78.37495
972.02        77.59904
972.40        76.93103
972.79        76.84073
973.17        77.55983
973.56         78.8272
973.95        80.29319
974.33        81.24867
974.72        81.31481
975.11        80.62359
975.49        79.62771
975.88        79.03437
976.26        78.95523
976.65        79.30247
977.04        79.48841
977.42        78.25614
977.81        75.45516
978.19        71.75928
978.58        68.98739
978.96        68.94642
979.35         71.8517
979.74        77.39332
980.12         84.3576
980.51        88.65818
980.89        88.88232
981.28        86.09634
981.66         82.2066
982.05        79.69274
982.43        79.02406
982.82         79.3931
983.20        80.42783
983.59        81.69251
983.97        83.06576
984.35        84.82474
984.74        86.54356
985.12        87.48223
985.51        87.04653
985.89        85.22097
986.28        82.53551
986.66        79.88641
987.04         77.9504
987.43        76.77799
987.81        76.01124
988.20         75.0558
988.58        73.60347
988.96        71.31984
989.35        68.78151
989.73        68.76985
990.12        72.57768
990.50        78.75609
990.88        83.42703
991.27        83.77427
991.65        80.37266
992.03         74.1409
992.42        67.48455
992.80        64.83111
993.18         67.3391
993.56        72.49744
993.95        78.09453
994.33        82.22237
994.71        84.37908
995.10        85.56331
995.48        85.58644
995.86        83.86935
996.24        80.39177
996.63        74.79697
997.01        68.46487
997.39        65.63551
997.77         68.1969
998.15        75.31471
998.54        83.31255
998.92        87.04199
999.30        84.99702
999.68        78.45015
1000.06        69.43462
1000.45         62.9715
1000.83        61.13213
1001.21        62.22117
1001.59        64.82595
1001.97         67.5104
1002.35        69.86713
1002.73         72.8257
1003.12        75.46078
1003.50        74.90339
1003.88        70.32186
1004.26        63.39427
1004.64        57.15019
1005.02        54.05619
1005.40        54.20889
1005.78        57.42358
1006.16        64.67624
1006.54        73.63967
1006.92        79.19284
1007.30        81.12707
1007.69        81.07195
1008.07         80.7576
1008.45        80.49821
1008.83        79.34197
1009.21        75.57035
1009.59        64.17075
1009.97        35.51834
1010.35        1.509555
1010.73        10.61487
1011.11        29.46301
1011.49        40.98233
1011.86        49.77514
1012.24        54.70004
1012.62         57.0227
1013.00         57.9351
1013.38         57.6545
1013.76        57.30695
1014.14        60.51009
1014.52          69.808
1014.90        85.40122
1015.28        102.7612
1015.66        110.0157
1016.04        100.2128
1016.41        76.63324
1016.79        50.63022
1017.17        33.52751
1017.55        26.83496
1017.93        25.37357
1018.31        26.94437
1018.69        31.26891
1019.06        38.40816
1019.44        49.26345
1019.82        66.14763
1020.20         87.8777
1020.58        111.3144
1020.95        135.3246
1021.33        156.5725
1021.71       -71.76083
1022.09        111.5151
1022.46        124.4038
1022.84        131.2121
1023.22        139.7902
1023.60        160.0101
1023.97        349.4202
1024.35        31.04369
1024.73        67.78755
