SpectraSmart Spectrum 2.9.0.0
--------- Device Information -----------
Spectrum Name :  反射率_0
Saving Time :  2024/04/26 01:20:03
Spectro-Module Model Name : SE2030-DUVN
Spectro-Module Serial Number : OS361AC55029948
Wavelength Start : 200
Wavelength End : 1025
Wavelength Unit : Wavelength(nm)
Spectrum Unit : Reflectance(%)
-----------Spectrum Setting ------------
Integration Time : 20ms
Average : 10
Boxcar : 0
Background removal :  enabled
linearity correction :  enabled
SC :  disabled
Intensity correction :  disabled
DWT denoise :  enabled
savitzky-golay :  disabled
FFT :  disabled
Running average :  disabled
Kalman :  disabled
High pass :  disabled
---------------BEGIN--------------------
Wavelength(nm)             Reflectance(%)
200.29               0
200.75        97.83556
201.21         92.3633
201.67        84.91837
202.13         80.1005
202.58        78.71696
203.04        79.86736
203.50        82.01514
203.96        82.73455
204.42        81.57297
204.88        79.54795
205.34         78.1665
205.80        79.11851
206.26        83.42697
206.72        93.66454
207.18        113.7264
207.64        130.8732
208.10        118.5706
208.55        94.06448
209.01        78.93242
209.47         74.4425
209.93        76.21529
210.39        82.10902
210.85        89.05797
211.31        90.42521
211.77        84.25906
212.23         73.3536
212.69        62.64198
213.14        59.65171
213.60        65.59506
214.06        77.98749
214.52        92.44097
214.98        102.2549
215.44        105.2952
215.90         103.629
216.36        99.04253
216.81        93.87527
217.27        89.66076
217.73         85.9325
218.19        82.21143
218.65        77.63555
219.11        71.47106
219.57        62.86472
220.02        52.98235
220.48        48.32692
220.94        52.03351
221.40         62.1991
221.86        71.18908
222.32        71.26894
222.77          63.688
223.23        53.11208
223.69        44.23158
224.15        41.89747
224.61        45.54854
225.06        52.66077
225.52        60.06277
225.98        63.77973
226.44        62.99289
226.90        59.40535
227.36        54.82569
227.81        51.60643
228.27        50.68593
228.73        51.08962
229.19        52.25641
229.65        53.42235
230.10        54.23201
230.56        54.93913
231.02        55.62488
231.48        56.34643
231.93         57.0773
232.39        57.79402
232.85        58.29479
233.31        58.35208
233.77        57.94876
234.22        57.18081
234.68        56.35796
235.14        56.04695
235.60         56.4529
236.05        57.43898
236.51        58.72026
236.97        59.89583
237.43        60.92442
237.88        62.03458
238.34        63.31742
238.80          65.135
239.26        67.43951
239.71        70.09885
240.17         72.3915
240.63        73.82217
241.08        74.43133
241.54        74.38657
242.00         74.3444
242.46        75.31386
242.91        78.46774
243.37        85.95222
243.83        109.0227
244.28        184.4027
244.74        270.6117
245.20        223.6707
245.66        180.4982
246.11         169.078
246.57        176.6367
247.03        210.0802
247.48        306.9426
247.94        243.9191
248.40        136.7952
248.85        105.6172
249.31        96.82271
249.77        95.68472
250.22        98.58416
250.68        105.6392
251.14        116.4755
251.59         123.707
252.05        120.2266
252.51        109.3682
252.96        98.33549
253.42         94.4785
253.88        97.12306
254.33        103.1992
254.79        110.8301
255.25         116.729
255.70        119.7631
256.16        121.6996
256.62        122.0805
257.07        120.2558
257.53        117.2154
257.99        112.8052
258.44        108.3351
258.90        106.5805
259.35        106.2878
259.81        106.6713
260.27        105.7895
260.72        101.7311
261.18        95.60867
261.63        88.28946
262.09        81.54295
262.55        76.54588
263.00        73.27042
263.46        71.27446
263.91        69.75416
264.37        68.33495
264.83        66.65551
265.28        64.72561
265.74        62.71144
266.19        60.54126
266.65        58.55709
267.11        56.76474
267.56        55.10537
268.02        53.50784
268.47         51.8206
268.93        50.07997
269.38        48.39264
269.84        47.17776
270.30        46.52645
270.75        46.32274
271.21        46.27322
271.66        45.92184
272.12        45.14983
272.57        44.07447
273.03        42.93432
273.48        42.00049
273.94        41.38128
274.39        40.92365
274.85        40.52305
275.31        39.99668
275.76        39.28389
276.22        38.49578
276.67        37.66404
277.13        36.94638
277.58        36.32312
278.04         35.8051
278.49        35.29548
278.95        34.75116
279.40        34.11547
279.86        33.46759
280.31        32.82159
280.77        32.33272
281.22        31.97056
281.68         31.7274
282.13        31.50755
282.59        31.23334
283.04        30.87382
283.50        30.50335
283.95        30.14052
284.41        29.84824
284.86        29.63399
285.32        29.49361
285.77        29.44459
286.22         29.5839
286.68        29.88464
287.13         30.2732
287.59        30.61769
288.04        30.70322
288.50        30.52059
288.95        30.10975
289.41        29.62279
289.86         29.1721
290.32        28.86879
290.77        28.67636
291.22        28.61927
291.68        28.68471
292.13        28.87852
292.59        29.23008
293.04        29.76065
293.50        30.49906
293.95        31.41815
294.40        32.46264
294.86        33.57167
295.31        34.66628
295.77         35.7306
296.22        36.78884
296.68        37.82951
297.13        38.80627
297.58        39.73998
298.04        40.66183
298.49        41.68426
298.95        43.03585
299.40        44.74031
299.85        46.73038
300.31        48.82481
300.76        50.72226
301.21        52.31725
301.67        53.72247
302.12        55.00369
302.58        56.37796
303.03        57.87213
303.48        59.45393
303.94        61.15632
304.39         62.9649
304.84        64.87691
305.30        66.89147
305.75        68.88078
306.20         70.6757
306.66        72.26106
307.11        73.62531
307.57        74.91437
308.02        76.22387
308.47        77.64894
308.93         79.1706
309.38        80.72578
309.83        82.26873
310.29        83.76627
310.74        85.19299
311.19        86.57443
311.65        87.94949
312.10         89.3098
312.55        90.65267
313.00        91.87863
313.46        92.83762
313.91        93.48279
314.36         93.8675
314.82        94.18774
315.27        94.69055
315.72        95.47626
316.18        96.48716
316.63        97.55869
317.08        98.36675
317.53        98.82406
317.99        99.00591
318.44        99.15121
318.89        99.65369
319.35        100.5673
319.80        101.7988
320.25        102.9901
320.70        103.5502
321.16        103.3539
321.61        102.5999
322.06        101.7029
322.51        101.3135
322.97        101.5702
323.42        102.3267
323.87        103.2642
324.32        103.8306
324.78        103.8521
325.23        103.5507
325.68        103.1411
326.13        103.0011
326.59        103.2167
327.04        103.6837
327.49        104.2739
327.94        104.8229
328.39         105.258
328.85        105.6189
329.30          105.95
329.75        106.1312
330.20        106.1846
330.66        106.1275
331.11        106.1645
331.56        106.5487
332.01         107.351
332.46        108.4808
332.92        109.7608
333.37        111.0721
333.82        112.2093
334.27        113.1997
334.72        113.9233
335.17        114.2138
335.63        114.0807
336.08        113.6363
336.53        113.1367
336.98        113.0519
337.43        113.4992
337.88        114.3441
338.34        115.4016
338.79        116.4473
339.24        117.3254
339.69        118.1339
340.14        118.7359
340.59        118.9056
341.05        118.6586
341.50        118.0439
341.95        117.4446
342.40        117.4608
342.85        118.1993
343.30        119.5024
343.75        120.9533
344.20        121.8043
344.66        121.8581
345.11        121.3188
345.56        120.5554
346.01        120.1329
346.46        120.2047
346.91        120.5905
347.36        121.0774
347.81        121.3478
348.26        121.3155
348.72        121.1091
349.17        120.8505
349.62        120.7674
350.07        120.9102
350.52        121.1853
350.97        121.4482
351.42        121.4946
351.87        121.2837
352.32        120.8939
352.77        120.4466
353.22        120.1293
353.67         119.989
354.13        119.9705
354.58        119.9582
355.03         119.839
355.48        119.5642
355.93        119.1618
356.38        118.6588
356.83        118.0966
357.28        117.4935
357.73        116.8458
358.18        116.1357
358.63        115.3366
359.08        114.4679
359.53        113.5692
359.98        112.7098
360.43        111.9873
360.88        111.4068
361.33        110.9097
361.78        110.4446
362.23        109.9313
362.68        109.3395
363.13        108.7084
363.58        107.9834
364.03        107.0765
364.48        106.0003
364.93        104.7884
365.38        103.6193
365.83        102.7866
366.28        102.3355
366.73        102.1587
367.18        102.0547
367.63        101.6864
368.08        100.9722
368.53         100.049
368.98        99.01091
369.43        97.99367
369.88        97.06082
370.33        96.15793
370.78        95.38559
371.23         94.9217
371.68        94.77689
372.13        94.90182
372.58        95.07852
373.03        94.92467
373.48        94.35387
373.93        93.49248
374.38         92.5379
374.83         91.7965
375.28         91.3503
375.72        91.08475
376.17        90.94699
376.62        90.83109
377.07        90.67068
377.52        90.47758
377.97        90.20071
378.42        89.75394
378.87        89.14307
379.32        88.42453
379.77        87.63759
380.22        86.83566
380.67        86.04293
381.11        85.24405
381.56        84.53715
382.01         84.0854
382.46         83.9179
382.91        84.00903
383.36        84.14053
383.81        83.95937
384.26        83.39971
384.71        82.55263
385.15        81.68163
385.60         81.2627
386.05         81.3223
386.50        81.70214
386.95        82.08379
387.40        81.93851
387.85        81.19829
388.29        80.07932
388.74        78.99821
389.19        78.22025
389.64        77.79323
390.09        77.55946
390.54        77.50672
390.98        77.62113
391.43        77.84678
391.88        78.17262
392.33        78.38316
392.78        78.09531
393.23        77.31351
393.67        76.27377
394.12        75.39114
394.57         74.5546
395.02        74.52464
395.47        74.78742
395.91        75.41033
396.36        75.91433
396.81        76.16838
397.26         76.2748
397.71        76.24162
398.15        75.94274
398.60        75.48839
399.05         75.1051
399.50        74.76044
399.95        73.82426
400.39        72.85577
400.84        72.47405
401.29        72.74839
401.74        73.03278
402.18        73.15636
402.63        73.00908
403.08        72.74712
403.53        72.86119
403.97        73.36521
404.42        73.89382
404.87        74.22457
405.32        74.12987
405.76        73.54657
406.21         72.7179
406.66        71.88155
407.11         71.1981
407.55        70.87835
408.00        71.21669
408.45        72.00452
408.90        72.52225
409.34        72.47857
409.79        71.83836
410.24         70.9113
410.68        70.41231
411.13        70.45316
411.58        70.63343
412.03        70.87508
412.47        71.21606
412.92        71.54327
413.37        71.87125
413.81        72.10162
414.26        72.12869
414.71        71.92251
415.15        71.49918
415.60        70.99525
416.05        70.65797
416.49        70.55978
416.94        70.66501
417.39        70.81071
417.83        70.69295
418.28        70.27554
418.73        69.67906
419.17        69.15016
419.62        69.08241
420.07        69.49315
420.51         70.2225
420.96        71.01244
421.41        71.33655
421.85        71.04277
422.30        70.68011
422.74        70.27956
423.19        69.39436
423.64        68.34096
424.08        68.47014
424.53         69.6399
424.98        70.28282
425.42        70.21658
425.87        70.61149
426.31        71.35375
426.76        71.10797
427.21        70.21739
427.65         70.4773
428.10        71.72396
428.54        72.55898
428.99        72.80461
429.44        72.68924
429.88        72.39543
430.33        73.34084
430.77         74.7047
431.22        73.65623
431.66        70.75183
432.11        68.92449
432.56        68.62669
433.00        69.37747
433.45        71.08749
433.89        72.99614
434.34        73.72556
434.78         75.3089
435.23        71.91702
435.67         68.7731
436.12        71.81003
436.57        72.82127
437.01         73.5175
437.46        73.80946
437.90        73.90157
438.35        73.26598
438.79         73.8021
439.24         73.6607
439.68        73.42892
440.13        73.09052
440.57        72.97741
441.02        73.81338
441.46        75.23361
441.91        76.36466
442.35        76.75903
442.80        75.74064
443.24        73.91674
443.69        74.35754
444.13        76.64748
444.58        76.69595
445.02        74.72881
445.47        74.40084
445.91        75.63055
446.36        76.01954
446.80        75.48585
447.24        75.28518
447.69        75.48579
448.13         75.5869
448.58        75.66328
449.02        76.05437
449.47        76.63767
449.91        76.96071
450.36        76.97226
450.80        76.87818
451.25        76.73032
451.69        76.49745
452.13        76.23781
452.58         75.9736
453.02        75.76907
453.47        75.77263
453.91        75.97044
454.36        76.29704
454.80        76.64168
455.24        76.72001
455.69        76.45505
456.13        76.13541
456.58        75.88135
457.02        75.12018
457.46        74.19743
457.91        74.82365
458.35        75.78327
458.79        76.30949
459.24        76.05481
459.68        75.74732
460.13        75.47374
460.57        75.21017
461.01        75.10645
461.46        74.36766
461.90         74.0676
462.34        74.39831
462.79         73.9896
463.23        74.03288
463.68        74.05422
464.12        74.45544
464.56        75.05619
465.01        75.28892
465.45        75.00478
465.89        74.83473
466.34        74.69985
466.78        73.56648
467.22        71.98657
467.67        71.75095
468.11        72.80527
468.55        73.62636
468.99        73.81295
469.44        73.49554
469.88         72.8659
470.32        72.73073
470.77        73.06557
471.21        73.02512
471.65         72.5885
472.10        72.41414
472.54        72.51405
472.98        72.57255
473.42        72.56792
473.87        72.71131
474.31        72.88214
474.75        72.71459
475.20        72.33838
475.64        72.14279
476.08        72.43037
476.52        72.46841
476.97        72.31086
477.41        72.40387
477.85        72.78836
478.29        72.46574
478.74        73.01209
479.18        72.97999
479.62        71.56107
480.06        72.04483
480.50        72.52904
480.95        73.03236
481.39        72.98775
481.83        72.40954
482.27        72.62856
482.72        71.89648
483.16        70.90963
483.60        70.94632
484.04        72.18629
484.48        72.73246
484.93        72.93089
485.37        74.60049
485.81        75.12228
486.25        73.27062
486.69        100.5743
487.14        81.43977
487.58        50.49321
488.02         61.6513
488.46        69.97797
488.90         69.8357
489.34        71.22521
489.79        70.42675
490.23        72.78181
490.67        73.57316
491.11         72.3058
491.55        72.19907
491.99        72.81798
492.43        72.62493
492.88        71.71622
493.32        71.58751
493.76        71.75134
494.20        72.00541
494.64        72.08871
495.08          72.326
495.52        72.70043
495.96        72.58836
496.41        72.04889
496.85        72.55072
497.29        73.73508
497.73         72.5071
498.17         69.9631
498.61        70.14217
499.05        73.01148
499.49        73.50889
499.93        73.20728
500.37        72.87346
500.82        72.41629
501.26        72.44463
501.70        72.73229
502.14        72.99281
502.58        73.06724
503.02        73.06088
503.46        72.94848
503.90        72.68359
504.34        72.36847
504.78        72.07885
505.22        71.91451
505.66        72.17043
506.10        72.70591
506.54        72.86731
506.98        72.55157
507.42         72.5183
507.86        72.06746
508.30        72.01141
508.74        72.14581
509.18        72.44153
509.62        72.76875
510.06        72.93946
510.50        72.91103
510.94        72.73523
511.38        72.52109
511.82        72.43576
512.26        72.52116
512.70        72.72252
513.14           72.95
513.58        73.06265
514.02        73.01807
514.46        72.85783
514.90        72.66589
515.34        72.55582
515.78        72.54799
516.22        72.66644
516.66        72.83319
517.10        72.76557
517.54        72.43837
517.98        72.47016
518.42        72.16113
518.86        72.22126
519.30        72.43079
519.74         72.7905
520.18        73.19066
520.62        73.44985
521.06        73.52457
521.50        73.46952
521.93        73.31449
522.37        73.10902
522.81        72.89575
523.25        72.66631
523.69        72.48962
524.13        72.47121
524.57        72.62231
525.01        72.91576
525.45        73.24963
525.89        73.45121
526.32        73.46513
526.76         73.3312
527.20        73.12802
527.64        73.00491
528.08        73.01637
528.52        73.05791
528.96        73.03777
529.40        73.02077
529.83        73.02788
530.27        72.31352
530.71        72.39526
531.15        72.25535
531.59        72.34789
532.03        72.57862
532.46        72.90927
532.90        73.24099
533.34        73.51144
533.78        73.74519
534.22        73.89204
534.66         73.8877
535.09        73.72194
535.53          73.437
535.97        73.11134
536.41        72.89645
536.85        72.83548
537.28        72.90052
537.72        73.01176
538.16        73.04758
538.60        72.97713
539.04         72.7815
539.47        72.53934
539.91        72.56165
540.35        72.79086
540.79        72.88544
541.22         72.8048
541.66        72.78252
542.10        72.80416
542.54         72.7076
542.97        72.56742
543.41        72.61421
543.85        72.85412
544.29        73.22987
544.72        73.57076
545.16        73.63884
545.60        73.38416
546.04        72.90536
546.47        72.41335
546.91        72.22869
547.35        72.43891
547.79          73.008
548.22        73.64922
548.66        73.92747
549.10        73.69372
549.53        72.91868
549.97        71.96391
550.41        71.49675
550.84        71.63398
551.28        72.11087
551.72        72.73763
552.15        73.10155
552.59        73.06335
553.03        73.14072
553.46        73.07329
553.90        72.50231
554.34        72.83569
554.77        72.78754
555.21        72.76848
555.65        72.71256
556.08        73.10361
556.52        72.48514
556.96        72.71025
557.39        72.55048
557.83        72.54981
558.27        72.57463
558.70        72.65228
559.14        72.83014
559.57        73.06072
560.01        73.35737
560.45        73.61388
560.88        73.63228
561.32        73.42822
561.75        73.10569
562.19         72.8026
562.63        72.45341
563.06        72.17414
563.50        72.34544
563.93        72.81334
564.37        73.02589
564.80        72.89577
565.24        72.73694
565.68        72.59229
566.11         72.4429
566.55         72.3959
566.98        72.40133
567.42        72.46659
567.85        72.85424
568.29        73.49063
568.72        73.49292
569.16        73.07045
569.60         73.8763
570.03        74.08755
570.47        74.16995
570.90        74.05025
571.34         71.9721
571.77        72.95854
572.21         73.3382
572.64        72.75015
573.08        71.61573
573.51         68.1315
573.95        70.86378
574.38        75.84185
574.82        73.64165
575.25        73.17311
575.69        70.98513
576.12        69.60075
576.56        69.12242
576.99        70.59351
577.42        73.60571
577.86        73.57854
578.29         72.9034
578.73        76.99289
579.16        70.82162
579.60        64.71273
580.03        67.62222
580.47        72.13811
580.90        73.79247
581.33          72.679
581.77        71.56483
582.20        78.76257
582.64        78.29275
583.07         66.8664
583.51        65.55748
583.94        64.30198
584.37        67.13121
584.81        70.57249
585.24        74.35366
585.68        76.02588
586.11        74.90979
586.54         69.7364
586.98        67.17349
587.41        67.84383
587.85        72.09814
588.28        74.23331
588.71        70.74245
589.15        68.42522
589.58        70.14648
590.01        70.20986
590.45        71.50228
590.88        72.17123
591.31        71.38615
591.75        70.77028
592.18        70.77423
592.61        72.39478
593.05        73.02084
593.48        76.00665
593.91        76.99825
594.35        70.80637
594.78        69.29004
595.21        68.55633
595.65        71.70705
596.08        74.93783
596.51        71.83723
596.94        69.62283
597.38        70.22209
597.81        73.33247
598.24        74.63613
598.68         73.3603
599.11        72.07812
599.54         75.3761
599.97        76.88369
600.41         71.3868
600.84        71.47856
601.27        73.06688
601.70        71.95473
602.14        71.86823
602.57         70.8213
603.00        71.46393
603.43        73.14414
603.87        74.56583
604.30        74.03817
604.73        71.96563
605.16        70.35869
605.60        71.37946
606.03        72.53125
606.46        73.76364
606.89        72.91171
607.32        71.35254
607.76        71.00387
608.19        73.42986
608.62        72.46814
609.05        71.27007
609.48        71.64851
609.92        71.29435
610.35        70.95753
610.78        73.36937
611.21        74.40341
611.64        70.85656
612.07        71.53505
612.50        71.91784
612.94        72.34672
613.37        71.75275
613.80         71.9044
614.23        72.40456
614.66        72.37386
615.09        72.68573
615.52        72.68666
615.96        72.53297
616.39        72.65013
616.82        71.58997
617.25        71.61298
617.68        72.30385
618.11        72.90392
618.54        73.11592
618.97        72.60183
619.40        71.81994
619.84        71.28235
620.27        72.46978
620.70        73.16899
621.13        73.54324
621.56        72.90639
621.99        71.65446
622.42        72.36555
622.85        74.47707
623.28        74.35354
623.71        73.53067
624.14        73.45213
624.57        73.23663
625.00        73.24398
625.43        73.26055
625.86         72.6307
626.29        72.80069
626.72        73.18292
627.15        72.95097
627.58        73.10328
628.01        73.23238
628.44          73.359
628.87        73.53675
629.30        73.41666
629.73        73.91193
630.16        74.02545
630.59        73.61583
631.02        73.21935
631.45        72.83899
631.88         72.5858
632.31        72.49501
632.74        72.55184
633.17        72.70181
633.60        72.83615
634.03        72.91505
634.46        72.96743
634.89        72.98769
635.32        72.96855
635.75        72.91532
636.18        72.81903
636.61        72.71343
637.04        72.66209
637.47        72.67675
637.89        72.75334
638.32        72.82938
638.75        72.84739
639.18        72.78965
639.61        72.68099
640.04        72.54848
640.47        72.43373
640.90        72.35725
641.33        72.30445
641.76        72.25381
642.18        72.27585
642.61        72.36567
643.04        72.34013
643.47        72.15952
643.90        72.69662
644.33         72.4483
644.76        72.62539
645.18        72.73988
645.61        72.74648
646.04        72.61932
646.47        72.36616
646.90        72.12834
647.33        72.08033
647.75        72.27853
648.18        72.71611
648.61        73.13224
649.04        73.12861
649.47         72.6459
649.89        71.65477
650.32        70.65276
650.75        70.57739
651.18        71.39479
651.61        72.34431
652.03         72.9557
652.46        72.86965
652.89        72.48161
653.32          71.728
653.74        71.07112
654.17        72.43992
654.60         73.6892
655.03        70.75748
655.46        71.86166
655.88        75.81779
656.31        80.72747
656.74        184.0066
657.16        119.2719
657.59        41.90852
658.02        31.31008
658.45        54.14032
658.87        69.87151
659.30         72.9696
659.73        72.35629
660.15        69.36628
660.58        71.95411
661.01        73.84084
661.44         71.8102
661.86        71.25136
662.29        71.28488
662.72        72.00045
663.14        73.16555
663.57        73.03939
664.00        71.88657
664.42        71.57174
664.85        72.17538
665.27        72.50329
665.70        72.39641
666.13        72.27653
666.55        72.12877
666.98        71.82299
667.41        71.47636
667.83        71.33953
668.26        71.46254
668.69        71.73131
669.11        71.97219
669.54        72.26798
669.96        71.89961
670.39        71.48638
670.82        71.01364
671.24        70.83598
671.67        71.03822
672.09        71.43448
672.52        71.78066
672.94        72.27625
673.37        71.67453
673.80        71.52875
674.22        71.52657
674.65        71.47497
675.07        71.36211
675.50        71.16769
675.92        70.98413
676.35        71.00903
676.77        71.26261
677.20         71.6087
677.62        71.94724
678.05         72.1189
678.47         72.0723
678.90        71.87357
679.32        71.63654
679.75        71.40715
680.17        71.50859
680.60        71.66187
681.02        71.83948
681.45        71.82426
681.87        71.58544
682.30        71.23497
682.72        70.91014
683.15        70.73037
683.57          70.811
684.00        71.24075
684.42        71.96778
684.85        72.29659
685.27        72.17406
685.70        71.86535
686.12        71.50694
686.54        71.29205
686.97        71.27366
687.39        71.40007
687.82        71.58309
688.24        71.73515
688.66         71.7968
689.09        71.80605
689.51        71.79716
689.94        71.79173
690.36        71.81066
690.78         71.8334
691.21        71.85055
691.63        71.86058
692.06        71.86538
692.48        71.87592
692.90        71.90734
693.33        71.96278
693.75        72.04271
694.17        72.15633
694.60        72.28045
695.02        72.35094
695.44        72.32904
695.87        72.40858
696.29        72.59231
696.71        72.36346
697.14        71.89646
697.56        72.28683
697.98         73.2724
698.41        73.08986
698.83        72.22379
699.25        71.71235
699.68        71.75898
700.10         71.6857
700.52        71.50853
700.94        71.61154
701.37        71.93897
701.79        72.28381
702.21        72.55802
702.64        72.82098
703.06        72.98181
703.48        72.88954
703.90        72.54984
704.33        72.01544
704.75        71.44102
705.17        71.16658
705.59        71.27979
706.01        71.57213
706.44         71.8932
706.86        72.61392
707.28        72.68964
707.70        72.91525
708.12        73.00539
708.55        72.97715
708.97        72.82698
709.39        72.56023
709.81        72.28231
710.23        72.16797
710.66        72.26434
711.08        72.55886
711.50        72.90031
711.92         73.0563
712.34         72.9705
712.76        72.69354
713.19        72.37885
713.61        72.30876
714.03        72.52776
714.45        72.94776
714.87        73.36047
715.29        73.43828
715.71        73.11855
716.13        72.51927
716.56         71.8578
716.98        71.51186
717.40        71.57185
717.82        71.92156
718.24        72.39239
718.66        72.69502
719.08        72.74025
719.50        72.62373
719.92        72.41884
720.34        72.26189
720.76        72.20452
721.19        72.07335
721.61        72.11639
722.03        72.23771
722.45        72.49199
722.87        72.85883
723.29        73.23436
723.71        73.43263
724.13        73.40735
724.55        73.20767
724.97        72.93513
725.39        72.76685
725.81        72.75278
726.23        72.83816
726.65        72.96581
727.07        73.04121
727.49        73.03889
727.91        73.00662
728.33        72.95602
728.75        72.89949
729.17        72.85084
729.59        72.79744
730.01        72.78995
730.43         72.9034
730.85        73.14948
731.27        73.53053
731.69        73.93565
732.10         74.1609
732.52        74.15345
732.94        74.00108
733.36        73.85876
733.78        73.82677
734.20        73.93583
734.62         74.5079
735.04         75.2973
735.46        75.06022
735.88        74.11958
736.30        74.38049
736.72        75.74272
737.13        76.34681
737.55        75.88011
737.97        75.52845
738.39        75.44666
738.81        74.84322
739.23         74.0624
739.65        74.81258
740.06        76.61543
740.48        76.67876
740.90        75.13465
741.32        74.45507
741.74        74.87861
742.16        75.12762
742.57        75.24555
742.99        75.99271
743.41        77.12724
743.83        77.80026
744.25         77.8632
744.67        77.53062
745.08        77.08153
745.50         76.9667
745.92        77.31543
746.34        77.96976
746.75        78.68083
747.17        79.03591
747.59        78.96011
748.01        78.59317
748.42        78.20083
748.84        78.21952
749.26        78.75958
749.68        79.55142
750.09        80.37503
750.51        81.11866
750.93        81.56244
751.35        81.20761
751.76        80.31242
752.18        79.94397
752.60         80.1347
753.01        80.09625
753.43         79.8382
753.85        79.93327
754.27        80.40347
754.68        81.01202
755.10        81.61452
755.52        82.12617
755.93        82.46331
756.35        82.58833
756.77         82.6262
757.18        82.63766
757.60        82.65753
758.02        83.05442
758.43        83.54187
758.85        82.82618
759.26        81.42023
759.68        81.08303
760.10        82.76741
760.51        83.15374
760.93        82.31002
761.34         81.5523
761.76        81.12822
762.18        80.62775
762.59        80.25941
763.01        80.50802
763.42        81.35265
763.84         82.0345
764.26        82.43995
764.67        82.71268
765.09        82.78505
765.50        82.73948
765.92        82.48062
766.33        81.24198
766.75        79.56336
767.16        79.05302
767.58        79.85484
768.00        81.35022
768.41        83.13045
768.83        84.20206
769.24        84.17632
769.66        83.65722
770.07        82.97588
770.49        81.59519
770.90        80.03462
771.32        80.89943
771.73        83.48789
772.15        83.04559
772.56        80.03576
772.97        79.30886
773.39        80.82993
773.80        81.33883
774.22        80.64651
774.63        80.72307
775.05        81.45287
775.46        81.80746
775.88        81.65113
776.29        81.28234
776.70        80.84773
777.12        80.61807
777.53        80.68382
777.95        80.89913
778.36        81.13721
778.77        81.17776
779.19        81.00361
779.60        80.68998
780.02        80.39066
780.43         80.4132
780.84        80.86989
781.26        81.24558
781.67        81.51694
782.09        82.52963
782.50        83.77206
782.91        82.88246
783.33        80.53151
783.74        79.79597
784.15        80.82594
784.57        81.58113
784.98        81.74028
785.39        81.82668
785.81         81.7507
786.22        81.21002
786.63        80.54058
787.04        80.39802
787.46        80.86037
787.87        81.72579
788.28        82.67547
788.70        83.16026
789.11        83.04568
789.52        82.53108
789.93        81.89312
790.35        81.50677
790.76        81.47257
791.17        81.71449
791.58        82.09449
792.00         82.2707
792.41         82.1414
792.82        82.01917
793.23        82.03147
793.65        81.53868
794.06        80.91089
794.47        82.05135
794.88         84.1538
795.29        83.85691
795.71        81.37013
796.12        79.32084
796.53        78.33793
796.94        77.89346
797.35        78.15054
797.76        79.48713
798.18        81.25595
798.59        82.26221
799.00        82.11162
799.41        81.06278
799.82        79.64662
800.23         78.7893
800.64        78.72791
801.06        79.09591
801.47        79.73677
801.88        80.28609
802.29        80.58424
802.70        80.76786
803.11        80.84377
803.52        80.79532
803.93         80.6657
804.34        80.41859
804.75        80.15331
805.17         80.1923
805.58        80.63897
805.99        80.97268
806.40        81.09107
806.81         81.9061
807.22        82.83157
807.63        81.48038
808.04        78.59462
808.45        77.42072
808.86        78.23792
809.27        79.41263
809.68        80.43069
810.09        81.06753
810.50         81.0662
810.91        80.52016
811.32        79.74908
811.73        79.26894
812.14        79.22756
812.55        79.43801
812.96        79.80476
813.37        80.14706
813.78        80.37511
814.19        80.61353
814.60        80.72315
815.01        80.46255
815.42        79.82802
815.83        78.84592
816.24        77.90437
816.65         77.6941
817.05        78.40784
817.46        79.81456
817.87        81.35661
818.28        82.02313
818.69        81.54422
819.10        80.16666
819.51        78.54498
819.92        77.79722
820.33        78.21183
820.74        79.44817
821.14        80.88207
821.55        81.39577
821.96        80.75226
822.37        79.35123
822.78        77.75346
823.19        76.77406
823.60        76.63789
824.00        77.13586
824.41         77.9127
824.82        78.48826
825.23        78.64371
825.64        78.55681
826.04        78.35643
826.45        78.21793
826.86        78.19372
827.27        78.17089
827.68        78.13583
828.08        78.13136
828.49        78.09198
828.90        78.09006
829.31         78.0507
829.72        77.81895
830.12        77.41896
830.53        76.90596
830.94        76.49239
831.35        76.45608
831.75        76.88077
832.16        77.60629
832.57        78.50179
832.97          79.257
833.38        79.66576
833.79        79.80576
834.20        79.73018
834.60        79.53087
835.01        79.29189
835.42          78.979
835.82        78.64205
836.23        78.30051
836.64        78.01769
837.04        77.82153
837.45        77.73565
837.86        77.79197
838.26        77.98362
838.67        78.24353
839.08        78.50994
839.48        78.66167
839.89        78.63231
840.29        78.48485
840.70        78.22239
841.11        77.83701
841.51        77.36932
841.92         76.8082
842.33        76.34383
842.73        76.29134
843.14        76.66393
843.54        77.40984
843.95        78.19115
844.35        78.50491
844.76        78.21786
845.17        77.50009
845.57        76.66745
845.98        76.21967
846.38        76.28065
846.79        76.67152
847.19        77.22408
847.60         77.5455
848.00        77.54449
848.41        77.32671
848.81        77.02033
849.22        76.72826
849.62        76.55235
850.03        76.45904
850.43        76.49294
850.84        76.65675
851.24         76.9849
851.65        77.29851
852.05        77.74218
852.46        78.36251
852.86        79.12283
853.27        80.00523
853.67        80.47293
854.07        79.83815
854.48        78.14115
854.88        75.64868
855.29        73.22538
855.69        72.11564
856.10        72.56479
856.50        74.40997
856.90        76.95235
857.31        78.54932
857.71        78.66371
858.12        77.69173
858.52        76.30984
858.92         75.4202
859.33        75.23235
859.73        75.48043
860.13        76.04539
860.54         76.6883
860.94        77.35123
861.34        78.09671
861.75         78.7893
862.15        79.29125
862.55        79.52786
862.96        79.47394
863.36        79.29747
863.76        79.27409
864.17         79.4761
864.57        79.88552
864.97        80.33427
865.38        80.54765
865.78        80.51843
866.18        80.25844
866.58        79.97328
866.99        79.99406
867.39        80.45773
867.79        81.30186
868.19        82.13608
868.60        82.22895
869.00        81.42186
869.40        79.94408
869.80        78.56398
870.21        78.47266
870.61        80.01259
871.01        82.79942
871.41        85.93668
871.81        87.89603
872.22        88.22483
872.62        87.34544
873.02        86.02341
873.42        85.60915
873.82        86.28258
874.22        87.39887
874.63        88.54136
875.03        88.90304
875.43         88.1368
875.83        87.36507
876.23        85.65064
876.63        85.11828
877.03        85.83099
877.44         88.0892
877.84        102.3862
878.24        96.09212
878.64         95.9232
879.04        94.64688
879.44        90.71207
879.84        88.57181
880.24        91.66723
880.64        93.55716
881.04        94.76962
881.44        95.41257
881.84        94.80515
882.24        93.30045
882.65        91.82027
883.05        91.27356
883.45        91.82567
883.85        93.38682
884.25        95.33692
884.65        96.39465
885.05        96.17715
885.45        95.13786
885.85        93.95076
886.25        93.54234
886.65        94.09749
887.05        95.26566
887.45        96.67004
887.85        97.63939
888.25        97.91295
888.65        97.75932
889.04        97.25529
889.44        96.56396
889.84        95.78693
890.24        94.83483
890.64        94.02436
891.04        93.85468
891.44        94.37202
891.84        95.49567
892.24        96.65659
892.64        96.80382
893.04        95.78198
893.44        94.03635
893.83        92.32307
894.23        91.74001
894.63        92.47208
895.03        94.09649
895.43        96.23422
895.83         98.1544
896.23        99.46854
896.63        100.3889
897.02        100.6476
897.42        99.84369
897.82        98.10856
898.22        95.64837
898.62        93.33023
899.01          92.441
899.41        93.20847
899.81        95.17856
900.21        97.61686
900.61        99.28569
901.00        99.78551
901.40        99.48666
901.80        98.67542
902.20        97.81961
902.59        97.11612
902.99        96.38319
903.39        95.71008
903.79        95.28352
904.18        95.15259
904.58        95.39454
904.98        95.83514
905.38        96.14942
905.77        96.23125
906.17         96.1153
906.57        95.97797
906.96        96.15367
907.36        96.62099
907.76        97.28294
908.15         97.8169
908.55         97.5949
908.95        96.56616
909.34        94.91145
909.74        93.21802
910.14        92.22211
910.53        92.14783
910.93        92.84912
911.33         93.9582
911.72        94.80304
912.12        95.07816
912.52        94.93967
912.91        94.71999
913.31        94.85529
913.70        95.47285
914.10        96.45493
914.49        97.40121
914.89        97.28635
915.29        95.88698
915.68        93.64474
916.08        91.64912
916.47        90.87183
916.87        91.40502
917.26        92.91677
917.66        94.66952
918.05        95.48277
918.45        95.03119
918.84        93.74026
919.24        92.31319
919.64        91.76077
920.03        92.35535
920.42        93.73359
920.82        95.42718
921.21        96.79034
921.61        97.38139
922.00        97.43337
922.40        96.98399
922.79        96.06432
923.19        94.81755
923.58        93.18603
923.98        91.32394
924.37        89.97872
924.77        89.67303
925.16        88.16808
925.55        89.45047
925.95        90.48557
926.34        92.32967
926.74        94.54127
927.13        96.63145
927.52         97.5386
927.92        97.13265
928.31        95.75492
928.70        93.78313
929.10        91.90356
929.49        90.36609
929.89        89.05961
930.28        88.36034
930.67        88.87817
931.07          90.519
931.46        93.15353
931.85        95.79884
932.24        96.97292
932.64        96.37459
933.03        94.25834
933.42        91.30177
933.82        89.09902
934.21        88.18549
934.60        88.19424
934.99        88.56081
935.39        88.67873
935.78        88.43388
936.17        87.68985
936.56        86.26089
936.96         86.8956
937.35        85.69475
937.74        85.84551
938.13        86.08805
938.53        86.63467
938.92        87.50292
939.31        88.76584
939.70        90.12783
940.09        90.64606
940.49          90.034
940.88        88.65681
941.27        87.19864
941.66        86.48571
942.05        86.62858
942.44        87.36777
942.84        88.38651
943.23        89.22204
943.62        89.60794
944.01        89.67624
944.40        89.52155
944.79        89.29015
945.18        89.02294
945.57        88.61779
945.97        88.03646
946.36        87.30692
946.75        86.60181
947.14        86.08936
947.53        85.79207
947.92        85.63949
948.31        85.60509
948.70        85.69629
949.09        85.99107
949.48        86.61489
949.87        87.51414
950.26        88.52431
950.65        89.43809
951.04        90.01707
951.43        90.18861
951.82        89.99147
952.21        89.39706
952.60        88.42841
952.99        87.18301
953.38        85.71555
953.77        84.31959
954.16        83.37608
954.55        82.97476
954.94        83.12847
955.33         83.4787
955.72        83.38883
956.11         82.7243
956.50        81.58996
956.89        80.63794
957.28        81.06011
957.66        83.14616
958.05        86.23421
958.44        89.24092
958.83        90.57788
959.22        89.90283
959.61         87.6697
960.00        84.75291
960.39        82.59009
960.78        81.66367
961.16        81.66582
961.55        82.05325
961.94        81.87611
962.33         80.8986
962.72        79.51561
963.11        78.30233
963.49        77.97862
963.88        78.66028
964.27        80.17216
964.66        81.92262
965.04        82.70543
965.43        82.02216
965.82        80.32999
966.21        78.59753
966.60        78.07864
966.98        78.98456
967.37        80.91991
967.76         83.1144
968.15         84.0704
968.53        83.35038
968.92        81.46681
969.31        79.33161
969.69        78.13831
970.08        78.14378
970.47          79.009
970.86        80.15116
971.24        80.55568
971.63        79.89564
972.02        78.46877
972.40        76.93952
972.79         76.4594
973.17        77.48267
973.56        79.54437
973.95        81.92191
974.33        83.22327
974.72        82.91211
975.11        81.46299
975.49        79.65042
975.88        78.53274
976.26        78.29437
976.65          78.687
977.04        79.18814
977.42        78.64458
977.81        76.76469
978.19        74.08246
978.58        72.03674
978.96        71.99132
979.35        74.10667
979.74        78.12959
980.12        83.13192
980.51        85.88886
980.89        85.50378
981.28        82.88803
981.66         79.6787
982.05        77.95184
982.43        78.02545
982.82        79.14871
983.20        80.94475
983.59        82.98438
983.97        85.14359
984.35        87.65874
984.74        89.93816
985.12        90.92436
985.51        89.88561
985.89         86.9397
986.28        82.88612
986.66        79.12569
987.04        76.52232
987.43        74.98928
987.81        74.13734
988.20        73.27605
988.58        72.08196
988.96        70.48207
989.35        68.81718
989.73        68.74539
990.12        71.05991
990.50        74.84455
990.88         77.9964
991.27        79.21783
991.65        78.95095
992.03         77.6263
992.42        76.08018
992.80        75.51077
993.18        76.35631
993.56        77.72119
993.95        79.23921
994.33        80.99113
994.71        82.70107
995.10        84.62484
995.48        85.94748
995.86        85.14892
996.24        81.93252
996.63        76.34669
997.01        69.95673
997.39        67.32861
997.77        70.46545
998.15        78.07895
998.54        86.62969
998.92        91.40018
999.30        90.90787
999.68        86.51074
1000.06        79.13194
1000.45        71.57075
1000.83         65.7544
1001.21        61.22684
1001.59        58.75472
1001.97        59.12762
1002.35        62.17075
1002.73        68.54744
1003.12        76.51739
1003.50        79.69917
1003.88        75.04832
1004.26        65.30126
1004.64        55.74063
1005.02        51.06273
1005.40        51.71073
1005.78        57.23372
1006.16        68.20219
1006.54        79.08431
1006.92        82.88856
1007.30        81.58836
1007.69        79.01003
1008.07        77.92393
1008.45        78.60165
1008.83        80.69057
1009.21        84.20442
1009.59        83.47331
1009.97        54.56716
1010.35       -17.65548
1010.73       -38.28151
1011.11       -10.38354
1011.49        17.20338
1011.86        39.36002
1012.24        52.57952
1012.62        58.53783
1013.00        60.05145
1013.38        58.47356
1013.76        55.82304
1014.14        58.46711
1014.52        71.62049
1014.90        96.74638
1015.28        126.3512
1015.66        139.4967
1016.04        124.1068
1016.41         84.8844
1016.79        44.78418
1017.17        27.10479
1017.55        28.47691
1017.93         36.6305
1018.31        44.86665
1018.69        49.65603
1019.06        51.28836
1019.44        50.43061
1019.82        47.81098
1020.20        46.10122
1020.58        48.85793
1020.95        60.68478
1021.33        79.46375
1021.71        121.2651
1022.09        113.3907
1022.46        122.1113
1022.84        129.3869
1023.22        138.5703
1023.60        158.9605
1023.97        350.1323
1024.35        27.41453
1024.73        63.01147
