SpectraSmart Spectrum 2.9.0.0
--------- Device Information -----------
Spectrum Name :  反射率_0
Saving Time :  2024/04/26 02:07:23
Spectro-Module Model Name : SE2030-DUVN
Spectro-Module Serial Number : OS361AC55029948
Wavelength Start : 200
Wavelength End : 1025
Wavelength Unit : Wavelength(nm)
Spectrum Unit : Reflectance(%)
-----------Spectrum Setting ------------
Integration Time : 20ms
Average : 10
Boxcar : 0
Background removal :  enabled
linearity correction :  enabled
SC :  disabled
Intensity correction :  disabled
DWT denoise :  enabled
savitzky-golay :  disabled
FFT :  disabled
Running average :  disabled
Kalman :  disabled
High pass :  disabled
---------------BEGIN--------------------
Wavelength(nm)             Reflectance(%)
200.29               0
200.75        95.18077
201.21        86.65571
201.67          76.651
202.13        69.68871
202.58        66.37977
203.04        65.76701
203.50        66.98769
203.96        68.55356
204.42        69.72049
204.88        70.82729
205.34        71.90575
205.80        73.15674
206.26        74.99374
206.72        78.05222
207.18        83.31597
207.64        87.98389
208.10        85.19947
208.55        78.81185
209.01        74.57685
209.47        72.91391
209.93        72.70097
210.39        73.60182
210.85        74.56783
211.31        73.55836
211.77        70.24599
212.23        65.41831
212.69        61.46828
213.14        62.20226
213.60        67.85734
214.06        77.37766
214.52        87.39645
214.98        92.80834
215.44        92.41269
215.90        87.79585
216.36        81.72777
216.81         78.0556
217.27        77.85277
217.73         79.7789
218.19        81.56401
218.65        80.18496
219.11         74.5258
219.57        63.86716
220.02        49.80795
220.48        41.49835
220.94        44.08811
221.40        55.12514
221.86        65.48682
222.32        65.66819
222.77        56.90903
223.23         44.6672
223.69        34.34229
224.15        31.37751
224.61        35.11249
225.06        42.68253
225.52        50.33402
225.98        53.33247
226.44         50.8765
226.90        45.13528
227.36        38.61115
227.81        34.62218
228.27        34.23233
228.73        36.01851
229.19        39.02558
229.65        41.86742
230.10         43.8862
230.56        45.45258
231.02        46.51075
231.48        46.92964
231.93        46.80321
232.39         46.1954
232.85        45.33188
233.31        44.66294
233.77        44.30233
234.22        44.14314
234.68        44.14524
235.14        44.12539
235.60        44.03578
236.05        44.02198
236.51        44.03485
236.97        43.92315
237.43         43.7175
237.88        43.49811
238.34        43.54493
238.80          44.676
239.26        47.12894
239.71         50.6461
240.17        54.44733
240.63        57.67821
241.08        60.02646
241.54        61.55002
242.00        62.35306
242.46        62.67208
242.91        62.78328
243.37        62.06213
243.83        61.57286
244.28        74.46503
244.74        115.6598
245.20        126.1288
245.66        119.4985
246.11        116.4992
246.57        116.7861
247.03        120.0121
247.48           120.2
247.94        82.41582
248.40         72.9842
248.85        74.14578
249.31        76.69019
249.77        80.13454
250.22        85.10278
250.68        93.11764
251.14        103.8181
251.59         109.313
252.05        102.7478
252.51        88.20216
252.96         73.8096
253.42          66.897
253.88        66.61725
254.33        70.17233
254.79         75.9933
255.25        81.23288
255.70        84.62648
256.16        87.22823
256.62        88.12031
257.07         86.2415
257.53        82.53213
257.99        77.32191
258.44        72.26728
258.90        70.25069
259.35        70.27361
259.81        71.18118
260.27        71.10905
260.72         68.2694
261.18        63.42548
261.63        57.40878
262.09        51.75342
262.55        47.55923
263.00        44.88126
263.46        43.33074
263.91        42.13816
264.37        40.71422
264.83        38.86408
265.28        36.69157
265.74        34.73495
266.19        33.57066
266.65        33.34015
267.11        33.65382
267.56         33.9405
268.02        33.52378
268.47        32.29975
268.93        30.50997
269.38        28.51843
269.84        27.18768
270.30        26.75566
270.75        26.97926
271.21        27.43914
271.66        27.50611
272.12        27.00591
272.57        26.14921
273.03        25.22423
273.48        24.58148
273.94        24.32799
274.39        24.28034
274.85        24.27049
275.31        24.06343
275.76        23.59442
276.22        22.98619
276.67         22.3186
277.13        21.77734
277.58        21.37157
278.04        21.07545
278.49        20.80512
278.95        20.48905
279.40         20.0886
279.86         19.6787
280.31        19.27736
280.77        19.00643
281.22        18.84553
281.68        18.77205
282.13        18.73323
282.59        18.68004
283.04        18.59782
283.50        18.53321
283.95        18.46535
284.41        18.37631
284.86        18.26387
285.32        18.13207
285.77        18.06127
286.22        18.22778
286.68        18.61758
287.13        19.14803
287.59        19.61402
288.04        19.70977
288.50        19.41378
288.95        18.82318
289.41        18.17562
289.86        17.73068
290.32        17.60663
290.77        17.71152
291.22        17.97598
291.68        18.25261
292.13        18.51119
292.59        18.81267
293.04        19.21069
293.50        19.78177
293.95        20.52507
294.40        21.37193
294.86        22.26549
295.31        23.14052
295.77        23.98282
296.22         24.8243
296.68        25.66044
297.13         26.4473
297.58        27.21141
298.04        27.99011
298.49        28.88078
298.95        30.07926
299.40        31.60603
299.85        33.39011
300.31        35.29325
300.76        37.09097
301.21        38.68004
301.67        40.13343
302.12        41.44099
302.58        42.68263
303.03        43.87914
303.48        45.04111
303.94        46.28671
304.39        47.74516
304.84        49.44389
305.30        51.33918
305.75        53.25549
306.20        54.93467
306.66        56.33471
307.11        57.48731
307.57        58.55599
308.02        59.68727
308.47        60.97204
308.93        62.35756
309.38        63.77014
309.83        65.14289
310.29        66.43047
310.74        67.62488
311.19        68.73191
311.65        69.75929
312.10         70.7064
312.55        71.58391
313.00        72.35207
313.46        72.95631
313.91        73.38315
314.36        73.67212
314.82         73.9598
315.27        74.40998
315.72        75.08955
316.18        75.95621
316.63        76.89249
317.08        77.65897
317.53        78.18155
317.99        78.50343
318.44        78.77757
318.89        79.26469
319.35        79.99959
319.80        80.92525
320.25        81.79951
320.70        82.22425
321.16        82.12274
321.61        81.63492
322.06         81.0594
322.51        80.86473
322.97        81.14496
323.42        81.79265
323.87        82.57109
324.32        83.06979
324.78        83.15353
325.23        82.98344
325.68        82.69889
326.13        82.55087
326.59        82.60539
327.04        82.81056
327.49        83.10963
327.94        83.44324
328.39        83.77872
328.85        84.12486
329.30        84.51514
329.75        84.84565
330.20        85.11209
330.66        85.32162
331.11        85.57718
331.56        85.98061
332.01        86.57056
332.46         87.2942
332.92        88.09499
333.37        89.03592
333.82        90.00873
334.27        91.00003
334.72        91.83886
335.17        92.25472
335.63        92.20691
336.08        91.82124
336.53        91.35192
336.98         91.2521
337.43        91.64339
337.88        92.40147
338.34        93.33784
338.79        94.21909
339.24         94.9052
339.69        95.48793
340.14        95.93559
340.59        96.18989
341.05        96.27609
341.50        96.19205
341.95        96.10414
342.40        96.29527
342.85         96.8206
343.30        97.60709
343.75        98.47895
344.20        99.11003
344.66        99.40232
345.11        99.42247
345.56        99.28368
346.01        99.16302
346.46         99.1282
346.91        99.13656
347.36        99.16254
347.81        99.17097
348.26        99.16248
348.72        99.18514
349.17        99.25101
349.62        99.42062
350.07        99.68568
350.52        99.99359
350.97         100.286
351.42        100.4847
351.87        100.5643
352.32        100.5535
352.77        100.4343
353.22        100.1841
353.67        99.82324
354.13        99.37827
354.58        98.93094
355.03        98.66792
355.48        98.61033
355.93        98.69556
356.38        98.77763
356.83        98.61844
357.28        98.16119
357.73        97.48801
358.18        96.70045
358.63        95.96083
359.08        95.33434
359.53        94.78384
359.98        94.29868
360.43         93.8616
360.88        93.44838
361.33        93.05224
361.78        92.65941
362.23        92.24139
362.68        91.78817
363.13        91.31457
363.58        90.77346
364.03        90.09401
364.48        89.28369
364.93        88.37184
365.38        87.49503
365.83         86.8745
366.28        86.54295
366.73        86.41595
367.18        86.33547
367.63        86.04047
368.08        85.46609
368.53        84.71513
368.98        83.86462
369.43        83.02512
369.88        82.24898
370.33        81.50137
370.78        80.85063
371.23         80.4158
371.68        80.20962
372.13          80.205
372.58        80.27242
373.03        80.18015
373.48        79.86635
373.93        79.39297
374.38        78.86015
374.83        78.42902
375.28        78.13715
375.72        77.91248
376.17        77.72379
376.62        77.49863
377.07        77.20583
377.52        76.86537
377.97         76.4754
378.42        76.02821
378.87        75.54243
379.32         75.0437
379.77        74.54091
380.22         74.0418
380.67        73.54419
381.11        73.03455
381.56        72.56277
382.01        72.21552
382.46        72.01166
382.91        71.94981
383.36         71.8869
383.81        71.59584
384.26        71.04781
384.71        70.30438
385.15        69.58563
385.60        69.28625
386.05        69.41499
386.50        69.83393
386.95        70.24235
387.40        70.13654
387.85        69.45183
388.29        68.40215
388.74          67.365
389.19        66.59553
389.64        66.14818
390.09        65.88586
390.54        65.82356
390.98        65.98782
391.43        66.32532
391.88        66.80028
392.33        67.17461
392.78        67.04708
393.23        66.40805
393.67        65.50953
394.12        64.70073
394.57        64.00777
395.02        63.63735
395.47         64.0715
395.91        65.11361
396.36        65.74175
396.81        65.77752
397.26        65.66892
397.71         65.4871
398.15        65.08186
398.60        64.58015
399.05        64.13609
399.50         63.7556
399.95        63.03017
400.39        62.37774
400.84        62.15367
401.29        62.39236
401.74        62.54184
402.18        62.53359
402.63        62.53314
403.08        62.61662
403.53        62.83068
403.97        63.16729
404.42        63.54825
404.87        63.79041
405.32        63.62963
405.76        63.03642
406.21         62.1664
406.66        61.28875
407.11        60.83896
407.55        60.91887
408.00        61.26884
408.45        61.72684
408.90        62.23462
409.34         62.5204
409.79         62.0612
410.24        61.14599
410.68        60.71806
411.13        60.88344
411.58        61.15444
412.03        61.43307
412.47        61.75089
412.92         62.0014
413.37         62.2092
413.81        62.32872
414.26        62.32395
414.71        62.18253
415.15        61.90623
415.60        61.58297
416.05        61.37743
416.49        61.33783
416.94        61.44808
417.39        61.58214
417.83        61.50607
418.28        61.19065
418.73        60.71516
419.17        60.28787
419.62         60.2432
420.07        60.60372
420.51         61.2506
420.96        61.93171
421.41        62.18183
421.85        61.87893
422.30        61.39349
422.74        60.86537
423.19        60.31305
423.64        59.91175
424.08        60.24457
424.53        61.14316
424.98        61.72531
425.42        61.85376
425.87         62.1116
426.31        62.48613
426.76         62.4232
427.21         62.1013
427.65        62.28704
428.10        62.93242
428.54         63.5026
428.99        63.95733
429.44        64.22594
429.88        64.29623
430.33         64.8736
430.77        65.45306
431.22        64.46536
431.66        62.39314
432.11        61.20938
432.56         61.1915
433.00        62.08561
433.45        63.72929
433.89        65.25102
434.34        65.53286
434.78        67.24173
435.23        63.69017
435.67        62.09235
436.12        63.90377
436.57        65.03754
437.01        65.99587
437.46        66.36877
437.90         66.2599
438.35        66.14457
438.79        66.33138
439.24        66.31429
439.68        66.20499
440.13        66.04716
440.57        66.06528
441.02        66.80694
441.46        67.98344
441.91        68.84873
442.35        69.09145
442.80         68.3396
443.24        67.03065
443.69         67.4287
444.13         69.1926
444.58        69.15331
445.02          67.537
445.47         67.3339
445.91        68.45441
446.36        68.86221
446.80        68.48345
447.24        68.36495
447.69        68.58495
448.13        68.83952
448.58        69.13843
449.02        69.50611
449.47        69.88383
449.91        70.19365
450.36        70.41022
450.80        70.53261
451.25        70.56773
451.69        70.50313
452.13        70.36935
452.58         70.1735
453.02        69.98697
453.47         69.9603
453.91        70.09833
454.36        70.36884
454.80        70.65079
455.24        70.65993
455.69        70.36666
456.13        69.97147
456.58        69.64668
457.02         69.2436
457.46        68.98457
457.91        69.44624
458.35        70.35112
458.79        70.74387
459.24        70.57213
459.68        70.20146
460.13        69.72392
460.57        69.42503
461.01         69.4804
461.46        68.65445
461.90        68.29102
462.34        69.22166
462.79        68.31525
463.23        68.66707
463.68        69.12877
464.12        69.43259
464.56        69.47092
465.01        69.49646
465.45        69.39304
465.89        69.18726
466.34        68.85936
466.78        67.87239
467.22         66.6875
467.67        66.62427
468.11        67.64348
468.55        68.41585
468.99         68.6189
469.44        68.40137
469.88        67.95515
470.32        68.01384
470.77        68.49814
471.21        68.53571
471.65        68.08149
472.10         67.7721
472.54         67.7094
472.98        67.69804
473.42        67.72965
473.87        68.10538
474.31        68.58189
474.75        68.27411
475.20        67.41195
475.64        67.25543
476.08        67.81152
476.52        67.91504
476.97        67.52431
477.41        67.58895
477.85         68.2009
478.29         67.4922
478.74        68.49405
479.18        68.19415
479.62        67.27325
480.06        67.73799
480.50        68.09983
480.95        68.46991
481.39        68.37054
481.83        67.69958
482.27        67.96297
482.72        67.42516
483.16        66.50627
483.60        66.67906
484.04        68.17991
484.48        68.60116
484.93        68.47019
485.37        69.78848
485.81        70.31817
486.25        68.92679
486.69        92.64716
487.14        75.10455
487.58        47.04023
488.02        57.79741
488.46        65.96437
488.90        65.92542
489.34        67.23589
489.79        66.44361
490.23        68.61475
490.67        69.48022
491.11        68.49299
491.55        68.41343
491.99        68.84774
492.43        68.64274
492.88        67.89971
493.32        67.82893
493.76        67.94925
494.20        68.17177
494.64        68.25837
495.08        68.41718
495.52        68.66763
495.96        68.65894
496.41         68.3897
496.85        68.82584
497.29         69.6794
497.73        68.56596
498.17        66.47697
498.61         66.6741
499.05        69.15368
499.49        69.69328
499.93        69.74754
500.37        69.47826
500.82        68.83591
501.26        68.88115
501.70        69.37362
502.14        69.66479
502.58        69.58043
503.02        69.45149
503.46        69.26812
503.90        68.82368
504.34        68.29556
504.78        68.04803
505.22        68.11648
505.66        68.50136
506.10         69.0641
506.54        69.22855
506.98         68.8356
507.42        69.32848
507.86        68.52911
508.30        68.55126
508.74        68.75155
509.18        69.13699
509.62        69.52704
510.06        69.60425
510.50        69.37346
510.94        69.08332
511.38        68.86165
511.82         68.7407
512.26        68.76956
512.70        68.98114
513.14        69.28538
513.58        69.52184
514.02        69.64148
514.46        69.62542
514.90        69.50484
515.34        69.63393
515.78        69.50862
516.22        69.58122
516.66        69.66012
517.10         69.5275
517.54        69.17364
517.98        69.27013
518.42        69.00237
518.86        69.09482
519.30        69.29211
519.74         69.6272
520.18        70.00111
520.62        70.24547
521.06        70.32526
521.50        70.28451
521.93        70.16767
522.37        70.05021
522.81         69.9698
523.25        69.90379
523.69        69.87518
524.13        69.92146
524.57        70.03996
525.01        70.22117
525.45        70.40899
525.89        70.50706
526.32        70.48397
526.76        70.36482
527.20        70.19188
527.64        70.05375
528.08        69.99335
528.52        69.93127
528.96         69.8217
529.40        69.78936
529.83        69.86292
530.27        69.30078
530.71        69.50771
531.15        69.43557
531.59        69.50336
532.03        69.64589
532.46        69.85951
532.90        70.10589
533.34        70.34404
533.78        70.57803
534.22        70.75153
534.66        70.79012
535.09        70.67701
535.53        70.46114
535.97        70.20148
536.41        70.01587
536.85        69.94126
537.28        69.95247
537.72        70.00533
538.16        70.03726
538.60         70.0279
539.04        69.94382
539.47        69.81029
539.91        69.85252
540.35        70.00191
540.79        69.94859
541.22         69.7146
541.66         69.6319
542.10        69.68347
542.54        69.70896
542.97        69.70433
543.41        69.77296
543.85        69.88551
544.29        70.07087
544.72        70.25758
545.16         70.2003
545.60        69.83953
546.04        69.84217
546.47        69.39078
546.91        69.25025
547.35        69.27014
547.79        69.91013
548.22        70.82623
548.66         71.0427
549.10        70.49257
549.53        69.69778
549.97        69.00761
550.41        68.68483
550.84        68.83704
551.28        69.39396
551.72        70.10989
552.15        70.53262
552.59        70.53981
553.03        70.29989
553.46        69.95439
553.90         69.7365
554.34        69.69933
554.77        69.88355
555.21        69.79836
555.65        70.03295
556.08        70.41271
556.52        69.89722
556.96         70.1352
557.39        69.87602
557.83        69.71363
558.27        69.74986
558.70        69.97449
559.14        70.16539
559.57        70.26492
560.01        70.41811
560.45        70.58926
560.88        70.64575
561.32        70.58187
561.75        70.44515
562.19        70.29324
562.63        69.88985
563.06        69.40556
563.50        69.51815
563.93         70.0801
564.37        70.30241
564.80         70.1061
565.24        69.96207
565.68         69.9101
566.11        69.83298
566.55        69.79018
566.98        69.78186
567.42        69.82763
567.85        69.95599
568.29         70.2024
568.72        70.34873
569.16        70.49429
569.60        70.89931
570.03        71.22964
570.47        70.93176
570.90        70.34503
571.34        68.66637
571.77        69.82346
572.21        69.70657
572.64        69.21906
573.08        68.81255
573.51        65.60001
573.95        68.06255
574.38        72.10646
574.82        69.96251
575.25        69.69176
575.69        67.78622
576.12        66.41756
576.56        65.79486
576.99        67.37472
577.42        70.35893
577.86        70.22746
578.29        69.37003
578.73        72.85069
579.16        67.38554
579.60        61.82043
580.03        64.43778
580.47        68.65712
580.90        70.41252
581.33        69.08797
581.77        67.99806
582.20        74.49846
582.64        74.10706
583.07        63.54044
583.51        62.50057
583.94        61.46271
584.37        64.39497
584.81        67.89389
585.24         71.4686
585.68        72.85269
586.11        71.54681
586.54        66.23872
586.98        64.18666
587.41        64.96938
587.85        68.68364
588.28        71.15659
588.71        67.41441
589.15        65.67747
589.58        67.11893
590.01        67.33025
590.45         68.5312
590.88        69.18253
591.31        68.55673
591.75        68.16896
592.18        68.18034
592.61        69.45702
593.05        70.02267
593.48          72.635
593.91        73.16505
594.35        67.45383
594.78        66.26139
595.21        66.02828
595.65        69.00184
596.08        71.53545
596.51        68.78306
596.94        66.87066
597.38        67.55052
597.81        70.25161
598.24        71.97472
598.68        70.31778
599.11         69.5947
599.54        71.77682
599.97        73.24236
600.41        68.41826
600.84        68.56334
601.27        69.82992
601.70        69.11399
602.14         69.1206
602.57        68.14938
603.00        68.59019
603.43         70.0381
603.87        71.53534
604.30        71.43895
604.73        69.35406
605.16        67.72401
605.60        68.83646
606.03        70.00887
606.46        71.20165
606.89        70.67235
607.32        68.47348
607.76        68.20061
608.19        70.52705
608.62        69.71061
609.05        68.67192
609.48        69.14052
609.92        68.75166
610.35        69.05847
610.78        71.12967
611.21        71.57546
611.64        68.61125
612.07        69.18088
612.50        69.49099
612.94        69.85473
613.37        69.23784
613.80        69.82048
614.23        70.66555
614.66         70.1007
615.09        70.20291
615.52          70.053
615.96        70.14533
616.39        70.27158
616.82        69.27111
617.25        68.82724
617.68        69.75501
618.11        70.39033
618.54        70.78327
618.97        70.31036
619.40        69.37026
619.84        69.29137
620.27        70.36105
620.70        70.93752
621.13        70.95985
621.56        70.39814
621.99         69.5899
622.42        70.42121
622.85        72.33613
623.28        72.06764
623.71        71.43237
624.14        71.09943
624.57        71.01653
625.00        70.61656
625.43        70.91724
625.86        70.36442
626.29        70.58257
626.72        71.13788
627.15        70.96973
627.58        70.86246
628.01        70.89494
628.44        71.23231
628.87        71.36074
629.30        71.35535
629.73        71.78615
630.16        72.03032
630.59        71.58339
631.02        71.18455
631.45        70.76361
631.88        70.48984
632.31        70.40726
632.74        70.48846
633.17        70.66836
633.60         70.8127
634.03        70.87793
634.46        70.90368
634.89        70.90481
635.32        70.90479
635.75         70.9146
636.18        70.91329
636.61        70.91067
637.04        70.93383
637.47        70.98446
637.89        71.06772
638.32        71.13682
638.75        71.16001
639.18        71.12694
639.61        71.05257
640.04         70.9539
640.47        70.85841
640.90        70.78223
641.33        70.71587
641.76        70.64345
642.18        70.64309
642.61         70.7141
643.04        70.67063
643.47        70.46996
643.90        70.97439
644.33        70.70796
644.76        70.81697
645.18        70.84668
645.61        70.82194
646.04        70.72393
646.47         70.5273
646.90        70.33836
647.33        70.29027
647.75        70.43052
648.18         70.7596
648.61        71.05648
649.04        71.01403
649.47        70.58693
649.89        69.66315
650.32        68.71774
650.75        68.76876
651.18        69.74663
651.61         70.6765
652.03         71.1298
652.46        71.12381
652.89        70.98511
653.32        70.30831
653.74        69.49225
654.17        71.02501
654.60         71.4475
655.03        69.48993
655.46        70.04152
655.88        73.77643
656.31        78.34425
656.74        171.6941
657.16        110.9329
657.59        39.47661
658.02        30.15531
658.45        52.68459
658.87        67.82156
659.30        71.55558
659.73        70.18013
660.15        67.70367
660.58        70.29096
661.01        72.19159
661.44         70.0254
661.86        69.19228
662.29        68.96937
662.72        69.71396
663.14         71.1655
663.57        71.12955
664.00         69.8621
664.42        69.59303
664.85        70.40076
665.27        70.88165
665.70        70.83961
666.13        70.74364
666.55        70.57663
666.98        70.19934
667.41        69.77089
667.83        69.60686
668.26        69.77325
668.69        70.14548
669.11        70.51065
669.54        70.87389
669.96        70.50756
670.39        70.03828
670.82        69.48788
671.24        69.25669
671.67        69.44394
672.09         69.8672
672.52        70.24731
672.94         70.6935
673.37        69.98891
673.80        69.72503
674.22        69.64649
674.65        69.59752
675.07        69.57893
675.50         69.5742
675.92        69.58977
676.35        69.67431
676.77        69.82024
677.20        69.93573
677.62        70.01583
678.05        70.05959
678.47        70.05734
678.90        70.02785
679.32        69.99453
679.75        69.86172
680.17        69.91095
680.60        69.92349
681.02        69.94554
681.45        69.84991
681.87        69.64114
682.30        69.46298
682.72        69.37534
683.15        69.26254
683.57        69.24491
684.00        69.64953
684.42        70.44138
684.85         70.7579
685.27        70.55376
685.70        70.18987
686.12        69.81252
686.54        69.58608
686.97        69.56902
687.39        69.70521
687.82         69.8877
688.24        70.04865
688.66        70.13809
689.09        69.97292
689.51        70.00225
689.94        69.96333
690.36        70.00157
690.78        70.07171
691.21          70.156
691.63        70.23064
692.06        70.28476
692.48         70.3413
692.90        70.40054
693.33        70.44506
693.75        70.47371
694.17        70.49371
694.60        70.52114
695.02        70.55447
695.44        70.55832
695.87        70.73478
696.29        71.04357
696.71        70.79151
697.14        70.20119
697.56        70.67149
697.98         71.9136
698.41        71.83082
698.83        70.95927
699.25        70.43861
699.68        70.49797
700.10        70.39645
700.52        70.15671
700.94        70.18281
701.37        70.43661
701.79        70.74352
702.21        71.02585
702.64        71.33099
703.06        71.56107
703.48         71.5546
703.90        71.30532
704.33        70.86095
704.75        70.35914
705.17        70.11416
705.59        70.20946
706.01        70.44747
706.44        70.69154
706.86        71.32853
707.28        71.34427
707.70        71.51684
708.12        71.57745
708.55         71.5571
708.97         71.4496
709.39        71.25439
709.81        71.04691
710.23        70.94995
710.66        70.99648
711.08        71.18658
711.50        71.39985
711.92        71.45395
712.34        71.30991
712.76        71.01156
713.19        70.69608
713.61        70.61602
714.03         70.8104
714.45        71.20192
714.87         71.6075
715.29        71.73622
715.71        71.52637
716.13        71.08244
716.56        70.59557
716.98         70.3382
717.40          70.371
717.82        70.72014
718.24        71.28146
718.66        71.21146
719.08        71.48518
719.50        71.33536
719.92        71.13138
720.34        70.95493
720.76        70.85863
721.19        70.68214
721.61        70.65707
722.03        70.69691
722.45        70.85987
722.87        71.12228
723.29        71.42321
723.71        71.64707
724.13        71.75459
724.55        71.77251
724.97        71.72256
725.39        71.65088
725.81        71.58076
726.23        71.49979
726.65        71.43337
727.07        71.42075
727.49        71.47077
727.91        71.58637
728.33        71.72652
728.75        71.81453
729.17        71.82756
729.59        71.77698
730.01        71.72099
730.43        71.74778
730.85        71.87871
731.27         72.1088
731.69        72.34563
732.10        72.41863
732.52         72.2923
732.94         72.0632
733.36        71.87309
733.78        71.80819
734.20        71.90015
734.62        72.42639
735.04        73.17774
735.46         73.0852
735.88         72.3965
736.30         72.7439
736.72        74.04582
737.13        74.57941
737.55        74.08555
737.97         73.9715
738.39         74.2728
738.81        73.52362
739.23        72.19759
739.65        72.95008
740.06        75.26601
740.48        75.51151
740.90        73.77335
741.32        72.98395
741.74        73.42154
742.16        73.68074
742.57        73.80952
742.99         74.5855
743.41        75.75455
743.83        76.45461
744.25        76.53275
744.67        76.21233
745.08        75.75138
745.50        75.57185
745.92        75.80597
746.34        76.30257
746.75        76.88926
747.17        77.26575
747.59        77.36419
748.01        77.31696
748.42        77.27279
748.84        77.36164
749.26        77.68585
749.68        78.31795
750.09        79.07043
750.51        79.54395
750.93        79.62719
751.35         79.2689
751.76         78.6729
752.18        78.47509
752.60         78.6776
753.01        78.71402
753.43        78.60276
753.85        78.82732
754.27        79.39864
754.68        80.08528
755.10        80.71962
755.52        81.19556
755.93        81.43636
756.35        81.40612
756.77        81.24541
757.18        81.15828
757.60        81.20861
758.02        81.53606
758.43        81.81898
758.85        81.67181
759.26        80.01852
759.68        79.97578
760.10        81.00398
760.51        81.51768
760.93         81.1883
761.34        80.47381
761.76         79.6961
762.18        79.34074
762.59        79.50671
763.01        79.68307
763.42        79.93214
763.84        80.41611
764.26        81.09657
764.67        81.76691
765.09        82.16688
765.50         81.9734
765.92        81.21654
766.33        79.86749
766.75        78.47778
767.16         78.0877
767.58         78.8453
768.00        80.45281
768.41        82.44383
768.83        83.72259
769.24        83.78647
769.66        82.76926
770.07        81.28161
770.49        79.88807
770.90        78.96313
771.32        79.90354
771.73        82.02216
772.15        81.53896
772.56        78.91695
772.97        78.41753
773.39        79.97762
773.80        80.53891
774.22        79.90632
774.63        79.98318
775.05        80.67407
775.46        80.99918
775.88        80.83597
776.29        80.47449
776.70        80.07396
777.12        79.91245
777.53        80.07747
777.95        80.43296
778.36        80.79135
778.77        80.82908
779.19        80.51022
779.60        79.93354
780.02        79.36349
780.43        79.26216
780.84        79.76083
781.26        80.35968
781.67        80.91132
782.09        81.86543
782.50        82.75584
782.91        81.73322
783.33        79.48479
783.74        78.72705
784.15         79.6175
784.57        80.35054
784.98         80.6012
785.39        80.75374
785.81        80.70354
786.22        80.19061
786.63        79.54613
787.04        79.41505
787.46        79.87148
787.87        80.70428
788.28        81.60331
788.70        82.02945
789.11        81.85595
789.52        81.32298
789.93        80.68536
790.35        80.21061
790.76        80.03139
791.17        80.23951
791.58        80.72182
792.00        81.02231
792.41        81.02614
792.82         81.1321
793.23        81.39371
793.65        80.97346
794.06        80.24241
794.47        81.23983
794.88         83.2069
795.29        82.82214
795.71        80.32401
796.12        78.25849
796.53        77.26128
796.94        77.00677
797.35        77.56709
797.76        78.85845
798.18        80.28434
798.59        81.18628
799.00        81.22086
799.41        80.34242
799.82        79.03096
800.23        78.27928
800.64         78.3065
801.06        78.72078
801.47        79.38847
801.88        79.97852
802.29        80.34079
802.70        80.61985
803.11        80.76154
803.52        80.64373
803.93        80.28225
804.34        79.66575
804.75         79.0359
805.17        78.85313
805.58        79.24358
805.99        79.92432
806.40        80.57487
806.81        81.04265
807.22        80.99329
807.63        79.69357
808.04        77.74168
808.45        76.84634
808.86        77.22623
809.27         78.1122
809.68        79.10752
810.09        79.75562
810.50        79.82337
810.91        79.47256
811.32        78.92311
811.73        78.52672
812.14        78.39473
812.55        78.36857
812.96        78.44779
813.37        78.64246
813.78        78.91555
814.19        79.32152
814.60        79.63218
815.01        79.47647
815.42        78.81355
815.83        77.71427
816.24        76.60014
816.65        76.21741
817.05        76.78867
817.46        78.06908
817.87        79.51213
818.28        80.12962
818.69        79.65309
819.10        78.32771
819.51        76.79142
819.92        76.12436
820.33        76.60335
820.74        77.90167
821.14        79.38577
821.55        79.92662
821.96        79.29266
822.37        77.88273
822.78        76.30668
823.19        75.46197
823.60        75.58425
824.00        76.43835
824.41         77.5875
824.82        78.38589
825.23        78.55186
825.64        78.30414
826.04        77.84755
826.45         77.4761
826.86        77.28609
827.27        77.14791
827.68        77.03243
828.08        76.94977
828.49        76.83423
828.90        76.78215
829.31        76.75701
829.72         76.6601
830.12        76.50331
830.53        76.27937
830.94        76.13804
831.35         76.2822
831.75        76.78053
832.16        77.51479
832.57        78.32124
832.97          78.842
833.38        78.89851
833.79        78.59084
834.20        78.15569
834.60        77.95647
835.01         78.1008
835.42        78.46786
835.82        78.84544
836.23        78.79134
836.64        78.25354
837.04        77.41662
837.45        76.54501
837.86        76.05244
838.26        76.05659
838.67        76.38557
839.08        76.91644
839.48        77.41164
839.89        77.72454
840.29        77.93781
840.70        77.99042
841.11        77.77457
841.51        77.31048
841.92        76.59336
842.33         75.8552
842.73        75.50185
843.14        75.59156
843.54        76.07179
843.95        76.62458
844.35        76.77077
844.76        76.38265
845.17        75.62783
845.57        74.81402
845.98        74.41553
846.38        74.54192
846.79        75.02314
847.19        75.64487
847.60        75.93999
848.00        75.81621
848.41         75.4101
848.81        74.94941
849.22        74.69353
849.62        74.76885
850.03         75.0835
850.43        75.59119
850.84        76.12547
851.24        76.63668
851.65        76.98083
852.05        77.29585
852.46        77.63207
852.86        78.00201
853.27        78.42419
853.67        78.46687
854.07        77.59692
854.48        75.88394
854.88        73.54639
855.29        71.39632
855.69        70.59616
856.10        71.35904
856.50        73.54919
856.90        76.39709
857.31        78.10447
857.71        78.08929
858.12        76.78585
858.52        75.03723
858.92        73.97379
859.33        73.84702
859.73        74.34494
860.13        75.24307
860.54        76.06832
860.94        76.66814
861.34        77.17313
861.75        77.56525
862.15        77.88892
862.55        78.13322
862.96        78.23705
863.36        78.28465
863.76        78.41396
864.17        78.65421
864.57        79.01494
864.97        79.44502
865.38        79.84912
865.78        80.23736
866.18        80.55445
866.58        80.80538
866.99        80.98943
867.39        81.15926
867.79        81.33636
868.19        81.36311
868.60        80.94916
869.00        80.09325
869.40        78.92587
869.80         78.0136
870.21        78.19887
870.61        79.72417
871.01        82.32019
871.41        85.22141
871.81        87.11385
872.22          87.601
872.62        86.99508
873.02        85.97781
873.42        85.79878
873.82        86.60191
874.22        87.79824
874.63        88.94224
875.03         89.1597
875.43        88.11816
875.83        87.00043
876.23        84.93264
876.63        84.14838
877.03        84.69701
877.44        86.89365
877.84        102.7462
878.24        95.05482
878.64        94.74471
879.04         93.4413
879.44        89.01828
879.84        86.76067
880.24        90.52191
880.64        92.87981
881.04        94.54639
881.44        95.58773
881.84        95.13432
882.24        93.57781
882.65        91.96947
883.05        91.41446
883.45        92.12494
883.85        93.93715
884.25        96.17307
884.65        97.45419
885.05         97.3384
885.45        96.31633
885.85        95.04776
886.25         94.4222
886.65        94.63925
887.05        95.36839
887.45         96.3091
887.85        96.94679
888.25        97.07169
888.65         96.9002
889.04        96.47516
889.44        95.88938
889.84        95.20924
890.24        94.38321
890.64        93.63848
891.04        93.33679
891.44        93.52023
891.84        94.13154
892.24        94.82143
892.64        94.93092
893.04        94.37084
893.44        93.44211
893.83         92.5853
894.23        92.45423
894.63        93.15385
895.03        94.39216
895.43        96.01778
895.83        97.71958
896.23        99.24838
896.63        100.6782
897.02        101.5559
897.42         101.179
897.82        99.56226
898.22        96.99043
898.62        94.41321
899.01        93.23103
899.41        93.71919
899.81        95.40732
900.21        97.51712
900.61        98.75359
901.00        98.73903
901.40        97.89693
901.80         96.6593
902.20        95.69798
902.59        95.24538
902.99        95.06837
903.39        95.07269
903.79        95.11842
904.18        95.15538
904.58        95.33582
904.98        95.65527
905.38        96.07301
905.77        96.53186
906.17        96.93843
906.57        97.32241
906.96        97.81281
907.36        98.33843
907.76        98.88444
908.15         99.1848
908.55        98.69704
908.95        97.41554
909.34        95.49799
909.74        93.56427
910.14        92.39958
910.53        92.23701
910.93        92.93982
911.33        94.09143
911.72        94.91928
912.12        95.09863
912.52        94.81587
912.91        94.46658
913.31        94.56924
913.70         95.2629
914.10        96.40914
914.49        97.55251
914.89        97.53065
915.29        96.05681
915.68        93.61665
916.08        91.39029
916.47        90.44647
916.87        90.88718
917.26         92.3564
917.66        94.06042
918.05         94.7331
918.45        94.03644
918.84        92.42445
919.24        90.69286
919.64        89.98666
920.03        90.60641
920.42        92.16986
920.82        94.09396
921.21        95.51218
921.61         95.9454
922.00        95.71712
922.40        95.03477
922.79        94.17767
923.19        93.33409
923.58        92.33652
923.98        91.23009
924.37        90.50252
924.77        90.49216
925.16        89.20207
925.55        90.32923
925.95        91.16568
926.34         92.7355
926.74        94.62951
927.13        96.43953
927.52        97.22969
927.92         96.8961
928.31        95.73368
928.70        94.12869
929.10        92.76438
929.49          91.839
929.89        91.21959
930.28        91.07563
930.67        91.68583
931.07        92.89999
931.46        94.68669
931.85        96.37101
932.24          96.949
932.64        96.24586
933.03        94.42045
933.42        91.94327
933.82         89.9731
934.21        88.91177
934.60        88.56049
934.99        88.56161
935.39        88.54776
935.78        88.45564
936.17        88.08807
936.56        87.21732
936.96        88.09917
937.35        87.00519
937.74        86.94186
938.13        86.94375
938.53         87.3631
938.92        88.22015
939.31        89.52846
939.70        90.94931
940.09        91.45161
940.49        90.73694
940.88        89.26225
941.27        87.72424
941.66        86.94594
942.05        87.04646
942.44        87.73058
942.84        88.80018
943.23        90.00624
943.62        91.07159
944.01        92.02304
944.40        92.65895
944.79        92.66918
945.18        91.98777
945.57        90.61594
945.97        88.73573
946.36          87.048
946.75        86.05706
947.14         85.6681
947.53         85.7618
947.92        86.14154
948.31        86.71046
948.70        87.56543
949.09        88.45322
949.48         88.7573
949.87        88.24709
950.26        87.02602
950.65        85.62884
951.04        84.90408
951.43        85.04202
951.82        85.84444
952.21        86.81512
952.60        87.11594
952.99        86.53661
953.38        85.34412
953.77        84.06236
954.16        83.43886
954.55        83.63937
954.94        84.48184
955.33        85.43881
955.72        85.64228
956.11        84.89233
956.50        83.41662
956.89        81.96723
957.28        81.90135
957.66        83.62484
958.05        86.45964
958.44        89.39763
958.83        90.94804
959.22        90.74823
959.61        89.20367
960.00        87.01366
960.39        85.32639
960.78        84.52328
961.16        84.34082
961.55        84.33224
961.94        83.74888
962.33        82.47652
962.72        80.93372
963.11         79.6345
963.49        79.19978
963.88        79.71905
964.27        80.98886
964.66        82.66507
965.04        83.98388
965.43        84.45498
965.82         84.3131
966.21        83.83382
966.60        83.42685
966.98        83.21501
967.37        82.97738
967.76        82.70845
968.15        82.42018
968.53        82.12111
968.92        81.86418
969.31        81.55327
969.69        80.94895
970.08        80.05801
970.47        78.97911
970.86        77.93503
971.24        77.35121
971.63        77.36378
972.02        77.83894
972.40        78.68284
972.79        79.66098
973.17        80.71735
973.56         81.7863
973.95        82.61414
974.33        82.71331
974.72        81.94691
975.11        80.46649
975.49        78.94408
975.88        78.37141
976.26        78.85874
976.65        80.23917
977.04        81.76897
977.42        81.62711
977.81        79.26826
978.19        75.49232
978.58        72.09959
978.96        70.83543
979.35        71.93913
979.74        75.03892
980.12        79.44052
980.51        82.45088
980.89        83.18363
981.28        82.19736
981.66        80.54664
982.05        79.60832
982.43        79.63898
982.82        80.19229
983.20        81.03185
983.59        81.90919
983.97         82.8022
984.35        83.83085
984.74        84.83415
985.12        85.75558
985.51        86.24499
985.89        86.16334
986.28        85.37968
986.66        83.58955
987.04        81.23938
987.43        78.86265
987.81        76.67361
988.20        74.69238
988.58        72.69261
988.96        70.09519
989.35        67.54273
989.73        67.97263
990.12        72.57761
990.50        79.72882
990.88        85.04214
991.27        85.33597
991.65        81.24055
992.03        73.77127
992.42        65.62286
992.80        61.91057
993.18        64.11398
993.56        69.52707
993.95        75.68403
994.33        80.41991
994.71        83.14285
995.10        84.86472
995.48        85.50629
995.86        84.66553
996.24        82.35197
996.63        78.20649
997.01        73.19059
997.39        70.52283
997.77        71.66631
998.15        76.04929
998.54        81.01987
998.92        82.85166
999.30        80.36555
999.68         74.5853
1000.06         67.0155
1000.45        61.40364
1000.83        59.35904
1001.21        59.68749
1001.59         61.4561
1001.97        63.75367
1002.35        66.29589
1002.73        69.83002
1003.12        73.47626
1003.50        74.22299
1003.88        70.85007
1004.26        64.84993
1004.64        59.19257
1005.02        56.45585
1005.40        56.85072
1005.78        60.21688
1006.16        67.21447
1006.54         74.9791
1006.92        78.78435
1007.30        79.08665
1007.69        77.95821
1008.07         77.0915
1008.45        76.56583
1008.83        75.64365
1009.21        72.13964
1009.59        56.73034
1009.97        6.990042
1010.35       -70.18423
1010.73       -63.54593
1011.11        -16.5507
1011.49        19.12998
1011.86        44.93477
1012.24        59.35913
1012.62        64.66121
1013.00        64.14612
1013.38        59.04851
1013.76        51.54473
1014.14        50.35878
1014.52        63.20182
1014.90        92.38112
1015.28          130.29
1015.66        152.0432
1016.04        142.3867
1016.41        106.3307
1016.79        64.54517
1017.17         40.2298
1017.55        34.07428
1017.93        35.31786
1018.31        39.55962
1018.69        45.34684
1019.06        52.79287
1019.44        63.61371
1019.82        79.44516
1020.20          96.538
1020.58        107.7296
1020.95        102.8913
1021.33        52.17156
1021.71        816.8441
1022.09        192.5189
1022.46        158.4649
1022.84        148.9247
1023.22         150.655
1023.60        167.4601
1023.97        350.5718
1024.35        41.31868
1024.73        80.63159
