SpectraSmart Spectrum 2.9.0.0
--------- Device Information -----------
Spectrum Name :  反射率_0
Saving Time :  2024/04/26 01:29:40
Spectro-Module Model Name : SE2030-DUVN
Spectro-Module Serial Number : OS361AC55029948
Wavelength Start : 200
Wavelength End : 1025
Wavelength Unit : Wavelength(nm)
Spectrum Unit : Reflectance(%)
-----------Spectrum Setting ------------
Integration Time : 20ms
Average : 10
Boxcar : 0
Background removal :  enabled
linearity correction :  enabled
SC :  disabled
Intensity correction :  disabled
DWT denoise :  enabled
savitzky-golay :  disabled
FFT :  disabled
Running average :  disabled
Kalman :  disabled
High pass :  disabled
---------------BEGIN--------------------
Wavelength(nm)             Reflectance(%)
200.29               0
200.75        105.7329
201.21        93.46278
201.67        78.54936
202.13        69.44358
202.58         67.3588
203.04        70.22652
203.50        75.36375
203.96        78.16409
204.42        77.44083
204.88        75.07987
205.34         72.9828
205.80        73.09756
206.26        76.34052
206.72        84.35422
207.18        100.1095
207.64        113.5584
208.10        103.7844
208.55        84.77697
209.01        73.01202
209.47        69.28818
209.93        70.29243
210.39        74.40516
210.85        79.52545
211.31        81.16609
211.77        77.84858
212.23         71.2525
212.69        64.81683
213.14        63.87508
213.60        69.11284
214.06        78.92395
214.52         89.4874
214.98        95.04803
215.44        94.26161
215.90        89.10065
216.36        82.53107
216.81        78.60564
217.27        78.42956
217.73         80.4623
218.19         82.4388
218.65        81.41962
219.11        76.28977
219.57        66.38509
220.02        52.98956
220.48        44.28854
220.94        45.10018
221.40        53.57077
221.86        61.71667
222.32        60.97232
222.77         52.4801
223.23        41.23967
223.69        32.08617
224.15        29.93093
224.61         34.0845
225.06        41.79476
225.52         49.6554
225.98        53.43293
226.44        52.27111
226.90         48.0414
227.36        42.64202
227.81        38.54694
228.27        36.78822
228.73        36.41179
229.19         37.1188
229.65        38.49631
230.10        40.13058
230.56        41.98079
231.02        43.75658
231.48        45.08646
231.93        45.92822
232.39        46.37565
232.85        46.45017
233.31        46.25899
233.77        45.84731
234.22         45.1718
234.68        44.37292
235.14        43.69215
235.60        43.27996
236.05        43.21284
236.51        43.35048
236.97        43.38614
237.43        43.28403
237.88        43.15522
238.34        43.32458
238.80         44.6495
239.26        47.37603
239.71        51.28473
240.17        55.32171
240.63        58.19281
241.08        59.59042
241.54        59.74204
242.00         59.4431
242.46        59.98531
242.91        62.38858
243.37        68.12086
243.83        85.83649
244.28        144.0447
244.74        211.5778
245.20        177.0454
245.66        143.3687
246.11        132.0578
246.57        132.0532
247.03        141.9157
247.48        168.1816
247.94        129.0718
248.40        94.27711
248.85        87.01115
249.31        86.43147
249.77         88.0097
250.22        91.19363
250.68        96.49855
251.14        103.9447
251.59        108.9895
252.05        106.8551
252.51        99.65984
252.96        90.86446
253.42        84.10938
253.88        79.18213
254.33        75.09998
254.79         73.4205
255.25        75.59554
255.70        80.56261
256.16        86.91839
256.62        91.74545
257.07        92.20587
257.53        89.14579
257.99        83.63426
258.44        77.76116
258.90        74.87747
259.35        74.15366
259.81        74.42921
260.27        73.75843
260.72          70.283
261.18        64.83498
261.63        58.30031
262.09        52.41954
262.55        48.50784
263.00         46.4933
263.46        45.77346
263.91        45.30371
264.37        44.25317
264.83        42.42988
265.28        40.03986
265.74         37.7632
266.19        36.38342
266.65        36.09506
267.11        36.42731
267.56         36.7125
268.02        36.16753
268.47        34.67057
268.93        32.51424
269.38        30.13333
269.84        28.52032
270.30        27.96716
270.75        28.19562
271.21        28.73058
271.66        28.85644
272.12        28.36741
272.57        27.48938
273.03        26.54158
273.48        25.91566
273.94        25.72806
274.39        25.78496
274.85        25.86253
275.31        25.64674
275.76         25.0704
276.22        24.28391
276.67        23.47305
277.13        22.98101
277.58        22.81769
278.04         22.8849
278.49        22.95123
278.95        22.74605
279.40        22.20555
279.86        21.49183
280.31        20.73846
280.77        20.24554
281.22        20.03487
281.68        20.02049
282.13          20.094
282.59        20.13279
283.04        20.09394
283.50        20.05195
283.95        19.98041
284.41        19.85045
284.86         19.6645
285.32        19.43082
285.77         19.2533
286.22         19.3501
286.68        19.71761
287.13        20.26227
287.59        20.76715
288.04        20.90385
288.50        20.64206
288.95        20.08095
289.41        19.45653
289.86        19.02326
290.32        18.90054
290.77        18.99632
291.22        19.24186
291.68        19.49295
292.13        19.72015
292.59        19.98214
293.04        20.34244
293.50        20.89314
293.95        21.63424
294.40        22.49541
294.86        23.39671
295.31          24.234
295.77        24.99065
296.22        25.71377
296.68        26.43167
297.13        27.15678
297.58        27.92121
298.04        28.72752
298.49        29.64462
298.95         30.8267
299.40        32.27362
299.85        33.92908
300.31        35.62781
300.76        37.10539
301.21        38.27655
301.67        39.24599
302.12        40.08538
302.58        40.99014
303.03        41.99306
303.48        43.05315
303.94        44.22077
304.39        45.52203
304.84        46.94987
305.30        48.49207
305.75         49.9784
306.20        51.16205
306.66        52.02479
307.11        52.61035
307.57        53.13492
308.02         53.8255
308.47        54.78444
308.93        55.94405
309.38        57.18142
309.83        58.34356
310.29        59.36261
310.74        60.25056
311.19        61.05698
311.65         61.8594
312.10         62.6657
312.55        63.45422
313.00        64.12408
313.46        64.52688
313.91        64.63487
314.36        64.52821
314.82        64.40785
315.27        64.53631
315.72        64.99923
316.18        65.72364
316.63        66.55341
317.08        67.18929
317.53        67.53844
317.99        67.66602
318.44        67.73524
318.89        68.01743
319.35        68.55624
319.80        69.28381
320.25        69.97147
320.70        70.24949
321.16        70.04486
321.61        69.48766
322.06        68.85825
322.51        68.59032
322.97        68.77001
323.42        69.29816
323.87        69.93821
324.32        70.28243
324.78        70.20774
325.23        69.87101
325.68        69.44721
326.13        69.23991
326.59        69.32423
327.04        69.62569
327.49        70.03866
327.94        70.41496
328.39        70.69592
328.85        70.91682
329.30        71.13728
329.75        71.32848
330.20        71.50942
330.66        71.66251
331.11        71.87386
331.56        72.22491
332.01        72.74131
332.46        73.38559
332.92        74.09041
333.37         74.8626
333.82        75.60456
334.27        76.31808
334.72        76.89578
335.17        77.17589
335.63        77.14349
336.08        76.88342
336.53        76.58854
336.98        76.60329
337.43        77.01604
337.88        77.73717
338.34         78.5961
338.79        79.37997
339.24        79.97182
339.69        80.45134
340.14        80.83265
340.59        81.13898
341.05        81.39457
341.50        81.56301
341.95        81.73107
342.40         82.0612
342.85        82.58672
343.30         83.2823
343.75        84.00806
344.20        84.50379
344.66        84.70547
345.11        84.65974
345.56        84.52622
346.01         84.5517
346.46        84.79546
346.91        85.18792
347.36        85.58911
347.81        85.78204
348.26        85.73229
348.72        85.54385
349.17        85.34251
349.62        85.38466
350.07        85.72173
350.52        86.24854
350.97        86.82748
351.42        87.25818
351.87        87.47949
352.32        87.55368
352.77        87.51399
353.22        87.41368
353.67        87.28577
354.13        87.12598
354.58        86.94904
355.03        86.83799
355.48        86.80224
355.93        86.82457
356.38        86.85075
356.83        86.78468
357.28        86.59993
357.73         86.3259
358.18         85.9907
358.63           85.64
359.08        85.29966
359.53        84.96574
359.98        84.64508
360.43        84.35091
360.88        84.07469
361.33        83.79503
361.78        83.51736
362.23        83.24667
362.68        82.97865
363.13        82.72779
363.58        82.41235
364.03        81.90395
364.48        81.19831
364.93        80.33431
365.38        79.49746
365.83        78.98933
366.28        78.85703
366.73         78.9945
367.18        79.16932
367.63        78.99695
368.08        78.39358
368.53        77.51122
368.98        76.52406
369.43        75.69294
369.88        75.10329
370.33        74.66736
370.78        74.38456
371.23        74.25729
371.68        74.25561
372.13        74.38959
372.58        74.53715
373.03        74.48024
373.48        74.17532
373.93        73.67767
374.38        73.13557
374.83         72.7896
375.28        72.69089
375.72        72.75031
376.17        72.87726
376.62        72.89264
377.07        72.73405
377.52        72.44643
377.97        72.07179
378.42        71.67737
378.87        71.29732
379.32          70.925
379.77        70.53826
380.22        70.10252
380.67         69.6106
381.11         69.0756
381.56        68.56285
382.01        68.18087
382.46        67.95856
382.91        67.88203
383.36        67.82941
383.81        67.60498
384.26        67.18017
384.71        66.61369
385.15        66.06564
385.60        65.83767
386.05        65.93134
386.50        66.23293
386.95        66.53388
387.40        66.48692
387.85        66.04026
388.29         65.3296
388.74        64.61094
389.19        64.00271
389.64        63.54032
390.09        63.13818
390.54        62.86729
390.98        62.85214
391.43        63.08392
391.88        63.50205
392.33        63.86015
392.78        63.75975
393.23        63.18107
393.67         62.3326
394.12        61.55352
394.57         60.9612
395.02        60.70924
395.47        61.05459
395.91        61.84494
396.36        62.36135
396.81        62.46533
397.26        62.44879
397.71        62.35368
398.15        62.05933
398.60        61.67362
399.05        61.31229
399.50        60.99205
399.95        60.38333
400.39        59.86136
400.84        59.66754
401.29        59.84245
401.74        59.92798
402.18        59.89381
402.63        59.94658
403.08        60.12555
403.53        60.35508
403.97        60.61864
404.42        60.90966
404.87        61.10163
405.32        60.98027
405.76        60.51462
406.21        59.85501
406.66         59.1965
407.11        58.76413
407.55        58.66293
408.00        58.94697
408.45        59.45156
408.90        59.67454
409.34        59.49881
409.79        59.15263
410.24         58.8026
410.68        58.63102
411.13        58.70346
411.58        58.92848
412.03        59.25058
412.47        59.59136
412.92        59.85633
413.37        60.09122
413.81        60.23715
414.26        60.24273
414.71        60.09673
415.15        59.80787
415.60        59.47947
416.05        59.30264
416.49        59.33004
416.94        59.53464
417.39        59.78451
417.83        59.83057
418.28        59.63927
418.73        59.30341
419.17        59.01163
419.62        59.07122
420.07        59.50037
420.51        60.17469
420.96        60.90335
421.41        61.28872
421.85        61.20105
422.30        61.06362
422.74        60.88243
423.19        60.28674
423.64        59.53094
424.08        59.72064
424.53        60.72288
424.98        61.26335
425.42        61.20835
425.87        61.46214
426.31        62.00096
426.76        61.98278
427.21        61.63511
427.65        62.06573
428.10        63.15234
428.54        63.98805
428.99        64.49659
429.44        64.72028
429.88        64.72368
430.33        65.39588
430.77        66.17192
431.22        65.19672
431.66         62.9822
432.11        61.69241
432.56        61.67797
433.00          62.773
433.45        64.74149
433.89        66.53492
434.34        66.85726
434.78        68.45046
435.23         64.9939
435.67        63.65223
436.12        65.77989
436.57        66.85944
437.01        67.35226
437.46        67.64599
437.90         67.9676
438.35        67.13301
438.79        67.84117
439.24        67.75357
439.68        67.70178
440.13        67.52689
440.57        67.54769
441.02        68.66428
441.46        70.43906
441.91        71.51801
442.35        71.59846
442.80        70.75528
443.24        69.49458
443.69        70.05247
444.13        72.03553
444.58        72.06506
445.02        70.36375
445.47         70.1244
445.91        71.28696
446.36        71.72392
446.80        71.36242
447.24         71.3289
447.69        71.65627
448.13        71.87834
448.58          72.029
449.02        72.31387
449.47        72.70139
449.91         73.0254
450.36        73.26571
450.80        73.48187
451.25        73.65429
451.69        73.68559
452.13        73.59513
452.58        73.42519
453.02        73.24586
453.47        73.20665
453.91        73.31046
454.36        73.52347
454.80        73.80797
455.24        73.84473
455.69        73.57731
456.13         73.5237
456.58        73.80204
457.02        72.63916
457.46        72.59927
457.91        72.71527
458.35        73.46325
458.79        73.74955
459.24        73.56496
459.68        73.33982
460.13        73.04421
460.57        72.86993
461.01        72.95343
461.46        71.99184
461.90        71.77016
462.34        72.44353
462.79         71.6052
463.23        72.07955
463.68        72.83504
464.12        73.32901
464.56        73.42083
465.01        73.46702
465.45        73.35088
465.89        73.17313
466.34        72.87561
466.78         71.6663
467.22        70.12434
467.67        69.93449
468.11        71.27618
468.55        72.06429
468.99         72.0215
469.44        71.65742
469.88        71.18157
470.32        71.14646
470.77        71.49493
471.21        71.48889
471.65        71.10703
472.10        70.86707
472.54        70.99339
472.98        71.06352
473.42        71.13302
473.87        71.36679
474.31        71.60423
474.75        71.51844
475.20        71.24363
475.64         70.7103
476.08        71.32085
476.52        71.22849
476.97        70.74218
477.41        71.38487
477.85        71.65836
478.29        71.10691
478.74        71.37308
479.18         71.6144
479.62         70.7076
480.06        71.37699
480.50        71.56922
480.95        72.03295
481.39        72.33636
481.83        70.97743
482.27        71.40475
482.72        71.08025
483.16        69.72846
483.60        69.95025
484.04        71.50083
484.48        72.08431
484.93        72.12958
485.37         73.5116
485.81         74.2326
486.25        72.83862
486.69        99.22892
487.14        80.67509
487.58        49.68246
488.02        61.06642
488.46        69.92985
488.90        69.08841
489.34         70.4087
489.79        69.97426
490.23         71.4213
490.67        72.37527
491.11        71.55817
491.55        71.64877
491.99        72.15739
492.43         72.0107
492.88         71.3241
493.32        71.28859
493.76        71.40054
494.20        71.61256
494.64        71.68404
495.08        71.76201
495.52        71.91853
495.96        71.98975
496.41        71.91408
496.85         72.4213
497.29        73.19241
497.73        71.87472
498.17        69.56675
498.61        69.73662
499.05        72.37761
499.49        72.97514
499.93        73.01474
500.37        72.70132
500.82         71.9914
501.26        71.93922
501.70        72.33298
502.14        72.68685
502.58        72.81621
503.02        72.66563
503.46        72.62461
503.90        72.23465
504.34        71.78463
504.78        71.58504
505.22        71.68676
505.66        72.02052
506.10        72.44754
506.54        72.56335
506.98        72.25803
507.42        72.10005
507.86        71.89471
508.30        71.11789
508.74        71.59029
509.18        71.73621
509.62        71.99201
510.06        72.12408
510.50        72.09814
510.94        71.95863
511.38        71.78249
511.82        71.73461
512.26        71.84681
512.70         72.0598
513.14        72.29935
513.58        72.45776
514.02        72.49546
514.46        72.43161
514.90        72.30852
515.34        72.23727
515.78        72.13275
516.22        72.11947
516.66        72.14505
517.10        72.01583
517.54        71.72536
517.98        71.87472
518.42        71.69725
518.86        71.83554
519.30        72.04724
519.74        72.36948
520.18        72.70735
520.62         72.9022
521.06        72.92632
521.50         72.8209
521.93        72.65546
522.37        72.54559
522.81        72.53288
523.25        72.58265
523.69        72.67428
524.13        72.77576
524.57        72.87232
525.01        72.97758
525.45         73.0759
525.89        73.13902
526.32        73.15188
526.76        73.11242
527.20        73.03877
527.64        72.98291
528.08        72.97339
528.52        72.94173
528.96        72.83261
529.40        72.76349
529.83        72.76907
530.27        72.08275
530.71        72.19906
531.15        72.07885
531.59        72.16918
532.03        72.39185
532.46        72.71024
532.90        73.02715
533.34        73.28217
533.78        73.49005
534.22        73.62268
534.66        73.65109
535.09        73.56476
535.53        73.39758
535.97        73.17229
536.41        72.95053
536.85        72.76581
537.28        72.62423
537.72        72.52863
538.16        72.49104
538.60        72.50864
539.04        72.51306
539.47        72.50796
539.91        72.69324
540.35        72.97777
540.79        73.04856
541.22        72.89183
541.66         72.7856
542.10        72.73288
542.54         72.5592
542.97        72.33691
543.41        72.29522
543.85        72.44665
544.29        72.74728
544.72        73.03786
545.16        73.10022
545.60         72.8851
546.04        72.45399
546.47        72.01208
546.91        71.92641
547.35        72.24914
547.79        72.82603
548.22        73.38221
548.66        73.60387
549.10        73.35943
549.53        72.56673
549.97        71.60139
550.41        71.17265
550.84        71.40489
551.28        72.00161
551.72        72.71042
552.15        73.16251
552.59        73.23269
553.03         73.0556
553.46        72.76964
553.90        72.56506
554.34        72.48754
554.77        72.53217
555.21        72.71901
555.65        72.39381
556.08        73.15653
556.52        72.54871
556.96         72.7724
557.39        72.57343
557.83        72.53425
558.27        72.58015
558.70        72.70883
559.14        72.89629
559.57        73.09811
560.01        73.33248
560.45        73.52341
560.88         73.6405
561.32        73.63839
561.75        73.26196
562.19        72.71087
562.63        72.37935
563.06        72.34159
563.50        72.54243
563.93        72.85396
564.37        73.05608
564.80        73.07661
565.24        73.06733
565.68        73.02554
566.11        72.94026
566.55        72.88357
566.98        72.74388
567.42         72.6203
567.85        72.86179
568.29        73.50177
568.72        73.59149
569.16        73.41039
569.60        73.84099
570.03        74.50764
570.47        74.76722
570.90        74.59235
571.34        72.72595
571.77        73.65042
572.21        73.77716
572.64        72.68755
573.08        71.85329
573.51          68.868
573.95        71.64458
574.38        76.03761
574.82        74.08299
575.25        73.49683
575.69        71.21121
576.12         70.2217
576.56        69.08701
576.99        70.96355
577.42        74.28483
577.86        74.19523
578.29        73.62407
578.73        77.53841
579.16        71.46481
579.60         65.1785
580.03        67.93779
580.47        72.24359
580.90        74.28519
581.33        73.08706
581.77        71.74359
582.20        79.60436
582.64        79.35945
583.07         67.5025
583.51        66.02872
583.94        64.56333
584.37        67.80628
584.81        71.03739
585.24         74.8159
585.68        76.28386
586.11        75.63203
586.54        70.02988
586.98        67.72688
587.41        68.42129
587.85        72.29623
588.28         75.1039
588.71        71.43536
589.15        68.95866
589.58        70.59214
590.01         70.4521
590.45        71.66554
590.88        72.47823
591.31        71.74642
591.75         71.1083
592.18        71.19513
592.61        73.03929
593.05        73.42383
593.48        76.48824
593.91         77.5853
594.35        71.00394
594.78        69.41707
595.21        69.01932
595.65        72.29062
596.08        75.46317
596.51        72.22745
596.94        70.26324
597.38        70.82808
597.81        73.64812
598.24        75.47386
598.68        73.95781
599.11        72.49538
599.54        75.77398
599.97        77.35222
600.41        71.94074
600.84        71.83793
601.27        73.52673
601.70        72.70623
602.14        72.68026
602.57        71.53873
603.00        71.83132
603.43        73.75105
603.87        74.75059
604.30        75.04134
604.73         72.2833
605.16         71.0928
605.60        72.00903
606.03        73.25153
606.46        74.34016
606.89        74.27052
607.32        71.90948
607.76        71.88336
608.19        74.14512
608.62        73.40265
609.05         71.8671
609.48         72.4864
609.92         72.6172
610.35        72.07882
610.78         74.4581
611.21        74.90374
611.64        71.70486
612.07        72.34939
612.50        72.65152
612.94        73.06016
613.37        72.48773
613.80         72.8278
614.23        73.53114
614.66        73.34781
615.09        73.27731
615.52        73.31764
615.96         73.5487
616.39        73.77483
616.82        72.74805
617.25        72.09196
617.68         73.0926
618.11        73.54973
618.54        73.71832
618.97        73.27979
619.40        72.61495
619.84        72.55269
620.27        73.48489
620.70        74.08113
621.13        74.35889
621.56        73.27698
621.99        72.44724
622.42        73.20031
622.85        75.38012
623.28        74.96631
623.71        74.50565
624.14        74.29412
624.57        74.26767
625.00        73.61647
625.43        74.01485
625.86        73.30067
626.29        73.41637
626.72        73.77651
627.15        73.79421
627.58        73.93347
628.01        73.72327
628.44        74.77666
628.87        74.51799
629.30        74.38878
629.73        74.80859
630.16        74.90118
630.59         74.4798
631.02        74.06223
631.45        73.61382
631.88        73.46561
632.31        73.23763
632.74         73.2609
633.17         73.3594
633.60        73.43066
634.03        73.44025
634.46        73.42628
634.89        73.41468
635.32        73.43655
635.75        73.49989
636.18        73.57387
636.61        73.65096
637.04         73.7318
637.47        73.80704
637.89        73.88646
638.32        73.91717
638.75        73.86316
639.18        73.72256
639.61        73.52112
640.04        73.30107
640.47        73.12649
640.90         73.0234
641.33        72.97388
641.76        72.95193
642.18        73.01653
642.61        73.15421
643.04        73.17994
643.47        73.03543
643.90        73.57912
644.33        73.28496
644.76        73.38128
645.18        73.40519
645.61         73.3628
646.04        73.24656
646.47        73.05872
646.90        72.90191
647.33        72.90534
647.75        73.11303
648.18        73.46615
648.61        73.76709
649.04        73.85146
649.47        73.59738
649.89         72.6646
650.32        71.54587
650.75        71.33363
651.18         72.0583
651.61         73.0713
652.03        73.86604
652.46         73.8669
652.89        73.45964
653.32        72.70964
653.74        72.06942
654.17          73.645
654.60        74.62469
655.03        71.83279
655.46        72.61651
655.88        76.69798
656.31        82.17074
656.74        187.6302
657.16        121.6425
657.59        42.90941
658.02        32.00493
658.45        55.20147
658.87        70.93334
659.30        74.15793
659.73        73.02546
660.15        70.57679
660.58        72.94595
661.01         74.7981
661.44        72.46601
661.86         71.6414
662.29         71.5369
662.72         72.5287
663.14        74.27848
663.57        74.28689
664.00        72.83997
664.42        72.51624
664.85        73.40138
665.27        73.85628
665.70        73.67709
666.13         73.4534
666.55        73.17819
666.98        72.68139
667.41        72.13803
667.83        71.89235
668.26        72.01752
668.69        72.38927
669.11        72.78389
669.54        73.19019
669.96        72.85014
670.39        72.42236
670.82        71.92985
671.24        71.75333
671.67         72.0118
672.09        72.57043
672.52        73.15869
672.94        73.66164
673.37        72.82594
673.80        72.41305
674.22        72.19952
674.65        72.05099
675.07         71.9927
675.50        72.00637
675.92        72.09146
676.35         72.2795
676.77        72.54939
677.20        72.80859
677.62        73.01969
678.05        73.12762
678.47        73.11175
678.90        73.00288
679.32        72.86414
679.75         72.6649
680.17        72.71329
680.60        72.75341
681.02         72.8101
681.45         72.7234
681.87        72.47678
682.30        72.22094
682.72        72.03463
683.15        71.80462
683.57        71.69368
684.00        72.13606
684.42        73.06483
684.85        73.48318
685.27        73.32011
685.70        73.00793
686.12        72.69313
686.54        72.50866
686.97        72.51669
687.39        72.68092
687.82        72.87411
688.24        73.00986
688.66        73.04138
689.09        72.76975
689.51        72.63425
689.94        72.72651
690.36        73.10496
690.78        73.32043
691.21        73.32158
691.63        73.36497
692.06        73.43665
692.48        73.36879
692.90        73.21461
693.33        73.13967
693.75        73.17254
694.17        73.27676
694.60        73.41201
695.02        73.50427
695.44        73.49799
695.87        73.55965
696.29        73.72632
696.71        73.55742
697.14        73.22011
697.56         73.7736
697.98        74.92689
698.41        74.71937
698.83         73.9192
699.25        73.34958
699.68        73.31944
700.10        73.17328
700.52        72.94894
700.94        73.01933
701.37        73.32882
701.79        73.70518
702.21        74.06545
702.64        74.34158
703.06        74.64834
703.48        74.62923
703.90        74.34589
704.33        73.84491
704.75        73.29177
705.17         73.0455
705.59        73.19545
706.01        73.52589
706.44        73.86678
706.86         74.5753
707.28         74.5788
707.70         74.7073
708.12        74.69765
708.55        74.60843
708.97        74.44389
709.39        74.19747
709.81        73.95381
710.23        73.85126
710.66         73.9247
711.08        74.17252
711.50        74.45553
711.92        74.56043
712.34        74.43866
712.76        74.13769
713.19        73.80698
713.61        73.72334
714.03        73.93169
714.45        74.34863
714.87        74.77605
715.29        74.90143
715.71        74.66101
716.13        74.16155
716.56        73.60428
716.98          73.342
717.40        73.45801
717.82        73.84637
718.24        74.33603
718.66        74.63672
719.08        74.66213
719.50        74.50057
719.92        74.25677
720.34        74.11819
720.76        74.13951
721.19        74.13139
721.61        74.28225
722.03        74.38058
722.45        74.46568
722.87        74.55907
723.29        74.64532
723.71        74.68472
724.13        74.67116
724.55        74.60742
724.97        74.53757
725.39        74.54132
725.81        74.63115
726.23        74.78192
726.65        74.93675
727.07        75.00085
727.49        74.95962
727.91        74.85651
728.33        74.73726
728.75        74.68089
729.17        74.71112
729.59        74.78484
730.01        74.90775
730.43         75.1132
730.85        75.39921
731.27        75.72688
731.69        75.95359
732.10        76.18737
732.52        75.87624
732.94         75.4768
733.36         75.0452
733.78        75.12578
734.20        75.24971
734.62        76.08734
735.04         77.1562
735.46        77.14584
735.88        76.27649
736.30        76.33802
736.72        77.34007
737.13        77.65867
737.55        77.09611
737.97        77.03637
738.39        77.45917
738.81        76.82433
739.23         75.5768
739.65        76.29809
740.06        78.47585
740.48        78.71217
740.90        77.16745
741.32        75.94438
741.74        76.75751
742.16        76.96924
742.57        77.05664
742.99        77.79914
743.41        78.97295
743.83        79.71378
744.25        79.85461
744.67        79.62591
745.08        79.25304
745.50        79.10947
745.92        79.31635
746.34        79.73232
746.75        80.20977
747.17        80.50205
747.59        80.56498
748.01         80.4884
748.42         80.4076
748.84        80.54612
749.26        80.96508
749.68          81.453
750.09        81.91471
750.51        82.47559
750.93         82.9619
751.35        82.73983
751.76        82.00496
752.18        81.79076
752.60        82.08884
753.01        82.11081
753.43        81.91849
753.85        81.99505
754.27        82.33501
754.68        83.07057
755.10        84.14439
755.52        83.65694
755.93        84.64293
756.35        84.55155
756.77        84.47532
757.18        84.46452
757.60        84.57283
758.02        85.16816
758.43        85.80785
758.85        85.19323
759.26        83.18418
759.68        83.06072
760.10        84.43719
760.51        85.26743
760.93        84.78294
761.34        83.57381
761.76        83.17097
762.18        82.52573
762.59        82.25125
763.01         82.4432
763.42        83.12376
763.84        83.78378
764.26        84.33163
764.67        84.86704
765.09        85.21329
765.50        85.29245
765.92        85.01606
766.33        83.67696
766.75        81.77639
767.16        81.47318
767.58        81.73133
768.00        83.21756
768.41        85.16113
768.83        86.67326
769.24        87.12113
769.66        86.32614
770.07        84.85534
770.49        83.29484
770.90        82.12786
771.32        83.09193
771.73        85.46577
772.15        84.98853
772.56        82.14077
772.97        81.60357
773.39        83.29545
773.80        83.87154
774.22        83.11624
774.63        83.06731
775.05        83.66739
775.46        83.96459
775.88        83.84618
776.29        83.58238
776.70        83.28545
777.12        83.16339
777.53        83.28569
777.95        83.53786
778.36        83.76157
778.77        83.68214
779.19        83.28968
779.60        82.67494
780.02        82.10932
780.43        82.06556
780.84        82.67625
781.26        83.42569
781.67        84.14865
782.09        85.29147
782.50        86.34077
782.91        85.34618
783.33        83.03528
783.74        82.23355
784.15        83.10013
784.57        83.87923
784.98        84.19156
785.39        84.05899
785.81        83.52519
786.22        83.05519
786.63        82.89229
787.04         82.9482
787.46        83.27206
787.87        84.07708
788.28        85.08702
788.70        85.59532
789.11        85.46896
789.52        85.01931
789.93        84.45837
790.35        83.92052
790.76        83.56489
791.17        83.64754
791.58        84.07561
792.00        84.31555
792.41        84.26707
792.82        84.36088
793.23         84.6719
793.65        84.40849
794.06        83.89509
794.47        85.05406
794.88        87.07381
795.29        86.61392
795.71        83.92673
796.12        81.62316
796.53        80.39288
796.94        79.90636
797.35        80.30853
797.76        81.71132
798.18        83.45827
798.59        84.57158
799.00         84.6468
799.41        83.78573
799.82        82.47511
800.23        81.66286
800.64        81.58044
801.06         81.8465
801.47        82.35717
801.88        82.83836
802.29        83.16037
802.70        83.45358
803.11        83.66436
803.52        83.66545
803.93        83.46254
804.34        83.04142
804.75        82.59209
805.17        82.52185
805.58        82.94998
805.99        83.51437
806.40        83.96414
806.81        84.49943
807.22        84.70813
807.63        83.31458
808.04        80.98788
808.45        79.97215
808.86        80.50957
809.27        81.54679
809.68        82.60327
810.09         83.2136
810.50        83.12305
810.91        82.50115
811.32        81.67728
811.73        81.18107
812.14        81.16044
812.55        81.40141
812.96        81.80797
813.37        82.20599
813.78        82.49577
814.19        82.80136
814.60        82.92873
815.01        82.55682
815.42         81.6764
815.83        80.33321
816.24        79.03081
816.65        78.66019
817.05         79.4698
817.46        81.18846
817.87        83.10741
818.28        83.95326
818.69        83.38476
819.10        81.71071
819.51        79.75906
819.92        78.94106
820.33        79.61559
820.74        81.34978
821.14         83.3201
821.55        84.08126
821.96        83.31767
822.37        81.53888
822.78        79.50381
823.19        78.32499
823.60        78.30341
824.00        79.14796
824.41        80.35632
824.82        81.17188
825.23        81.27945
825.64        80.95189
826.04        80.44917
826.45        80.14014
826.86        80.12987
827.27        80.23849
827.68        80.38883
828.08        80.52281
828.49        80.53598
828.90        80.54392
829.31        80.48954
829.72        80.24422
830.12        79.84251
830.53        79.31174
830.94        78.88535
831.35        78.87859
831.75        79.38065
832.16        80.23844
832.57        81.25181
832.97         81.9808
833.38        82.19156
833.79        81.99577
834.20        81.59503
834.60        81.30392
835.01        81.24194
835.42         81.3157
835.82         81.3893
836.23        81.15776
836.64        80.61351
837.04        79.89709
837.45        79.25153
837.86        79.04997
838.26         79.3784
838.67        80.07245
839.08        80.91158
839.48        81.49232
839.89        81.63331
840.29        81.45841
840.70        81.07481
841.11        80.63385
841.51        80.21807
841.92        79.77074
842.33        79.37162
842.73        79.16797
843.14        79.15304
843.54        79.34682
843.95        79.60609
844.35          79.741
844.76        79.68056
845.17        79.48441
845.57        79.23823
845.98        79.09554
846.38        79.09565
846.79        79.15826
847.19        79.26447
847.60        79.29195
848.00        79.24665
848.41        79.14543
848.81        79.03141
849.22        78.88583
849.62        78.76973
850.03        78.69219
850.43         78.7189
850.84        78.87322
851.24        79.19875
851.65        79.49073
852.05        79.88744
852.46        80.43032
852.86         81.0966
853.27        81.90369
853.67        82.31978
854.07        81.65812
854.48        79.96552
854.88        77.49192
855.29        75.15766
855.69        74.30196
856.10        75.17743
856.50        77.60873
856.90        80.73732
857.31        82.56364
857.71        82.44018
858.12        80.88807
858.52         78.8337
858.92        77.50426
859.33        77.17644
859.73        77.50803
860.13        78.30697
860.54        79.17143
860.94        79.96308
861.34        80.78197
861.75        81.51095
862.15        82.03989
862.55         82.3041
862.96        82.25651
863.36        82.03609
863.76        81.88448
864.17        81.88926
864.57         82.0669
864.97        82.33946
865.38        82.56194
865.78        82.74245
866.18        82.84163
866.58        82.97298
866.99        83.30553
867.39        83.92168
867.79        84.79858
868.19        85.55357
868.60         85.4873
869.00        84.47194
869.40        82.70853
869.80        81.05305
870.21        80.83622
870.61        82.42706
871.01        85.43478
871.41        88.80656
871.81        90.73422
872.22        90.71937
872.62        89.28689
873.02        87.44148
873.42        86.87753
873.82        87.84504
874.22        89.63389
874.63        91.64229
875.03        92.55074
875.43        91.77812
875.83        90.46575
876.23        88.36948
876.63        87.52167
877.03        88.08754
877.44        90.25736
877.84        101.7423
878.24        97.82368
878.64        97.66108
879.04        96.30714
879.44        93.05783
879.84        91.31488
880.24        93.78441
880.64        95.44638
881.04        96.71166
881.44        97.43997
881.84        96.96147
882.24         95.6456
882.65        94.30924
883.05        93.78165
883.45        94.22559
883.85        95.52412
884.25        97.19928
884.65        98.26708
885.05        98.39215
885.45        97.89933
885.85        97.25387
886.25        97.09824
886.65        97.57829
887.05        98.46019
887.45        99.46938
887.85        100.1319
888.25        100.2625
888.65        100.0295
889.04        99.57049
889.44        99.13805
889.84        98.81062
890.24        98.50671
890.64        98.23858
891.04        98.03891
891.44        97.88978
891.84        97.80233
892.24        97.72133
892.64        97.51203
893.04        97.20827
893.44        96.95228
893.83        96.78316
894.23        96.78255
894.63        96.94862
895.03        97.14761
895.43        97.62182
895.83        98.78031
896.23        100.5983
896.63        102.9451
897.02        104.9158
897.42        105.0535
897.82        103.1694
898.22        99.79021
898.62        96.27003
899.01        94.59679
899.41        95.18198
899.81        97.36297
900.21        100.0706
900.61        101.5615
901.00         101.357
901.40        100.0502
901.80        98.33939
902.20        97.29431
902.59         97.2332
902.99        97.77051
903.39        98.56574
903.79        99.07077
904.18        99.09658
904.58        98.91367
904.98        98.68975
905.38        98.65084
905.77        98.83426
906.17        99.08785
906.57        99.36649
906.96         99.6873
907.36        99.96245
907.76         100.231
908.15        100.3293
908.55        99.86243
908.95        98.85264
909.34        97.40168
909.74        95.97833
910.14        95.14309
910.53        95.06393
910.93        95.63671
911.33          96.582
911.72        97.37625
912.12        97.75275
912.52        97.81633
912.91        97.78517
913.31        97.96448
913.70        98.46395
914.10        99.18625
914.49        99.86394
914.89        99.76218
915.29        98.73006
915.68        97.03794
916.08        95.53605
916.47        94.93074
916.87        95.29666
917.26        96.39362
917.66        97.56873
918.05        97.80207
918.45        96.86053
918.84        95.14752
919.24        93.38772
919.64        92.61267
920.03        93.09278
920.42        94.48125
920.82        96.29671
921.21        97.83795
921.61        98.62947
922.00        98.89713
922.40        98.65578
922.79        97.92114
923.19        96.83673
923.58        95.36794
923.98        93.71798
924.37        92.60495
924.77        92.48969
925.16        91.69581
925.55        93.02666
925.95        94.27774
926.34        96.11885
926.74        98.17593
927.13        99.99535
927.52        100.5927
927.92         99.8923
928.31        98.23679
928.70        96.03986
929.10        94.03618
929.49        92.48884
929.89        91.26918
930.28        90.74905
930.67        91.52393
931.07        93.45638
931.46        96.37851
931.85        99.23117
932.24        100.4247
932.64        99.64444
933.03        97.20758
933.42        93.82444
933.82        91.19504
934.21        89.95184
934.60        89.72251
934.99        90.05482
935.39        90.46091
935.78        90.84414
936.17        91.21858
936.56        91.33794
936.96        92.19021
937.35        91.13113
937.74        90.31888
938.13         89.6469
938.53        89.84711
938.92        90.94003
939.31          92.856
939.70        95.02189
940.09        95.83288
940.49        94.77137
940.88         92.5266
941.27        90.20065
941.66         89.0814
942.05        89.35083
942.44        90.58498
942.84        92.33917
943.23        93.92526
943.62        94.93103
944.01        95.51067
944.40         95.7528
944.79        95.81241
945.18        95.73908
945.57        95.40514
945.97        94.65107
946.36        93.40372
946.75        91.92009
947.14        90.54439
947.53        89.56802
947.92         89.1199
948.31        89.13955
948.70        89.58913
949.09        90.34339
949.48        91.07214
949.87        91.56406
950.26        91.79142
950.65        91.88303
951.04        92.10406
951.43        92.50349
951.82        92.98701
952.21        93.25755
952.60        92.88375
952.99        91.81776
953.38        90.22745
953.77        88.62629
954.16          87.732
954.55        87.68428
954.94        88.35426
955.33        89.14201
955.72        89.02458
956.11        87.77255
956.50        85.64158
956.89        83.52587
957.28        83.06018
957.66        84.75957
958.05        87.90397
958.44        91.32613
958.83        93.28946
959.22        93.35957
959.61        91.96417
960.00        89.95722
960.39        88.74854
960.78        88.74454
961.16         89.5835
961.55        90.46099
961.94        90.03797
962.33        88.08073
962.72        85.22564
963.11         82.4836
963.49        81.11335
963.88        81.33288
964.27        82.82651
964.66        84.91235
965.04        86.12704
965.43          85.801
965.82        84.46296
966.21        82.93964
966.60          82.311
966.98        82.78205
967.37        83.92913
967.76        85.24696
968.15        85.79887
968.53        85.28775
968.92        84.06222
969.31        82.61345
969.69        81.52036
970.08        80.95037
970.47        80.76701
970.86        80.74673
971.24        80.52952
971.63        80.00287
972.02        79.26141
972.40        78.71307
972.79        79.01601
973.17        80.42831
973.56        82.66358
973.95        84.97385
974.33        85.94384
974.72        85.13372
975.11        83.00237
975.49        80.68127
975.88        79.72763
976.26        80.37157
976.65        82.31177
977.04        84.55404
977.42        84.68932
977.81        81.95538
978.19         77.4105
978.58        73.31042
978.96        71.93994
979.35        73.62115
979.74        77.83015
980.12         83.5766
980.51        87.38857
980.89         88.0541
981.28        86.46317
981.66        83.95269
982.05        82.25553
982.43        81.73527
982.82        81.79432
983.20        82.35841
983.59        83.46432
983.97        85.11942
984.35        87.47673
984.74        89.92033
985.12        91.27579
985.51        90.70496
985.89        88.33402
986.28        84.89567
986.66        81.64903
987.04        79.41574
987.43        78.16045
987.81        77.42661
988.20        76.49129
988.58        75.03488
988.96        72.83468
989.35        70.57594
989.73        71.21242
990.12        75.94031
990.50        82.92892
990.88        88.28871
991.27        89.54147
991.65        87.27141
992.03         82.2654
992.42        76.45634
992.80        73.40908
993.18        74.27508
993.56        77.22167
993.95        80.58057
994.33        82.91383
994.71        83.81248
995.10         84.1265
995.48        83.71803
995.86        82.10627
996.24         79.2793
996.63        74.92893
997.01        70.26326
997.39        68.92325
997.77        72.34294
998.15        79.57353
998.54        87.13647
998.92        90.35085
999.30        87.90593
999.68        81.08525
1000.06        71.72338
1000.45        64.53663
1000.83        61.65334
1001.21        61.51507
1001.59        63.38882
1001.97        66.63509
1002.35        70.95339
1002.73        77.42095
1003.12        84.04569
1003.50        84.49588
1003.88        76.45629
1004.26         63.3005
1004.64        51.18435
1005.02        45.12161
1005.40        45.38734
1005.78        51.71262
1006.16        65.16866
1006.54        79.66192
1006.92        86.24083
1007.30        86.25455
1007.69        84.20834
1008.07        83.83306
1008.45        85.91344
1008.83        90.64064
1009.21        99.44032
1009.59        107.5538
1009.97         84.4883
1010.35          -3.502
1010.73       -44.97422
1011.11       -18.12347
1011.49        14.57817
1011.86         41.8931
1012.24        58.54988
1012.62         65.8743
1013.00        67.36172
1013.38        64.92446
1013.76        61.03795
1014.14        63.74481
1014.52        79.65488
1014.90        110.1439
1015.28        146.6338
1015.66        164.7222
1016.04        149.9862
1016.41         108.173
1016.79        62.42687
1017.17        37.59546
1017.55         33.0224
1017.93        36.55411
1018.31        42.80943
1018.69        49.76844
1019.06        57.84096
1019.44        69.22414
1019.82        86.11423
1020.20        106.4375
1020.58        125.5788
1020.95        136.6761
1021.33        127.7295
1021.71        203.4945
1022.09        129.7778
1022.46        124.1223
1022.84        123.1997
1023.22        128.6399
1023.60        148.0622
1023.97        342.1561
1024.35        14.63221
1024.73        54.95008
