SpectraSmart Spectrum 2.9.0.0
--------- Device Information -----------
Spectrum Name :  反射率_0
Saving Time :  2024/04/26 01:57:03
Spectro-Module Model Name : SE2030-DUVN
Spectro-Module Serial Number : OS361AC55029948
Wavelength Start : 200
Wavelength End : 1025
Wavelength Unit : Wavelength(nm)
Spectrum Unit : Reflectance(%)
-----------Spectrum Setting ------------
Integration Time : 20ms
Average : 10
Boxcar : 0
Background removal :  enabled
linearity correction :  enabled
SC :  disabled
Intensity correction :  disabled
DWT denoise :  enabled
savitzky-golay :  disabled
FFT :  disabled
Running average :  disabled
Kalman :  disabled
High pass :  disabled
---------------BEGIN--------------------
Wavelength(nm)             Reflectance(%)
200.29               0
200.75        82.91521
201.21        79.25146
201.67        74.87877
202.13        71.20463
202.58        68.51428
203.04        67.05868
203.50        66.77026
203.96         67.5042
204.42        68.90794
204.88        70.50114
205.34        72.45304
205.80        75.51446
206.26        80.69588
206.72        90.67693
207.18        108.4325
207.64        120.8681
208.10        105.3906
208.55        80.68078
209.01        65.92518
209.47        60.98295
209.93        61.53997
210.39        66.03385
210.85        71.53202
211.31        71.90355
211.77        65.51215
212.23        54.58325
212.69        44.58512
213.14        44.00226
213.60        53.96523
214.06        71.69404
214.52        90.55666
214.98        100.4844
215.44        99.17025
215.90        90.17246
216.36         78.3093
216.81        70.33289
217.27        68.13059
217.73        69.34645
218.19        71.07764
218.65        69.52238
219.11        63.27637
219.57         52.0091
220.02        37.35653
220.48        28.62186
220.94        31.17052
221.40        42.41837
221.86        53.43898
222.32        55.01045
222.77        48.14098
223.23        37.90526
223.69        29.32496
224.15        27.48269
224.61         31.8043
225.06        39.64162
225.52        47.53635
225.98        51.15733
226.44        49.71238
226.90        45.15343
227.36        39.66666
227.81        36.14311
228.27        35.57646
228.73        36.73093
229.19        38.85249
229.65        40.86694
230.10         42.2725
230.56        43.39072
231.02         44.1711
231.48        44.46971
231.93        44.35497
232.39        43.89473
232.85        43.24917
233.31         42.7628
233.77        42.50842
234.22        42.34927
234.68        42.31097
235.14        42.34875
235.60        42.42152
236.05        42.62269
236.51        42.70235
236.97        42.19831
237.43        41.04183
237.88        39.29443
238.34        37.47715
238.80        37.19533
239.26        39.26192
239.71        43.43342
240.17         48.6216
240.63        53.18869
241.08        56.44805
241.54         58.4757
242.00        59.72148
242.46           61.15
242.91        63.71601
243.37        68.62839
243.83        81.91029
244.28        121.0118
244.74        158.3593
245.20        129.6304
245.66        107.4346
246.11        101.6702
246.57        105.3962
247.03        123.3253
247.48        180.0024
247.94        161.1534
248.40        102.8222
248.85        83.68277
249.31        78.08507
249.77        78.38973
250.22        82.41202
250.68         90.3317
251.14        101.7741
251.59        108.8546
252.05        104.0686
252.51        91.29333
252.96        77.88232
253.42        70.58743
253.88        68.84592
254.33        70.21004
254.79        73.82372
255.25        77.93536
255.70         81.4032
256.16        84.65056
256.62         86.4844
257.07        85.63579
257.53        82.83541
257.99        78.36186
258.44        73.61305
258.90        71.17969
259.35        70.27557
259.81        70.14031
260.27        69.14773
260.72        65.70235
261.18        60.57814
261.63        54.51624
262.09        49.09427
262.55        45.49142
263.00        43.62236
263.46        42.92146
263.91        42.45496
264.37        41.48214
264.83        39.81919
265.28        37.65143
265.74        35.53816
266.19        34.09139
266.65        33.52513
267.11        33.48555
267.56        33.48249
268.02        32.91998
268.47        31.68796
268.93        29.99834
269.38        28.16539
269.84        26.95334
270.30        26.56021
270.75         26.7655
271.21        27.16135
271.66        27.14121
272.12        26.54618
272.57        25.58379
273.03        24.56298
273.48        23.86835
273.94        23.61603
274.39        23.62004
274.85        23.69893
275.31        23.59449
275.76        23.23044
276.22        22.72557
276.67        22.15785
277.13        21.71305
277.58        21.39255
278.04         21.1606
278.49        20.92231
278.95        20.59265
279.40        20.13751
279.86        19.64851
280.31        19.15411
280.77         18.7921
281.22        18.55134
281.68        18.40298
282.13        18.31521
282.59        18.26606
283.04        18.23737
283.50        18.26632
283.95        18.28179
284.41        18.18739
284.86        17.97377
285.32        17.67511
285.77        17.43814
286.22         17.5397
286.68        17.98245
287.13        18.64489
287.59        19.26729
288.04        19.46305
288.50        19.18862
288.95        18.56906
289.41        17.86241
289.86        17.35826
290.32        17.18625
290.77        17.24242
291.22         17.4596
291.68        17.69796
292.13        17.92344
292.59        18.19138
293.04        18.54514
293.50        19.04195
293.95        19.67782
294.40        20.39557
294.86        21.13475
295.31        21.82412
295.77        22.45441
296.22        23.05916
296.68        23.66728
297.13        24.29146
297.58        24.96188
298.04        25.68834
298.49        26.51376
298.95        27.54706
299.40        28.78664
299.85        30.18917
300.31        31.64915
300.76        33.00101
301.21        34.17425
301.67         35.2356
302.12        36.18782
302.58        37.11377
303.03        38.03298
303.48        38.95039
303.94        39.96637
304.39        41.18726
304.84        42.62676
305.30        44.23731
305.75        45.84795
306.20         47.2083
306.66        48.28024
307.11        49.10575
307.57        49.84314
308.02        50.63984
308.47        51.58984
308.93        52.65194
309.38        53.77696
309.83        54.92822
310.29        56.06549
310.74        57.17001
311.19         58.2333
311.65        59.24194
312.10        60.18424
312.55         61.0708
313.00         61.8409
313.46        62.40697
313.91        62.75321
314.36         62.9277
314.82        63.09959
315.27         63.4943
315.72        64.18266
316.18        65.09859
316.63        66.09042
317.08        66.86447
317.53        67.32954
317.99        67.55016
318.44        67.68457
318.89        67.99765
319.35        68.54075
319.80        69.25926
320.25        69.95169
320.70        70.28859
321.16        70.20505
321.61        69.81487
322.06        69.37679
322.51        69.29257
322.97        69.63525
323.42        70.31101
323.87         71.0729
324.32        71.49744
324.78        71.45848
325.23        71.11406
325.68        70.66102
326.13         70.4422
326.59        70.54478
327.04        70.89069
327.49        71.35612
327.94        71.75857
328.39        72.03187
328.85        72.22342
329.30        72.41737
329.75        72.62236
330.20        72.86789
330.66        73.12441
331.11        73.45502
331.56         73.9051
332.01        74.49142
332.46        75.18615
332.92         75.9393
333.37         76.7935
333.82        77.65605
334.27        78.51123
334.72        79.22928
335.17        79.61185
335.63         79.6334
336.08         79.3967
336.53         79.0985
336.98        79.09128
337.43        79.47185
337.88         80.1434
338.34        80.96815
338.79        81.79005
339.24        82.49535
339.69         83.1469
340.14        83.68336
340.59        83.99686
341.05        84.08717
341.50        83.96816
341.95          83.816
342.40        83.92114
342.85        84.34737
343.30        85.03098
343.75        85.79586
344.20        86.31808
344.66        86.50926
345.11        86.43946
345.56        86.26791
346.01        86.23832
346.46        86.41241
346.91        86.71288
347.36        87.02191
347.81        87.16061
348.26        87.10385
348.72        86.95441
349.17        86.80235
349.62        86.84326
350.07        87.11639
350.52        87.52811
350.97          88.003
351.42        88.43643
351.87         88.7772
352.32        89.05408
352.77        89.20368
353.22        89.12807
353.67         88.8327
354.13        88.36398
354.58          87.847
355.03           87.54
355.48        87.49394
355.93        87.63716
356.38        87.82256
356.83        87.80487
357.28        87.52012
357.73        87.04971
358.18        86.48575
358.63        85.97423
359.08        85.56509
359.53        85.20963
359.98        84.88181
360.43        84.54726
360.88        84.18292
361.33        83.79705
361.78        83.38755
362.23        82.94399
362.68        82.47301
363.13        81.99337
363.58        81.48853
364.03        80.93156
364.48        80.33155
364.93        79.69994
365.38        79.12496
365.83        78.74707
366.28        78.57741
366.73        78.55512
367.18         78.5461
367.63        78.33379
368.08        77.86812
368.53        77.22944
368.98        76.50724
369.43        75.83543
369.88        75.26398
370.33        74.75665
370.78        74.33051
371.23        74.01511
371.68        73.80668
372.13         73.7049
372.58        73.65372
373.03        73.54672
373.48        73.35703
373.93        73.11154
374.38        72.84719
374.83        72.62792
375.28        72.46628
375.72        72.31813
376.17        72.19357
376.62        72.08418
377.07        71.97146
377.52        71.84591
377.97        71.66068
378.42        71.34266
378.87        70.89408
379.32        70.36373
379.77        69.80359
380.22        69.28062
380.67        68.81217
381.11        68.37888
381.56        68.00001
382.01        67.70985
382.46        67.51795
382.91        67.43698
383.36        67.38145
383.81        67.21368
384.26        66.90919
384.71         66.4858
385.15        66.07339
385.60        65.93547
386.05        66.06319
386.50        66.36848
386.95         66.6209
387.40        66.43986
387.85        65.79522
388.29        64.84963
388.74        63.94918
389.19        63.32841
389.64        63.02612
390.09        62.91655
390.54        62.96998
390.98        63.13244
391.43        63.35186
391.88        63.63141
392.33        63.81037
392.78        63.63329
393.23        63.11393
393.67        62.36668
394.12        61.70879
394.57        61.32343
395.02         61.3073
395.47        61.72771
395.91        62.45015
396.36        62.97055
396.81        63.16264
397.26        63.17877
397.71        63.05365
398.15        62.72413
398.60        62.30711
399.05        61.89962
399.50         61.5151
399.95        60.86734
400.39        60.31963
400.84        59.97698
401.29         59.9399
401.74        60.05698
402.18        60.27089
402.63        60.43581
403.08        60.56873
403.53        60.82281
403.97        61.17558
404.42        61.47478
404.87        61.60921
405.32        61.46154
405.76        61.01488
406.21        60.41007
406.66        59.82113
407.11        59.42152
407.55        59.33466
408.00        59.66001
408.45        60.23251
408.90        60.59696
409.34        60.55518
409.79        60.06481
410.24        59.37714
410.68         59.0487
411.13        59.16999
411.58        59.44783
412.03        59.80375
412.47        60.20922
412.92        60.55291
413.37        60.86519
413.81        61.06493
414.26        61.06855
414.71        60.86049
415.15        60.45667
415.60        59.99628
416.05        59.72921
416.49        59.72408
416.94        59.94152
417.39        60.21042
417.83        60.21899
418.28         59.9132
418.73        59.39468
419.17        58.90492
419.62        58.82635
420.07        59.19765
420.51        59.88709
420.96        60.62004
421.41        60.90488
421.85        60.61275
422.30        60.09534
422.74        59.52995
423.19        59.04297
423.64        58.78845
424.08        59.20344
424.53        60.09784
424.98        60.67947
425.42        60.80777
425.87        60.98799
426.31        61.25375
426.76        61.17782
427.21        60.95363
427.65        61.28861
428.10        62.07025
428.54        62.71397
428.99        63.15804
429.44        63.26777
429.88        63.12626
430.33        63.73746
430.77        64.55344
431.22        63.63929
431.66        61.44318
432.11        60.23246
432.56        60.30636
433.00         60.9316
433.45        62.04235
433.89        63.87553
434.34        65.10928
434.78        66.31506
435.23         63.1825
435.67        61.05938
436.12        63.41669
436.57        64.33767
437.01        64.82712
437.46        64.97952
437.90        64.92628
438.35        65.03909
438.79        65.28545
439.24        65.38369
439.68         65.3546
440.13        65.20908
440.57        65.16586
441.02        65.96946
441.46        67.28896
441.91        67.84402
442.35        67.54376
442.80        66.98028
443.24        66.41499
443.69        66.94379
444.13        68.22843
444.58        68.16859
445.02        66.75092
445.47        66.62143
445.91        67.61112
446.36        67.92692
446.80        67.50825
447.24        67.33968
447.69        67.50725
448.13        67.72598
448.58        68.01046
449.02        68.36659
449.47        68.74138
449.91         69.1171
450.36          69.434
450.80        69.55266
451.25        69.49991
451.69         69.4105
452.13        69.32526
452.58        69.17693
453.02        69.01437
453.47        68.98713
453.91        69.09123
454.36        69.28995
454.80        69.51344
455.24        69.52139
455.69         69.2845
456.13        69.09084
456.58         69.0148
457.02        68.47025
457.46        67.90652
457.91        68.28699
458.35         69.3681
458.79         69.7754
459.24        69.44361
459.68         69.0347
460.13        68.66949
460.57        68.29807
461.01        68.04218
461.46        67.40588
461.90        67.23827
462.34         67.3293
462.79         67.2054
463.23         67.5988
463.68        68.14158
464.12        68.49675
464.56        68.55884
465.01        68.45216
465.45        68.16496
465.89        68.00282
466.34        67.84811
466.78        67.01022
467.22        65.97767
467.67        65.24538
468.11        66.50859
468.55        67.27959
468.99        67.69623
469.44        67.55968
469.88        67.04758
470.32        67.05633
470.77         67.5097
471.21        67.50113
471.65        66.99702
472.10        66.65434
472.54         66.5698
472.98         66.5585
473.42        66.61757
473.87        66.98412
474.31        67.44501
474.75        67.30015
475.20         66.7098
475.64         66.5923
476.08         66.9349
476.52        66.98212
476.97        66.74055
477.41        66.65987
477.85        66.70089
478.29        66.78448
478.74        66.88879
479.18        66.61156
479.62        66.07114
480.06        66.62646
480.50        66.90765
480.95        67.15344
481.39        66.93298
481.83        66.56158
482.27         66.5567
482.72         66.2701
483.16        65.25863
483.60        65.57009
484.04        67.00343
484.48        67.40211
484.93        67.21208
485.37        68.52023
485.81        69.03283
486.25        67.51062
486.69        90.65456
487.14        73.44654
487.58        46.09728
488.02        56.74377
488.46        64.78554
488.90        64.32639
489.34        66.13322
489.79        65.08923
490.23        67.26979
490.67        68.06916
491.11        67.15561
491.55        67.05981
491.99        67.41203
492.43        67.23324
492.88        66.61353
493.32        66.68766
493.76        66.90707
494.20         67.1792
494.64         67.2421
495.08        67.36217
495.52        67.55017
495.96        67.36626
496.41        66.88023
496.85        67.21859
497.29        68.10822
497.73        67.18066
498.17        65.32021
498.61        65.46786
499.05        67.66117
499.49        68.19518
499.93        68.48083
500.37        68.24609
500.82        67.45425
501.26        67.47034
501.70        68.05389
502.14        68.35912
502.58        68.21888
503.02        68.08487
503.46        67.95312
503.90        67.56239
504.34        67.08549
504.78        66.91573
505.22        67.10851
505.66        67.56027
506.10        68.10072
506.54        68.34986
506.98        68.20033
507.42        67.92501
507.86        67.73534
508.30        67.09781
508.74        67.44644
509.18        67.60429
509.62        67.85394
510.06        67.96562
510.50        67.89923
510.94         67.7171
511.38        67.50977
511.82        67.44569
512.26        67.56127
512.70        67.79717
513.14        68.07472
513.58        68.27195
514.02        68.34317
514.46        68.31873
514.90        68.24805
515.34        68.19193
515.78        68.16142
516.22        68.20535
516.66        68.28836
517.10        68.17341
517.54        67.85126
517.98        68.00934
518.42        67.78052
518.86        67.90777
519.30        68.11855
519.74        68.44989
520.18        68.80124
520.62         69.0024
521.06        69.02293
521.50        68.91222
521.93        68.72604
522.37         68.5579
522.81        68.45193
523.25        68.38208
523.69        68.37063
524.13        68.45119
524.57        68.61758
525.01        68.86154
525.45        69.11316
525.89        69.25459
526.32        69.24905
526.76         69.1222
527.20        68.93774
527.64        68.82008
528.08        68.81676
528.52        68.83833
528.96        68.80582
529.40        68.78931
529.83        68.80914
530.27        68.15546
530.71        68.25105
531.15        68.12648
531.59         68.2075
532.03        68.41058
532.46        68.69995
532.90        68.98437
533.34        69.20783
533.78        69.39223
534.22        69.50309
534.66        69.49849
535.09        69.37018
535.53        69.15417
535.97        68.89979
536.41        68.71043
536.85        68.61958
537.28        68.61117
537.72        68.64442
538.16        68.66011
538.60        68.64073
539.04        68.55106
539.47        68.42346
539.91         68.4902
540.35        68.68318
540.79        68.69501
541.22        68.53088
541.66        68.47928
542.10        68.54215
542.54        68.54675
542.97        68.51135
543.41        68.58189
543.85        68.74874
544.29        68.96748
544.72        69.14712
545.16        69.20537
545.60        69.05831
546.04        68.79093
546.47         68.1666
546.91        68.05173
547.35        68.36883
547.79        68.89329
548.22        69.36961
548.66        69.53028
549.10        69.27436
549.53         68.5786
549.97        67.76404
550.41        67.37319
550.84        67.50316
551.28        67.97342
551.72        68.58778
552.15        68.93385
552.59        68.88383
553.03        68.99197
553.46        68.57694
553.90         68.4755
554.34        68.50833
554.77        68.55498
555.21        68.55021
555.65        68.62717
556.08         68.8115
556.52          68.244
556.96        68.55206
557.39        68.44787
557.83        68.44912
558.27        68.54112
558.70         68.7167
559.14         68.8968
559.57        69.03117
560.01        69.16451
560.45        69.25327
560.88        69.24256
561.32        69.14977
561.75        68.91718
562.19        68.64919
562.63        68.42653
563.06         68.3087
563.50        68.36804
563.93        68.53616
564.37        68.74632
564.80        68.87902
565.24        68.76388
565.68        68.46548
566.11        68.33681
566.55        68.45404
566.98        68.52805
567.42        68.56537
567.85        68.82617
568.29        69.24742
568.72        69.22225
569.16        68.97793
569.60        69.22078
570.03        69.64509
570.47        69.58158
570.90        69.29154
571.34        67.42552
571.77        68.39923
572.21        68.08077
572.64        67.79101
573.08        66.95156
573.51        64.27148
573.95        66.72889
574.38        70.60654
574.82        68.83674
575.25        68.19486
575.69        66.10287
576.12         64.7507
576.56        64.39087
576.99         65.7081
577.42        68.98644
577.86        68.51384
578.29        68.06575
578.73        71.59594
579.16        66.07392
579.60         60.5923
580.03        63.39295
580.47        67.41973
580.90        68.96404
581.33        67.79366
581.77        66.61934
582.20         72.8619
582.64        72.36901
583.07        61.93345
583.51        61.01308
583.94        60.20873
584.37          63.079
584.81        66.23656
585.24        69.60205
585.68         71.0915
586.11        69.87804
586.54        64.80136
586.98        63.13938
587.41        63.72451
587.85        66.83221
588.28        69.56388
588.71        66.12205
589.15        64.06214
589.58        65.69166
590.01        65.83525
590.45        67.14302
590.88        67.64183
591.31        66.90881
591.75        66.39216
592.18         66.4741
592.61        68.03712
593.05        68.37413
593.48        71.31646
593.91        71.67466
594.35        66.17557
594.78        64.81638
595.21        64.41968
595.65        67.47653
596.08        70.43256
596.51        67.32851
596.94        65.52517
597.38        66.02497
597.81        68.65259
598.24        70.54405
598.68        68.89264
599.11        67.95324
599.54        70.43816
599.97        71.64552
600.41        66.99831
600.84        67.13332
601.27        68.40292
601.70        67.61906
602.14        67.62633
602.57        66.57553
603.00        66.84125
603.43         68.3347
603.87        70.01326
604.30         69.7037
604.73        67.50111
605.16        66.54965
605.60        67.43027
606.03        68.50794
606.46        69.24743
606.89        69.21457
607.32        66.82515
607.76        67.05695
608.19        69.07858
608.62        68.25183
609.05        67.08456
609.48        67.68408
609.92        67.79625
610.35         67.0789
610.78        69.30245
611.21        69.78606
611.64        66.85458
612.07         67.6337
612.50        68.08822
612.94        68.59187
613.37        68.10977
613.80        68.10194
614.23        68.62217
614.66        68.46794
615.09        68.65411
615.52        68.70071
615.96        68.70293
616.39        68.83807
616.82        67.94237
617.25        67.50432
617.68         68.2948
618.11        68.77811
618.54        69.05329
618.97        68.58692
619.40        67.74094
619.84        67.85322
620.27        68.82796
620.70        69.46743
621.13        69.57256
621.56        69.03466
621.99        68.17209
622.42        68.85658
622.85        70.60162
623.28        70.44245
623.71        69.79321
624.14        69.77024
624.57        69.49866
625.00        69.07243
625.43        69.46804
625.86        68.91431
626.29        69.06816
626.72        69.61063
627.15          69.148
627.58         69.3296
628.01        69.57744
628.44         69.7691
628.87        69.69891
629.30        69.87383
629.73        70.17876
630.16        70.23561
630.59         70.0231
631.02        69.73232
631.45        69.44756
631.88        69.23087
632.31        69.11771
632.74        69.09122
633.17        69.12387
633.60         69.1646
634.03        69.19386
634.46        69.23256
634.89        69.26794
635.32        69.27776
635.75        69.26199
636.18        69.21686
636.61        69.18204
637.04        69.22919
637.47        69.36604
637.89        69.57588
638.32        69.77451
638.75        69.86933
639.18        69.83147
639.61        69.69444
640.04        69.50285
640.47        69.32666
640.90        69.19907
641.33        69.10464
641.76        69.02111
642.18        69.01148
642.61        69.07006
643.04        69.02334
643.47        68.84269
643.90        69.37276
644.33        69.17717
644.76        69.40568
645.18        69.56379
645.61        69.56292
646.04        69.37221
646.47        69.01734
646.90         68.6732
647.33        68.56831
647.75        68.77185
648.18         69.2636
648.61        69.76881
649.04         69.8381
649.47        69.39778
649.89        68.49866
650.32        67.61253
650.75        67.49632
651.18        68.16213
651.61        69.16668
652.03        69.99672
652.46        69.91239
652.89        69.30382
653.32        68.47965
653.74        67.81218
654.17        69.26606
654.60        69.89659
655.03        67.41623
655.46        68.65549
655.88        72.55937
656.31        76.30944
656.74        166.9677
657.16        108.0757
657.59        38.38873
658.02        29.57323
658.45        51.64169
658.87        66.40999
659.30        69.47342
659.73        68.83579
660.15        66.51985
660.58        68.73985
661.01        70.52848
661.44        68.51613
661.86        67.69126
662.29         67.3585
662.72        68.14738
663.14        69.76479
663.57        69.73709
664.00        68.34615
664.42        68.06873
664.85        68.98891
665.27        69.57878
665.70        69.59689
666.13        69.49769
666.55        69.25569
666.98         68.7412
667.41        68.16736
667.83        67.93443
668.26        68.12724
668.69        68.59774
669.11        69.08455
669.54        69.50259
669.96         69.1145
670.39        68.56615
670.82        67.91348
671.24        67.60214
671.67        67.74725
672.09        68.15358
672.52        68.54029
672.94        68.99489
673.37        68.32619
673.80        68.11272
674.22        68.08891
674.65        68.05499
675.07        68.00718
675.50        67.94845
675.92        67.91197
676.35        67.98521
676.77        68.17001
677.20        68.36122
677.62         68.5323
678.05         68.6484
678.47         68.6841
678.90        68.66103
679.32        68.60775
679.75         68.4463
680.17        68.46356
680.60        68.43603
681.02        68.40781
681.45        68.29857
681.87        68.11348
682.30        67.87191
682.72        67.66714
683.15        67.66608
683.57        67.90568
684.00        68.23466
684.42         68.6831
684.85        68.89587
685.27        68.86069
685.70        68.64959
686.12        68.36201
686.54        68.21093
686.97        68.24452
687.39        68.38313
687.82        68.52186
688.24        68.65121
688.66        68.74285
689.09        68.38787
689.51        68.44373
689.94        68.37482
690.36        68.44675
690.78        68.59025
691.21        68.75201
691.63        68.85816
692.06        68.87121
692.48        68.79591
692.90        68.68584
693.33        68.64697
693.75        68.70226
694.17        68.80971
694.60        68.94095
695.02        69.05018
695.44        69.08395
695.87        69.20429
696.29        69.41022
696.71        69.19294
697.14        68.72482
697.56        69.11728
697.98        70.12583
698.41        69.87542
698.83        69.09599
699.25        68.59636
699.68        68.64906
700.10        68.58283
700.52        68.41574
700.94        68.51944
701.37        68.84708
701.79        69.21732
702.21        69.54792
702.64        69.89077
703.06        70.14282
703.48        70.13676
703.90        69.86742
704.33        69.37974
704.75        68.83916
705.17        68.60188
705.59        68.75667
706.01         69.1012
706.44        69.44325
706.86        70.06347
707.28        69.95124
707.70        69.90977
708.12        69.75816
708.55        69.64764
708.97        69.59602
709.39        69.56522
709.81        69.56216
710.23        69.58569
710.66        69.62887
711.08        69.73244
711.50        69.81094
711.92        69.73619
712.34         69.4928
712.76        69.10754
713.19        68.72845
713.61        68.62604
714.03        68.84241
714.45        69.30496
714.87        69.80249
715.29        69.99574
715.71         69.8111
716.13        69.34937
716.56        68.82411
716.98         68.6135
717.40        68.80109
717.82        69.26833
718.24        69.81165
718.66        70.08772
719.08        70.00566
719.50        69.68459
719.92        69.27213
720.34         69.0172
720.76        68.99432
721.19         69.0035
721.61        69.21339
722.03         69.4146
722.45        69.62606
722.87        69.86613
723.29        70.07977
723.71        70.16302
724.13        70.09818
724.55        69.90712
724.97        69.67686
725.39        69.56238
725.81        69.60139
726.23        69.74926
726.65         69.9384
727.07        70.05409
727.49        70.06783
727.91        70.02758
728.33        69.95868
728.75        69.90278
729.17        69.87705
729.59        69.85273
730.01        69.86566
730.43        69.96878
730.85        70.16554
731.27        70.46899
731.69        70.76516
732.10         70.8435
732.52        70.66612
732.94        70.33541
733.36        70.03912
733.78        69.94852
734.20        70.11092
734.62        70.76656
735.04        71.65797
735.46        71.65009
735.88        70.96018
736.30        71.21556
736.72        72.36073
737.13        72.76225
737.55         72.1959
737.97        72.01405
738.39        72.25142
738.81         71.5099
739.23        70.23687
739.65        70.95617
740.06        73.18592
740.48        73.47729
740.90         71.9128
741.32        71.29315
741.74        71.85715
742.16        72.19126
742.57        72.32549
742.99        73.03544
743.41        74.09704
743.83        74.71204
744.25        74.74766
744.67        74.40503
745.08        73.94689
745.50         73.8026
745.92        74.09731
746.34        74.68092
746.75        75.33551
747.17        75.69613
747.59        75.69185
748.01        75.44458
748.42        75.17075
748.84        75.21926
749.26         75.6797
749.68        76.33886
750.09        77.02426
750.51         77.6297
750.93        77.99465
751.35        77.76392
751.76        77.11852
752.18        76.85787
752.60        76.98917
753.01        76.86433
753.43        76.53906
753.85        76.59798
754.27         77.0823
754.68        77.74969
755.10         78.4305
755.52        78.99699
755.93        79.34953
756.35        79.46043
756.77        79.46725
757.18        79.43881
757.60         79.3996
758.02        79.77525
758.43        80.28267
758.85         79.4549
759.26        77.79721
759.68        77.75377
760.10        79.14067
760.51        79.63412
760.93         78.9181
761.34        78.08215
761.76        77.50764
762.18        77.06109
762.59        76.97512
763.01        77.48939
763.42        78.51601
763.84        79.29179
764.26        79.68311
764.67        79.89869
765.09        79.89089
765.50        79.69453
765.92        79.25298
766.33        77.91655
766.75        76.22785
767.16        75.71165
767.58        76.51498
768.00        78.05753
768.41        79.90833
768.83        81.08745
769.24        81.17639
769.66        80.58179
770.07        79.70377
770.49        78.44513
770.90        77.21899
771.32        77.96078
771.73        80.07875
772.15        79.61746
772.56         77.0504
772.97        76.72145
773.39        78.48792
773.80        79.09647
774.22        78.30913
774.63        78.07681
775.05        78.42303
775.46        78.59032
775.88        78.51386
776.29        78.40606
776.70        78.31364
777.12         78.3375
777.53        78.51194
777.95         78.7562
778.36        78.94607
778.77        78.86348
779.19        78.50341
779.60        77.92872
780.02        77.37798
780.43        77.24255
780.84        77.63431
781.26          78.192
781.67        78.77005
782.09        79.54182
782.50        80.17301
782.91        79.42249
783.33        77.81886
783.74        77.31946
784.15        78.02789
784.57        78.54128
784.98        78.62832
785.39        78.65318
785.81         78.5527
786.22         78.0706
786.63        77.49897
787.04        77.42074
787.46        77.89394
787.87        78.72858
788.28        79.61358
788.70        80.01844
789.11        79.82246
789.52        79.22675
789.93        78.51266
790.35        78.06489
790.76        77.99016
791.17        78.21039
791.58        78.61209
792.00        78.89267
792.41         78.9431
792.82        79.05217
793.23        79.28796
793.65        78.91703
794.06        78.30137
794.47        79.38318
794.88        81.38176
795.29        81.03744
795.71        78.58064
796.12        76.43148
796.53        75.26643
796.94        75.04843
797.35        75.79858
797.76        76.98924
798.18        78.06823
798.59        78.85238
799.00        79.03619
799.41        78.30894
799.82        77.09451
800.23        76.41528
800.64        76.47202
801.06        76.86773
801.47        77.47655
801.88        77.99181
802.29        78.27186
802.70        78.44482
803.11        78.49449
803.52        78.36126
803.93        78.08612
804.34        77.66218
804.75        77.23162
805.17        77.17271
805.58        77.59985
805.99        77.98756
806.40        78.20151
806.81        79.05345
807.22        79.95616
807.63        78.63932
808.04        75.81409
808.45         74.5954
808.86        75.26103
809.27        76.24184
809.68        77.09112
810.09        77.68104
810.50        77.78648
810.91        77.47346
811.32        76.98294
811.73        76.70356
812.14        76.74312
812.55        76.94014
812.96        77.23704
813.37        77.52816
813.78        77.75099
814.19        78.00591
814.60         78.1276
815.01        77.83849
815.42        77.12655
815.83         76.0329
816.24        74.97551
816.65        74.69176
817.05        75.38488
817.46        76.81182
817.87        78.37166
818.28        78.98402
818.69        78.36307
819.10        76.77998
819.51        74.94194
819.92        74.05104
820.33        74.42632
820.74        75.71382
821.14         77.2523
821.55        77.86153
821.96        77.28205
822.37        75.92244
822.78        74.38477
823.19        73.55151
823.60        73.65925
824.00        74.47854
824.41        75.57356
824.82        76.30376
825.23         76.4017
825.64        76.08578
826.04        75.61105
826.45        75.34682
826.86        75.38862
827.27        75.57288
827.68        75.77391
828.08        75.83518
828.49        75.64299
828.90        75.33933
829.31        74.95811
829.72         74.5432
830.12        74.18024
830.53        73.83979
830.94        73.66995
831.35        73.86342
831.75         74.4693
832.16        75.36877
832.57        76.36483
832.97        77.02627
833.38        77.13873
833.79        76.80862
834.20        76.26875
834.60        75.88283
835.01        75.78295
835.42        75.87431
835.82        76.00414
836.23        75.83569
836.64        75.34275
837.04        74.66391
837.45        74.04888
837.86        73.88355
838.26        74.25224
838.67        74.98899
839.08        75.83815
839.48        76.34309
839.89        76.32333
840.29        75.92587
840.70        75.32851
841.11        74.78846
841.51         74.4063
841.92        74.09373
842.33        73.85607
842.73        73.71614
843.14        73.63335
843.54         73.6589
843.95        73.71503
844.35        73.71635
844.76        73.63023
845.17        73.49624
845.57        73.34566
845.98         73.2485
846.38        73.22351
846.79        73.20395
847.19        73.24931
847.60        73.37687
848.00        73.60738
848.41        73.90991
848.81        74.16678
849.22        74.12288
849.62        73.79779
850.03        73.26368
850.43         72.7787
850.84        72.73711
851.24        73.28682
851.65        74.13151
852.05        75.16898
852.46        76.04464
852.86        76.62379
853.27        77.04301
853.67        76.97179
854.07         76.0242
854.48        74.31734
854.88        72.00729
855.29        69.86584
855.69         69.0135
856.10        69.65193
856.50        71.66407
856.90         74.3341
857.31        75.96408
857.71        76.00285
858.12        74.85133
858.52         73.2598
858.92        72.23351
859.33          71.998
859.73        72.25995
860.13        72.86292
860.54        73.48656
860.94        74.03931
861.34        74.62798
861.75        75.14177
862.15        75.46973
862.55        75.56355
862.96        75.40489
863.36        75.19634
863.76        75.27956
864.17        75.72189
864.57        76.45454
864.97        77.26585
865.38        77.81956
865.78        78.07762
866.18        78.06676
866.58        77.92593
866.99        77.88276
867.39        78.06293
867.79        78.42442
868.19        78.74008
868.60        78.58755
869.00        77.89451
869.40        76.82241
869.80        75.93903
870.21        76.09109
870.61        77.53015
871.01        79.98273
871.41        82.70048
871.81        84.40621
872.22        84.74265
872.62        84.04513
873.02        83.00513
873.42        82.91042
873.82        83.86306
874.22        85.16311
874.63        86.43497
875.03        86.90736
875.43        86.21806
875.83        85.57278
876.23        83.68744
876.63        82.71504
877.03        82.56441
877.44        83.35128
877.84        104.4115
878.24        89.87917
878.64        90.53856
879.04        91.02293
879.44        87.23564
879.84        85.31081
880.24        89.16273
880.64        90.95245
881.04        91.44768
881.44        91.55257
881.84        90.92532
882.24        89.70258
882.65        88.65323
883.05        88.45948
883.45        89.24026
883.85        91.03275
884.25        93.16174
884.65        94.18902
885.05        93.72947
885.45        92.30704
885.85        90.72411
886.25        90.08661
886.65        90.62105
887.05        91.92612
887.45        93.60295
887.85        94.93016
888.25        95.57785
888.65        95.78413
889.04        95.55042
889.44        94.92194
889.84         94.0018
890.24        92.78687
890.64         91.6157
891.04        91.02605
891.44        91.10616
891.84        91.73878
892.24        92.59479
892.64        93.02241
893.04        92.87155
893.44        92.41844
893.83         91.8966
894.23        91.66322
894.63         91.7954
895.03        92.07991
895.43        92.63407
895.83        93.66812
896.23        95.10894
896.63        96.89731
897.02        98.34855
897.42        98.34628
897.82         96.7637
898.22        94.01965
898.62        91.14804
899.01        89.67143
899.41        89.91695
899.81        91.36288
900.21        93.27698
900.61        94.45322
901.00        94.53214
901.40        93.93678
901.80         93.0119
902.20        92.28391
902.59        91.93967
902.99        91.74321
903.39        91.70437
903.79        91.87366
904.18        92.22079
904.58        92.83607
904.98        93.48523
905.38        93.77302
905.77        93.63295
906.17        93.15459
906.57        92.68675
906.96        92.82937
907.36        93.59254
907.76        94.76713
908.15        95.91224
908.55        96.18674
908.95        95.45226
909.34        93.97002
909.74        92.25045
910.14        90.91039
910.53        90.20232
910.93        90.01422
911.33        90.30275
911.72        90.98581
912.12         91.8497
912.52        92.80316
912.91         93.7468
913.31        94.59792
913.70        95.39811
914.10        96.14814
914.49        96.57088
914.89        96.01126
915.29        94.43261
915.68        92.14062
916.08        90.12315
916.47        89.22102
916.87        89.49487
917.26        90.71249
917.66        92.12179
918.05        92.50868
918.45        91.58139
918.84        89.76237
919.24        87.91328
919.64        87.29305
920.03        88.21272
920.42        90.27447
920.82        92.74666
921.21        94.47128
921.61        94.88026
922.00        94.36493
922.40        93.32575
922.79        92.32606
923.19        91.61306
923.58        90.92571
923.98        90.14134
924.37        89.46152
924.77        89.16108
925.16        87.04918
925.55        87.68597
925.95        88.14663
926.34        89.77428
926.74        92.01899
927.13        94.28699
927.52        95.33852
927.92         94.9867
928.31        93.63223
928.70        91.75348
929.10        90.18755
929.49        89.17513
929.89         88.5032
930.28        88.33147
930.67        88.93137
931.07        90.14552
931.46        91.99454
931.85        93.70644
932.24        94.10655
932.64        93.00883
933.03        90.58927
933.42        87.59414
933.82        85.70679
934.21        85.40108
934.60        86.22363
934.99        87.35927
935.39        87.96181
935.78        87.89508
936.17        87.03437
936.56        85.25437
936.96        85.80854
937.35        84.61035
937.74        84.99417
938.13        85.44844
938.53        86.06869
938.92        86.86739
939.31        87.96497
939.70        89.11732
940.09         89.4922
940.49        88.87222
940.88        87.60086
941.27        86.27692
941.66        85.62891
942.05        85.74918
942.44        86.37917
942.84        87.30875
943.23        88.25856
943.62        88.98283
944.01        89.55301
944.40        89.82552
944.79        89.57301
945.18         88.7467
945.57        87.30358
945.97        85.51197
946.36        84.17328
946.75        83.72306
947.14        83.96394
947.53        84.49696
947.92        84.84916
948.31        84.94987
948.70        84.96644
949.09        84.93961
949.48        84.94734
949.87        85.01779
950.26        85.01677
950.65        85.06033
951.04        85.37656
951.43        85.96693
951.82        86.78548
952.21        87.41917
952.60        87.20005
952.99        86.03656
953.38        84.16499
953.77        82.22644
954.16        81.14729
954.55        81.12697
954.94        81.97682
955.33        83.06639
955.72        83.32044
956.11         82.4743
956.50         80.7914
956.89        79.10674
957.28        78.94463
957.66        80.75636
958.05        83.80172
958.44        86.96577
958.83        88.60416
959.22        88.33768
959.61        86.65023
960.00        84.33872
960.39        82.70631
960.78        82.17394
961.16        82.39594
961.55        82.88998
961.94        82.83732
962.33        82.02449
962.72        80.83114
963.11        79.66901
963.49        79.01736
963.88        78.95703
964.27         79.3406
964.66        79.91398
965.04        80.20997
965.43        79.97617
965.82         79.4365
966.21        78.94209
966.60        78.94849
966.98        79.54688
967.37        80.54576
967.76        81.64282
968.15        82.23695
968.53        82.12391
968.92        81.45341
969.31         80.5889
969.69        79.99622
970.08        79.78539
970.47        79.84664
970.86         79.9173
971.24        79.54181
971.63        78.61284
972.02        77.30254
972.40        76.05434
972.79        75.61352
973.17        76.30794
973.56        77.82076
973.95        79.70908
974.33        81.05332
974.72        81.36493
975.11        80.81815
975.49        79.85338
975.88        79.16846
976.26        78.88042
976.65        78.86321
977.04        78.58699
977.42        77.00608
977.81        74.07343
978.19        70.42171
978.58        67.72926
978.96         67.5845
979.35        70.15652
979.74        75.20835
980.12        81.59944
980.51        85.47166
980.89        85.55351
981.28        82.82947
981.66        79.20666
982.05        77.17444
982.43        77.13011
982.82        78.19467
983.20        79.84068
983.59        81.39418
983.97        82.67614
984.35        84.01113
984.74        84.98663
985.12        85.00848
985.51        83.63167
985.89        80.80238
986.28        77.33243
986.66        74.49567
987.04        72.96088
987.43        72.66678
987.81        72.70644
988.20        71.75739
988.58        69.35291
988.96        65.03083
989.35        59.72825
989.73        58.48271
990.12        64.29142
990.50        74.41055
990.88        82.90179
991.27        85.59207
991.65        83.16881
992.03        77.04743
992.42        69.60517
992.80        65.29465
993.18        65.71733
993.56         68.6567
993.95        72.44774
994.33        75.79117
994.71        78.14261
995.10        80.30534
995.48        81.72708
995.86        81.22242
996.24        78.58773
996.63        73.58731
997.01        67.69214
997.39        65.37144
997.77        68.51492
998.15        76.02158
998.54        84.03324
998.92        87.24792
999.30        84.12539
999.68        76.04531
1000.06        65.18607
1000.45        56.98343
1000.83        53.91795
1001.21        54.38056
1001.59        56.86565
1001.97         59.7702
1002.35        62.61581
1002.73        66.34256
1003.12        70.22073
1003.50        71.37426
1003.88        68.56375
1004.26         63.1063
1004.64        57.58133
1005.02        54.20147
1005.40         53.0306
1005.78        53.50413
1006.16        56.73321
1006.54        63.28509
1006.92         69.8655
1007.30        74.43185
1007.69        76.59274
1008.07         76.9965
1008.45         75.8724
1008.83        71.91816
1009.21         60.4577
1009.59        28.49624
1009.97       -43.83221
1010.35       -122.5294
1010.73       -87.13013
1011.11       -27.38979
1011.49        9.891553
1011.86        35.16678
1012.24          49.133
1012.62        55.12806
1013.00        56.48166
1013.38        54.26642
1013.76        50.66675
1014.14        53.11368
1014.52        67.71904
1014.90        96.32741
1015.28        131.2522
1015.66        149.5946
1016.04        137.5766
1016.41        99.70213
1016.79         57.5375
1017.17        34.55286
1017.55        30.32909
1017.93        33.77344
1018.31         39.4046
1018.69        44.82815
1019.06        50.21214
1019.44        56.81472
1019.82        66.50871
1020.20        79.81874
1020.58        96.46998
1020.95        117.3398
1021.33        139.4401
1021.71       -8.960189
1022.09        120.3773
1022.46        132.8266
1022.84        140.8262
1023.22        151.7437
1023.60        177.6784
1023.97        421.7325
1024.35        9.992642
1024.73        55.51773
