SpectraSmart Spectrum 2.9.0.0
--------- Device Information -----------
Spectrum Name :  反射率_0
Saving Time :  2024/04/26 02:01:31
Spectro-Module Model Name : SE2030-DUVN
Spectro-Module Serial Number : OS361AC55029948
Wavelength Start : 200
Wavelength End : 1025
Wavelength Unit : Wavelength(nm)
Spectrum Unit : Reflectance(%)
-----------Spectrum Setting ------------
Integration Time : 20ms
Average : 10
Boxcar : 0
Background removal :  enabled
linearity correction :  enabled
SC :  disabled
Intensity correction :  disabled
DWT denoise :  enabled
savitzky-golay :  disabled
FFT :  disabled
Running average :  disabled
Kalman :  disabled
High pass :  disabled
---------------BEGIN--------------------
Wavelength(nm)             Reflectance(%)
200.29               0
200.75        76.00247
201.21        68.75049
201.67        62.17384
202.13        58.96577
202.58        59.15125
203.04        62.17984
203.50        66.82581
203.96        70.65107
204.42        72.59245
204.88        73.21564
205.34        73.24456
205.80        73.56698
206.26        74.67995
206.72        77.13477
207.18        81.47515
207.64        84.07532
208.10        79.16943
208.55        71.72886
209.01        67.86403
209.47        67.88646
209.93         70.3813
210.39         75.2859
210.85        79.72158
211.31         77.5146
211.77        67.48152
212.23         52.0466
212.69        37.86503
213.14        35.14419
213.60        45.41466
214.06        65.78609
214.52         88.4269
214.98        101.1113
215.44        100.9224
215.90        91.86236
216.36        79.63442
216.81        72.31541
217.27        71.84318
217.73        75.19083
218.19        78.65987
218.65        77.49113
219.11        70.02991
219.57        55.98091
220.02        37.27002
220.48        25.07288
220.94        26.41063
221.40        38.39135
221.86        51.07477
222.32         53.9071
222.77        47.59261
223.23        37.58798
223.69        28.92754
224.15        26.65254
224.61        30.25834
225.06        37.09747
225.52        43.88283
225.98        46.61004
226.44        44.55814
226.90           39.61
227.36        33.82061
227.81        29.85617
228.27        28.68959
228.73        29.23141
229.19        30.87401
229.65        32.73264
230.10        34.33221
230.56        35.83078
231.02        37.09814
231.48        37.93113
231.93        38.35067
232.39        38.38042
232.85        38.15588
233.31        37.96093
233.77        37.86406
234.22        37.80096
234.68        37.71802
235.14         37.4262
235.60        36.93648
236.05        36.42514
236.51        36.03394
236.97        35.88129
237.43        36.06563
237.88        36.67127
238.34        37.86765
238.80        39.91185
239.26         42.7076
239.71        46.09556
240.17        49.48059
240.63        52.43085
241.08        54.81245
241.54        56.47682
242.00        57.68063
242.46        59.04753
242.91        61.34295
243.37        65.81281
243.83        78.77578
244.28        121.0994
244.74        170.4266
245.20        145.3586
245.66        121.4688
246.11        115.0579
246.57        119.3137
247.03        138.8059
247.48        199.5385
247.94        176.8208
248.40        113.7527
248.85        93.40435
249.31        87.50382
249.77        87.52998
250.22        91.10986
250.68        98.27911
251.14        108.4764
251.59        113.9741
252.05        108.0346
252.51        95.12084
252.96        82.17016
253.42        75.33967
253.88        74.04362
254.33        75.83627
254.79        80.66455
255.25        87.68231
255.70        95.04364
256.16        102.2855
256.62        106.8599
257.07        106.2152
257.53        101.6414
257.99        94.32781
258.44        86.76211
258.90        82.87591
259.35        81.74574
259.81        81.94456
260.27         81.3151
260.72        77.78294
261.18        72.17628
261.63        65.43484
262.09        59.22092
262.55        54.71438
263.00        51.92647
263.46        50.38742
263.91        49.23668
264.37        47.86437
264.83        46.03424
265.28        43.85048
265.74         41.8186
266.19        40.44316
266.65        39.90706
267.11        39.85836
267.56        39.78197
268.02        39.07762
268.47        37.61818
268.93        35.61743
269.38         33.4091
269.84        31.81413
270.30          31.078
270.75         30.9981
271.21        31.17097
271.66        30.97619
272.12        30.25459
272.57        29.21398
273.03        28.19264
273.48        27.60903
273.94         27.5635
274.39        27.82817
274.85        28.13431
275.31        28.09661
275.76         27.6194
276.22        26.87243
276.67        26.01528
277.13        25.36668
277.58        24.95573
278.04        24.71388
278.49        24.49615
278.95        24.15705
279.40        23.64185
279.86        23.06943
280.31         22.4882
280.77        22.07006
281.22        21.80768
281.68        21.66393
282.13        21.57957
282.59        21.50614
283.04        21.41835
283.50         21.3658
283.95        21.30757
284.41        21.19798
284.86        21.03169
285.32        20.82803
285.77        20.68697
286.22        20.81968
286.68        21.22102
287.13        21.79258
287.59        22.32628
288.04         22.5062
288.50        22.30506
288.95        21.81887
289.41        21.26872
289.86        20.88368
290.32        20.78334
290.77        20.88281
291.22        21.14445
291.68        21.46954
292.13        21.83664
292.59        22.29602
293.04        22.87378
293.50        23.60112
293.95        24.46826
294.40        25.42805
294.86        26.44974
295.31         27.5054
295.77        28.59368
296.22        29.73102
296.68        30.90019
297.13        32.03821
297.58        33.14856
298.04          34.253
298.49        35.43595
298.95        36.88378
299.40        38.61046
299.85        40.55244
300.31        42.54565
300.76        44.32531
301.21        45.80107
301.67        47.07948
302.12        48.22984
302.58        49.45759
303.03        50.79409
303.48        52.21054
303.94         53.7441
304.39        55.38984
304.84        57.14481
305.30        59.00612
305.75        60.84058
306.20        62.46685
306.66        63.86496
307.11        65.02895
307.57        66.11612
308.02        67.25157
308.47        68.52761
308.93        69.91786
309.38        71.32816
309.83         72.6601
310.29        73.87276
310.74        74.95898
311.19        75.99643
311.65        77.10412
312.10        78.28851
312.55        79.52312
313.00         80.6465
313.46        81.40403
313.91          81.739
314.36         81.7572
314.82        81.72704
315.27        82.00954
315.72        82.72383
316.18        83.76664
316.63        84.93871
317.08        85.86185
317.53         86.4184
317.99        86.69824
318.44        86.89964
318.89        87.35306
319.35        88.11022
319.80        89.08284
320.25        90.00372
320.70        90.44132
321.16        90.30801
321.61        89.76335
322.06        89.10938
322.51        88.81507
322.97        88.97944
323.42         89.4989
323.87        90.16244
324.32        90.60417
324.78        90.70064
325.23        90.60921
325.68        90.43305
326.13        90.36442
326.59        90.44884
327.04        90.64443
327.49        90.92851
327.94        91.30447
328.39        91.75294
328.85        92.26322
329.30        92.81526
329.75        93.20065
330.20        93.39527
330.66        93.44051
331.11        93.52773
331.56        93.89599
332.01         94.6182
332.46        95.59969
332.92        96.70171
333.37        97.85506
333.82        98.88972
334.27        99.82814
334.72        100.5365
335.17        100.8145
335.63        100.6557
336.08        100.1723
336.53        99.62723
336.98        99.49098
337.43        99.88802
337.88        100.7003
338.34        101.7236
338.79        102.6949
339.24        103.4617
339.69        104.1182
340.14        104.6327
340.59        104.9552
341.05        105.1048
341.50        105.0557
341.95        104.9771
342.40        105.1606
342.85        105.6657
343.30        106.4367
343.75        107.2608
344.20        107.7494
344.66        107.8152
345.11        107.5538
345.56        107.1986
346.01        107.1031
346.46        107.3524
346.91        107.8361
347.36        108.3682
347.81        108.6657
348.26        108.6633
348.72        108.4674
349.17        108.2145
349.62        108.1756
350.07         108.402
350.52        108.7801
350.97        109.1481
351.42        109.2688
351.87        109.0911
352.32        108.7152
352.77        108.2329
353.22         107.785
353.67        107.4289
354.13        107.1298
354.58        106.8815
355.03        106.7358
355.48         106.675
355.93        106.6834
356.38        106.6507
356.83         106.396
357.28        105.8827
357.73         105.161
358.18        104.3444
358.63        103.6216
359.08        103.0495
359.53        102.5849
359.98        102.1591
360.43        101.6572
360.88        101.0474
361.33        100.3667
361.78        99.67504
362.23         99.0665
362.68        98.56461
363.13        98.13731
363.58        97.71158
364.03        97.17455
364.48        96.50222
364.93        95.73181
365.38        94.94055
365.83        94.25464
366.28         93.6978
366.73        93.21423
367.18        92.74566
367.63        92.20208
368.08        91.56626
368.53        90.89804
368.98         90.1973
369.43        89.44647
369.88        88.66164
370.33        87.84718
370.78         87.1087
371.23         86.6276
371.68        86.43364
372.13        86.46712
372.58        86.58099
373.03        86.52007
373.48        86.21413
373.93        85.74502
374.38        85.20358
374.83        84.73163
375.28         84.3718
375.72        84.05576
376.17        83.79944
376.62        83.61082
377.07        83.46469
377.52        83.34515
377.97        83.17303
378.42        82.81697
378.87        82.26891
379.32        81.60242
379.77        80.88093
380.22        80.18978
380.67        79.55476
381.11        78.94233
381.56        78.40822
382.01        78.05016
382.46        77.87978
382.91        77.88842
383.36        77.90295
383.81        77.64429
384.26        77.06756
384.71        76.24722
385.15        75.41124
385.60         74.9725
386.05        74.95191
386.50        75.21781
386.95        75.49618
387.40        75.33074
387.85        74.66542
388.29        73.68457
388.74        72.75409
389.19        72.09987
389.64        71.76271
390.09        71.60703
390.54        71.61637
390.98        71.76446
391.43        71.99467
391.88        72.30016
392.33        72.50505
392.78        72.25445
393.23        71.54441
393.67         70.6898
394.12        70.04109
394.57        69.18588
395.02        68.95702
395.47        69.46702
395.91        70.44225
396.36         71.0509
396.81        71.04646
397.26        70.86739
397.71        70.62543
398.15        70.24931
398.60        69.87006
399.05        69.62511
399.50        69.45164
399.95        68.77248
400.39        68.03821
400.84        67.75424
401.29        67.97435
401.74        68.00814
402.18        67.82683
402.63        67.78112
403.08        67.93026
403.53        68.15461
403.97        68.42966
404.42        68.75355
404.87        68.97853
405.32        68.82509
405.76        68.25741
406.21         67.5338
406.66        66.84003
407.11        66.26011
407.55        66.00141
408.00        66.35866
408.45        67.13918
408.90        67.77334
409.34        67.89721
409.79        67.12487
410.24        65.85342
410.68        65.21696
411.13        65.35172
411.58        65.64712
412.03        65.97655
412.47        66.38657
412.92        66.74358
413.37        67.05253
413.81        67.25729
414.26        67.31668
414.71        67.21091
415.15        66.93591
415.60        66.57081
416.05         66.2711
416.49        66.09421
416.94        66.03903
417.39        66.01086
417.83        65.82706
418.28        65.47307
418.73        65.01005
419.17        64.63921
419.62        64.68504
420.07        65.16354
420.51         65.9627
420.96        66.77791
421.41        67.09556
421.85         66.7832
422.30          66.122
422.74        65.36123
423.19        64.90907
423.64        64.85395
424.08        65.24158
424.53        65.87221
424.98        66.31683
425.42        66.46916
425.87         66.5595
426.31        66.66154
426.76        66.66654
427.21        66.70742
427.65        67.08217
428.10        67.71057
428.54        68.38657
428.99        69.05314
429.44        69.37428
429.88        69.33768
430.33        69.87723
430.77        70.45592
431.22        69.23854
431.66        66.77376
432.11        65.44809
432.56         65.5719
433.00        66.35728
433.45        67.69118
433.89        69.69043
434.34        70.85289
434.78        72.03481
435.23        68.46503
435.67        65.67595
436.12        68.41908
436.57        69.55054
437.01        70.35468
437.46        70.62326
437.90         70.4742
438.35        70.35159
438.79        70.44905
439.24        70.35792
439.68        70.18729
440.13        69.81519
440.57         69.5805
441.02        70.63723
441.46        72.51652
441.91        73.37169
442.35        73.00882
442.80        72.14481
443.24        71.18526
443.69         71.6543
444.13        73.18416
444.58        73.20681
445.02        71.53294
445.47        71.43684
445.91        72.65732
446.36        73.06313
446.80        72.56355
447.24        72.28233
447.69        72.34233
448.13        72.46892
448.58        72.69056
449.02        73.02602
449.47        73.39439
449.91        73.67902
450.36        73.84367
450.80        73.89965
451.25         73.8726
451.69        73.77251
452.13        73.64048
452.58        73.48487
453.02        73.35085
453.47        73.35593
453.91        73.49325
454.36        73.72215
454.80        73.97764
455.24        74.05966
455.69        73.94239
456.13        73.81351
456.58        73.71164
457.02        73.24917
457.46        72.65195
457.91        72.65282
458.35        73.14014
458.79        73.34452
459.24        73.26334
459.68         73.2331
460.13        73.19474
460.57        73.07104
461.01        72.95926
461.46        71.91605
461.90        71.42352
462.34        71.71867
462.79        71.38585
463.23        71.78882
463.68        72.22831
464.12        72.57492
464.56        72.72347
465.01        72.70039
465.45        72.43229
465.89        72.35527
466.34        72.33453
466.78        71.19054
467.22        69.56695
467.67         69.3721
468.11        71.21129
468.55        72.10251
468.99        71.89535
469.44        71.47686
469.88        71.06756
470.32         71.0117
470.77        71.26336
471.21         71.1843
471.65        70.76176
472.10        70.60205
472.54        70.71119
472.98        70.77451
473.42        70.76662
473.87        70.88142
474.31        71.03117
474.75        70.93174
475.20        70.66843
475.64        70.60278
476.08        70.73792
476.52        70.74519
476.97        70.61517
477.41        70.58952
477.85        70.68522
478.29        70.66573
478.74        70.94418
479.18        71.04559
479.62        70.01343
480.06        70.57462
480.50        70.88719
480.95        71.28927
481.39        71.33604
481.83        70.29408
482.27        70.71123
482.72        70.15566
483.16        69.04881
483.60        69.27793
484.04        70.68012
484.48        71.19417
484.93        71.33756
485.37        72.27129
485.81        72.71725
486.25        71.64725
486.69        96.51044
487.14        77.70201
487.58         48.6118
488.02        60.16539
488.46        68.53053
488.90        67.76447
489.34        69.45508
489.79        68.82964
490.23        70.49649
490.67        71.29209
491.11        70.32996
491.55        70.37607
491.99        70.95333
492.43        70.83411
492.88        70.10242
493.32        70.02729
493.76        70.14214
494.20        70.35838
494.64        70.43203
495.08        70.65261
495.52        71.00567
495.96        70.87768
496.41        70.35124
496.85        70.89582
497.29        72.14286
497.73         71.0899
498.17        68.76285
498.61        68.87267
499.05        71.44556
499.49        72.04247
499.93        72.12913
500.37        71.75311
500.82         70.8874
501.26        70.81612
501.70        71.30102
502.14        71.54096
502.58        71.37683
503.02        71.25695
503.46        71.17288
503.90        70.86184
504.34        70.46148
504.78        70.30503
505.22        70.43496
505.66        70.77272
506.10        71.19196
506.54        71.32301
506.98        71.06873
507.42        70.81808
507.86        70.81287
508.30        69.92038
508.74         70.5935
509.18         70.8271
509.62        71.18343
510.06        71.36446
510.50        71.32216
510.94         71.1129
511.38        70.83281
511.82        70.69273
512.26        70.73919
512.70        70.90888
513.14        71.11939
513.58        71.24023
514.02         71.2296
514.46        71.12955
514.90        71.00529
515.34        70.93902
515.78        70.94417
516.22        71.05193
516.66        71.20932
517.10        71.16831
517.54        70.90858
517.98        71.05999
518.42        70.84299
518.86        70.93931
519.30        71.10923
519.74        71.38501
520.18        71.68385
520.62        71.86599
521.06        71.90499
521.50        71.83902
521.93        71.71209
522.37        71.59519
522.81        71.52293
523.25        71.47769
523.69        71.46867
524.13        71.51004
524.57        71.59854
525.01        71.73203
525.45         71.8808
525.89        71.99312
526.32        72.04382
526.76        72.03825
527.20        71.98931
527.64        71.94048
528.08         71.9205
528.52        71.86168
528.96        71.72482
529.40        71.65116
529.83        71.68006
530.27        71.05018
530.71         71.2149
531.15        71.11974
531.59        71.19759
532.03        71.37663
532.46        71.64207
532.90        71.93369
533.34        72.20078
533.78         72.4482
534.22        72.62138
534.66        72.63963
535.09        72.48813
535.53        72.21459
535.97        71.88997
536.41         71.6519
536.85        71.54417
537.28        71.54417
537.72        71.59246
538.16        71.59949
538.60        71.54366
539.04        71.40084
539.47        71.22911
539.91        71.30512
540.35        71.56253
540.79         71.6647
541.22        71.58842
541.66        71.59267
542.10        71.66225
542.54        71.62397
542.97        71.51318
543.41        71.49708
543.85        71.58321
544.29        71.75436
544.72        71.89027
545.16        71.83546
545.60        71.56015
546.04        71.10757
546.47        70.69106
546.91        70.66557
547.35        71.06737
547.79        71.80286
548.22        72.53869
548.66        72.71674
549.10        72.26521
549.53        71.46217
549.97        70.65587
550.41        70.23135
550.84        70.30956
551.28         70.7821
551.72         71.4222
552.15        71.83745
552.59        71.90048
553.03        71.69583
553.46        71.35135
553.90        71.18278
554.34        71.24496
554.77        71.33356
555.21        71.38747
555.65        71.54406
556.08        71.80978
556.52        71.33958
556.96        71.77017
557.39        71.55614
557.83        71.28361
558.27        71.20005
558.70        71.34412
559.14        71.49593
559.57        71.61616
560.01        71.87891
560.45        72.16431
560.88        72.20565
561.32        72.01628
561.75        71.63984
562.19        71.24612
562.63        71.00768
563.06        70.95793
563.50        71.03809
563.93         71.1604
564.37        71.27983
564.80        71.31845
565.24        71.23409
565.68        71.06764
566.11        70.98934
566.55        71.06833
566.98        71.15228
567.42        71.22222
567.85        71.45563
568.29        71.85091
568.72        71.82297
569.16        71.54948
569.60        72.32155
570.03        72.47929
570.47        72.50144
570.90        72.33124
571.34         70.3578
571.77        71.51659
572.21        71.38276
572.64        70.95021
573.08        69.74083
573.51        66.72623
573.95        69.38859
574.38        73.99869
574.82         71.7535
575.25        71.23341
575.69        69.13828
576.12        68.02528
576.56        67.24187
576.99        68.92895
577.42        72.01543
577.86         71.8189
578.29         70.8956
578.73        74.76829
579.16        68.89137
579.60        63.29702
580.03        66.21177
580.47        70.25172
580.90         72.1343
581.33        70.61465
581.77        69.69367
582.20        76.16936
582.64        76.50106
583.07        64.83997
583.51        63.76231
583.94        62.84818
584.37        65.73201
584.81        68.95158
585.24        72.61014
585.68        74.41898
586.11        73.30801
586.54        67.72085
586.98        65.77155
587.41        66.71333
587.85        69.96115
588.28        72.61952
588.71        69.23482
589.15        66.94302
589.58        68.38261
590.01        68.74165
590.45        69.78757
590.88        70.74475
591.31        70.03513
591.75         69.4595
592.18        69.42373
592.61        70.96661
593.05        71.22846
593.48        74.58907
593.91        75.26491
594.35        68.99355
594.78        67.50613
595.21        67.07938
595.65        70.21603
596.08        73.14756
596.51        70.27747
596.94        68.30308
597.38        68.95783
597.81        71.78065
598.24        73.50974
598.68        71.78065
599.11        70.74658
599.54        73.68174
599.97        75.03246
600.41        69.80074
600.84        69.87591
601.27        71.37466
601.70        70.25552
602.14        70.19566
602.57        69.20966
603.00        69.91835
603.43        71.48315
603.87        72.80915
604.30        72.37578
604.73        70.47952
605.16        69.10371
605.60        69.75851
606.03        70.75961
606.46        71.80238
606.89        71.75944
607.32        69.60404
607.76        69.46199
608.19        71.90948
608.62        71.03014
609.05        69.82087
609.48        70.30806
609.92        70.19208
610.35        69.64602
610.78        71.96595
611.21        72.60713
611.64        69.40989
612.07        70.15589
612.50        70.62679
612.94        71.10426
613.37        70.50018
613.80        70.80379
614.23        71.19581
614.66        71.10174
615.09        71.29294
615.52        71.25482
615.96        71.11246
616.39         71.1659
616.82        70.23356
617.25        69.95358
617.68        70.53121
618.11        71.46774
618.54        71.81857
618.97        71.35538
619.40         70.3093
619.84        69.97772
620.27        71.26364
620.70        71.95402
621.13        72.11128
621.56        71.52242
621.99        70.69764
622.42        71.41396
622.85        73.17448
623.28        72.99393
623.71        72.38301
624.14        72.05595
624.57        71.62854
625.00        71.55211
625.43        71.67204
625.86        71.14262
626.29        71.26102
626.72        72.11784
627.15        71.70061
627.58        71.90157
628.01        71.99408
628.44        72.28546
628.87        72.31341
629.30        72.52323
629.73        72.67841
630.16        72.88554
630.59        72.43018
631.02        72.02783
631.45        71.60512
631.88        71.32848
632.31        71.24558
632.74         71.3249
633.17        71.50001
633.60        71.63194
634.03        71.67728
634.46        71.67673
634.89         71.6537
635.32        71.64692
635.75        71.67001
636.18        71.69756
636.61        71.73437
637.04        71.78554
637.47        71.82192
637.89        71.92512
638.32        72.07211
638.75        72.00649
639.18        71.66308
639.61        72.12787
640.04        71.57722
640.47        71.49816
640.90        71.36604
641.33        71.22295
641.76        71.07227
642.18        71.05714
642.61        71.20319
643.04        71.29456
643.47        71.24388
643.90        71.83452
644.33        71.56119
644.76        71.63729
645.18        71.63522
645.61        71.60521
646.04        71.53996
646.47        71.40997
646.90        71.29327
647.33        71.27321
647.75        71.39243
648.18        71.66337
648.61        71.87557
649.04        71.79996
649.47        71.39171
649.89        70.36284
650.32        69.24641
650.75        69.40509
651.18        70.65157
651.61        71.55247
652.03        71.75091
652.46        71.49815
652.89        71.15715
653.32        71.19402
653.74        70.34034
654.17        71.71449
654.60        72.39937
655.03        69.72284
655.46        71.07669
655.88        74.79407
656.31        79.23247
656.74        175.8846
657.16        114.1298
657.59        40.48284
658.02        30.75427
658.45         53.7409
658.87        69.04803
659.30        72.13302
659.73        70.88359
660.15        68.51389
660.58        70.92024
661.01        72.84053
661.44        70.63228
661.86        69.93876
662.29        69.93967
662.72        70.62199
663.14        71.79536
663.57        71.81616
664.00        70.89614
664.42         70.7453
664.85        71.42616
665.27        71.80737
665.70        71.72276
666.13        71.56271
666.55        71.32108
666.98        70.88418
667.41         70.4031
667.83        70.18118
668.26        70.28382
668.69        70.58576
669.11        70.89593
669.54        71.25814
669.96        70.94753
670.39        70.58147
670.82        70.13918
671.24        69.96873
671.67        70.15705
672.09        70.50058
672.52        70.77272
672.94        71.24593
673.37        70.67358
673.80        70.46841
674.22        70.34856
674.65        70.26542
675.07        70.21716
675.50         70.1114
675.92        69.99647
676.35        70.02985
676.77        70.22031
677.20         70.4445
677.62        70.65427
678.05        70.77869
678.47        70.78566
678.90        70.71085
679.32        70.61629
679.75        70.46925
680.17        70.57077
680.60          70.672
681.02        70.77396
681.45        70.72258
681.87        70.50643
682.30        70.16973
682.72        69.84534
683.15        69.76269
683.57        69.97762
684.00        70.32316
684.42          70.802
684.85        71.03582
685.27        70.99706
685.70        70.77169
686.12        70.45945
686.54        70.26574
686.97        70.23289
687.39        70.31721
687.82        70.43561
688.24        70.50791
688.66        70.48544
689.09        70.40273
689.51        70.33296
689.94        70.35917
690.36        70.50719
690.78        70.73888
691.21        70.96742
691.63        71.06499
692.06        71.00547
692.48        70.83405
692.90         70.6502
693.33        70.59571
693.75        70.70572
694.17        70.94376
694.60        71.21487
695.02        71.35729
695.44        71.29675
695.87        71.21503
696.29        71.19437
696.71        70.91781
697.14        70.57127
697.56        71.09536
697.98        72.19562
698.41        72.11523
698.83        71.38416
699.25        70.93385
699.68        70.99813
700.10        70.93936
700.52        70.78186
700.94        70.89891
701.37        71.22136
701.79        71.52687
702.21        71.73124
702.64        71.90314
703.06        71.99873
703.48        71.93816
703.90        71.73125
704.33        71.39966
704.75        71.02546
705.17        70.83231
705.59        70.88096
706.01        71.00312
706.44            71.1
706.86        71.62679
707.28        71.58917
707.70        71.74653
708.12        71.81942
708.55        71.82567
708.97        71.74965
709.39        71.59733
709.81        71.42921
710.23        71.33868
710.66        71.35455
711.08          71.486
711.50        71.63447
711.92        71.65562
712.34        71.52027
712.76        71.25874
713.19         70.9999
713.61        70.98138
714.03         71.2319
714.45        71.67751
714.87        72.11868
715.29        72.23976
715.71        71.97933
716.13        71.44375
716.56        70.84006
716.98        70.53337
717.40        70.61133
717.82        70.96378
718.24         71.4271
718.66        71.72113
719.08        71.75889
719.50        71.62926
719.92        71.41259
720.34        71.25463
720.76        71.20798
721.19        71.10558
721.61         71.1655
722.03        71.24849
722.45        71.40442
722.87        71.62573
723.29        71.86788
723.71        72.04348
724.13        72.12277
724.55        72.12054
724.97        72.06053
725.39        71.99178
725.81        71.93447
726.23        71.88002
726.65        71.83053
727.07        71.78556
727.49        71.75115
727.91        71.74342
728.33        71.76472
728.75        71.81313
729.17        71.88216
729.59        71.95664
730.01        72.05139
730.43         72.1837
730.85        72.35419
731.27        72.58212
731.69        72.78851
732.10        72.82544
732.52         72.6704
732.94        72.40901
733.36        72.20249
733.78        72.17283
734.20        72.34892
734.62        72.99244
735.04        73.85397
735.46        73.78872
735.88        73.03694
736.30        73.27506
736.72        74.43401
737.13         74.8299
737.55        74.23625
737.97        74.00255
738.39        74.20928
738.81        73.59405
739.23        72.57918
739.65        73.48162
740.06        75.75817
740.48        76.06906
740.90        74.51437
741.32        73.54371
741.74        74.02519
742.16        74.16057
742.57        74.19279
742.99        74.86772
743.41        75.95758
743.83        76.63054
744.25          76.731
744.67        76.47983
745.08        76.10178
745.50        75.96072
745.92        76.17207
746.34        76.59824
746.75        77.08002
747.17         77.3531
747.59        77.37304
748.01         77.2363
748.42        77.10258
748.84        77.23583
749.26        77.70363
749.68        78.28502
750.09        78.85983
750.51        79.49433
750.93        80.00698
751.35        79.81579
751.76        79.10959
752.18        78.87665
752.60         79.1224
753.01        79.07905
753.43         78.7928
753.85        78.89583
754.27         79.4273
754.68        80.12933
755.10        80.81947
755.52        81.36054
755.93        81.65504
756.35        81.66735
756.77        81.54913
757.18        81.49945
757.60        81.58159
758.02        81.99537
758.43        82.31873
758.85         82.0392
759.26        80.00227
759.68        79.73712
760.10        80.90842
760.51        81.92993
760.93        81.24402
761.34        80.22456
761.76        79.93994
762.18         79.5347
762.59        79.50346
763.01        79.79476
763.42        80.41615
763.84         81.0052
764.26        81.48816
764.67        81.84227
765.09        81.95267
765.50        81.90467
765.92        81.58294
766.33        80.18539
766.75        78.31578
767.16         77.7313
767.58        78.60693
768.00        80.19604
768.41        82.15919
768.83        83.33545
769.24        84.45446
769.66        83.65675
770.07        81.94131
770.49        80.36189
770.90        79.34801
771.32        80.12895
771.73        82.04185
772.15        81.39513
772.56        78.68701
772.97        78.22578
773.39        79.89624
773.80        80.48398
774.22        79.76056
774.63        79.68524
775.05        80.22968
775.46        80.52281
775.88        80.46891
776.29        80.31537
776.70        80.14265
777.12        80.11037
777.53        80.27338
777.95        80.52668
778.36        80.74986
778.77        80.73341
779.19        80.47655
779.60        80.04162
780.02        79.62792
780.43        79.63101
780.84        80.16715
781.26        80.67045
781.67        81.05602
782.09         82.1046
782.50        83.26766
782.91        82.15587
783.33        79.52333
783.74        78.61735
784.15        79.62108
784.57        80.44363
784.98        80.71417
785.39        80.87804
785.81        80.81905
786.22        80.26012
786.63        79.57375
787.04        79.46868
787.46        80.02792
787.87        81.01719
788.28        82.07546
788.70        82.59166
789.11        82.41344
789.52        81.76574
789.93        80.95472
790.35        80.39581
790.76        80.21954
791.17        80.35383
791.58        80.66567
792.00        80.87085
792.41         80.8765
792.82        80.82329
793.23         80.8709
793.65        80.77896
794.06        80.74107
794.47        81.87141
794.88        83.43753
795.29        82.92113
795.71        80.58632
796.12        78.46246
796.53         77.2171
796.94        76.92888
797.35        77.64545
797.76        78.91653
798.18        80.15426
798.59        80.99779
799.00        81.11266
799.41        80.27897
799.82        78.95415
800.23        78.17123
800.64        78.14674
801.06        78.49136
801.47        79.06641
801.88        79.53521
802.29        79.75901
802.70         79.8851
803.11        79.93115
803.52        79.88919
803.93        79.79038
804.34        79.58713
804.75        79.38605
805.17        79.44513
805.58        79.84142
805.99        80.28671
806.40        80.59292
806.81        80.99116
807.22        81.14205
807.63        79.90726
808.04        77.86956
808.45        76.99487
808.86         77.4911
809.27         78.4383
809.68        79.40673
810.09        79.96875
810.50         79.8948
810.91        79.33707
811.32        78.59062
811.73        78.13242
812.14        78.09818
812.55         78.2985
812.96        78.65596
813.37        79.02737
813.78        79.32671
814.19        79.66109
814.60         79.8468
815.01        79.58335
815.42        78.85583
815.83        77.70049
816.24        76.56921
816.65        76.26438
817.05        77.00679
817.46        78.54274
817.87         80.2222
818.28        80.87603
818.69        80.20087
819.10        78.49695
819.51        76.54034
819.92        75.64794
820.33        76.16309
820.74        77.68623
821.14        79.48764
821.55        80.27277
821.96        79.74502
822.37        78.34921
822.78        76.71404
823.19        75.76218
823.60         75.7488
824.00        76.42961
824.41        77.39165
824.82         78.0502
825.23        78.15196
825.64        77.90937
826.04        77.52812
826.45        77.29262
826.86        77.28239
827.27        77.36156
827.68        77.44522
828.08        77.45164
828.49        77.28837
828.90        77.06696
829.31        76.80949
829.72        76.53648
830.12        76.30717
830.53        76.09338
830.94        76.00262
831.35        76.16801
831.75        76.63988
832.16        77.32082
832.57        78.07909
832.97        78.61246
833.38        78.75074
833.79        78.56241
834.20        78.23676
834.60        78.06973
835.01        78.16198
835.42         78.4311
835.82        78.69461
836.23        78.56229
836.64        78.00399
837.04        77.17489
837.45        76.37443
837.86         76.0738
838.26        76.38283
838.67         77.1129
839.08        78.00219
839.48        78.57261
839.89        78.62669
840.29        78.32436
840.70        77.80405
841.11        77.25917
841.51        76.78773
841.92         76.3185
842.33        75.93239
842.73        75.78047
843.14        75.84879
843.54        76.14843
843.95         76.5137
844.35         76.7143
844.76        76.66551
845.17        76.43482
845.57        76.11799
845.98        75.88428
846.38        75.78419
846.79        75.74046
847.19        75.74746
847.60        75.71317
848.00        75.65022
848.41        75.56669
848.81        75.49809
849.22        75.40913
849.62        75.35283
850.03         75.3491
850.43         75.4349
850.84        75.59409
851.24        75.85821
851.65        76.02962
852.05        76.30671
852.46         76.8395
852.86        77.61995
853.27        78.62543
853.67        79.23343
854.07        78.61797
854.48        76.79899
854.88        74.07734
855.29        71.45111
855.69        70.37135
856.10        71.12788
856.50        73.52155
856.90        76.66147
857.31        78.47857
857.71        78.29728
858.12        76.66235
858.52        74.56915
858.92        73.32973
859.33        73.23331
859.73        73.91333
860.13        75.06704
860.54        76.06722
860.94        76.68916
861.34        77.09207
861.75        77.34108
862.15        77.61743
862.55         77.9382
862.96        78.19648
863.36        78.36324
863.76        78.38911
864.17        78.28265
864.57        78.15322
864.97        78.09889
865.38        78.24144
865.78        78.64296
866.18        79.16755
866.58        79.75994
866.99        80.31576
867.39        80.82825
867.79        81.34899
868.19        81.63674
868.60        81.25459
869.00        80.17528
869.40        78.55269
869.80        77.12931
870.21        77.04688
870.61         78.6233
871.01        81.52521
871.41        84.82858
871.81        86.92942
872.22        87.35609
872.62        86.52331
873.02        85.23756
873.42        84.94307
873.82        85.81541
874.22        87.15883
874.63        88.50764
875.03        88.92003
875.43         88.0039
875.83        86.98714
876.23        84.93623
876.63        83.99622
877.03        84.17086
877.44        85.65649
877.84        103.4004
878.24        93.11727
878.64        93.50516
879.04        93.16399
879.44        89.47945
879.84         87.5959
880.24        90.98921
880.64        92.85493
881.04        93.76444
881.44        93.94534
881.84          92.857
882.24        90.89161
882.65        89.11778
883.05        88.53813
883.45        89.30972
883.85        91.37176
884.25        93.98987
884.65        95.58854
885.05        95.65201
885.45        94.69251
885.85        93.40265
886.25        92.74536
886.65         92.9556
887.05        93.68737
887.45        94.67826
887.85        95.48096
888.25        95.88776
888.65        96.08539
889.04        96.06397
889.44         95.8246
889.84        95.40607
890.24        94.78521
890.64        94.16966
891.04         93.9051
891.44         94.0395
891.84         94.4948
892.24         95.0224
892.64        95.14312
893.04        94.78351
893.44        94.18579
893.83        93.58287
894.23        93.32086
894.63        93.46066
895.03        93.80623
895.43        94.43361
895.83        95.46539
896.23        96.80701
896.63         98.4192
897.02        99.67923
897.42          99.577
897.82        98.02544
898.22        95.42729
898.62        92.77069
899.01        91.50904
899.41        91.94928
899.81        93.57005
900.21        95.68272
900.61        97.15349
901.00        97.60407
901.40        97.40075
901.80        96.77769
902.20        96.09562
902.59         95.5214
902.99        94.90054
903.39        94.33384
903.79        94.03339
904.18         94.0523
904.58        94.43854
904.98        95.02264
905.38        95.50019
905.77        95.75649
906.17        95.81121
906.57        95.80021
906.96        95.99878
907.36        96.37547
907.76        96.85297
908.15        97.15191
908.55        96.71284
908.95        95.52071
909.34        93.76881
909.74        92.01545
910.14        90.94073
910.53        90.76055
910.93        91.33457
911.33        92.39257
911.72        93.42542
912.12        94.11077
912.52        94.49608
912.91        94.72035
913.31        94.99253
913.70        95.40453
914.10        95.88151
914.49        96.12541
914.89        95.44955
915.29        93.83434
915.68        91.64957
916.08        89.86302
916.47        89.28859
916.87        89.97295
917.26        91.64046
917.66        93.54365
918.05        94.47031
918.45        94.08028
918.84         92.7736
919.24        91.28606
919.64        90.69802
920.03        91.29391
920.42        92.70439
920.82        94.40191
921.21        95.62788
921.61        95.94801
922.00        95.67827
922.40        94.96811
922.79        93.99577
923.19        92.94257
923.58        91.68121
923.98        90.32742
924.37        89.56122
924.77        89.76115
925.16        88.70631
925.55         90.2212
925.95        91.36905
926.34        93.14816
926.74        95.16723
927.13        96.92471
927.52        97.34295
927.92        96.35197
928.31        94.34801
928.70        91.92445
929.10          90.108
929.49        89.17691
929.89        88.85769
930.28        89.25158
930.67        90.49918
931.07        92.34144
931.46        94.78738
931.85        96.90237
932.24        97.28808
932.64        95.73194
933.03        92.45773
933.42        88.44116
933.82        85.88619
934.21        85.44938
934.60        86.52132
934.99        88.05318
935.39        88.87614
935.78         88.7806
936.17        87.78754
936.56        85.75153
936.96         85.9111
937.35         84.3873
937.74        84.46986
938.13        84.80131
938.53        85.63712
938.92        86.98388
939.31        88.98901
939.70        91.15909
940.09        91.97498
940.49        90.96511
940.88        88.72122
941.27        86.38628
941.66        85.34978
942.05         85.7746
942.44        87.19318
942.84        89.04977
943.23        90.43736
943.62        90.90326
944.01        90.72003
944.40         90.0481
944.79        89.10297
945.18        87.97569
945.57        86.52834
945.97        84.90533
946.36        83.62063
946.75        83.03722
947.14        83.11259
947.53        83.59949
947.92        84.19165
948.31        84.82736
948.70        85.58965
949.09        86.42882
949.48        87.15515
949.87        87.61771
950.26        87.75645
950.65        87.66174
951.04        87.54487
951.43        87.47339
951.82        87.41702
952.21         87.2686
952.60        86.86992
952.99        86.20661
953.38        85.33408
953.77        84.49139
954.16        83.99799
954.55        83.90102
954.94        84.16693
955.33        84.42067
955.72        84.01415
956.11        82.85407
956.50        81.15158
956.89          79.578
957.28        79.36352
957.66        80.88824
958.05        83.48278
958.44        86.39054
958.83        88.49297
959.22        89.42522
959.61        89.44691
960.00        88.69959
960.39        87.42603
960.78        85.82481
961.16         83.9031
961.55        81.87981
961.94        80.23909
962.33        79.19734
962.72        78.71809
963.11        78.75057
963.49        79.13893
963.88        79.77174
964.27         80.7317
964.66        81.67398
965.04        81.90538
965.43        81.16253
965.82        79.70444
966.21         78.2523
966.60        77.77238
966.98        78.41122
967.37        79.85974
967.76        81.55558
968.15         82.3654
968.53        81.93573
968.92        80.63834
969.31        79.06244
969.69         77.9582
970.08        77.52718
970.47        77.58144
970.86        77.84533
971.24        77.85966
971.63         77.4756
972.02        76.81557
972.40        76.29429
972.79        76.59347
973.17        77.96774
973.56        80.09669
973.95        82.24322
974.33        83.03519
974.72        82.05467
975.11        79.79259
975.49        77.31528
975.88        76.04607
976.26        76.19325
976.65        77.47221
977.04        79.04713
977.42        78.93695
977.81        76.53711
978.19        72.69692
978.58        69.36678
978.96         68.4986
979.35         70.3587
979.74        74.53981
980.12        80.01958
980.51        83.33092
980.89         83.3895
981.28        81.15379
981.66        78.24132
982.05        76.72191
982.43        76.91486
982.82        78.01078
983.20        79.67237
983.59        81.53452
983.97        83.49996
984.35         85.8671
984.74        87.95196
985.12         88.4892
985.51        86.75378
985.89        82.90862
986.28        78.29604
986.66        75.13129
987.04        74.22933
987.43        75.02814
987.81        76.31547
988.20        76.54519
988.58         75.2778
988.96        72.44522
989.35        68.48712
989.73        66.57435
990.12        68.89532
990.50        74.06274
990.88        78.71451
991.27         80.3856
991.65        79.45236
992.03        76.73545
992.42        73.45104
992.80        71.57508
993.18        71.89964
993.56         73.2352
993.95        74.89198
994.33        76.61707
994.71        78.08314
995.10        79.70097
995.48        80.81393
995.86         80.1444
996.24        77.42791
996.63        72.55209
997.01         66.9649
997.39        64.94484
997.77        68.27393
998.15        75.82518
998.54        83.74509
998.92        86.80794
999.30        83.51627
999.68        75.23338
1000.06        64.19661
1000.45        55.99296
1000.83        53.10124
1001.21        53.78386
1001.59        56.51146
1001.97        59.66712
1002.35        62.78327
1002.73        66.92738
1003.12        71.06862
1003.50        71.59687
1003.88        67.19656
1004.26        59.66079
1004.64        52.59496
1005.02        49.09383
1005.40         49.3909
1005.78         53.3217
1006.16        61.84384
1006.54        71.81197
1006.92        77.30529
1007.30        78.40977
1007.69        77.60624
1008.07        77.16743
1008.45        77.44402
1008.83        78.02705
1009.21        77.24519
1009.59        64.53326
1009.97        9.201983
1010.35        -92.0535
1010.73        -97.0988
1011.11       -41.70475
1011.49        3.954899
1011.86        37.42217
1012.24         56.4866
1012.62        63.87716
1013.00         63.7925
1013.38        58.14182
1013.76        48.85837
1014.14         44.2526
1014.52        51.84429
1014.90        73.40435
1015.28        102.6052
1015.66        117.8985
1016.04        106.5281
1016.41          74.438
1016.79        40.38262
1017.17        23.29769
1017.55        21.90409
1017.93        26.16589
1018.31        31.88928
1018.69        37.71552
1019.06        44.00809
1019.44        52.13946
1019.82        63.70399
1020.20        77.17355
1020.58        88.79051
1020.95        93.17933
1021.33        71.15478
1021.71        510.1396
1022.09        159.0083
1022.46         143.006
1022.84         141.451
1023.22        150.2156
1023.60        180.8596
1023.97          493.42
1024.35       -38.30003
1024.73        20.08619
