SpectraSmart Spectrum 2.9.0.0
--------- Device Information -----------
Spectrum Name :  反射率_0
Saving Time :  2024/04/26 01:38:05
Spectro-Module Model Name : SE2030-DUVN
Spectro-Module Serial Number : OS361AC55029948
Wavelength Start : 200
Wavelength End : 1025
Wavelength Unit : Wavelength(nm)
Spectrum Unit : Reflectance(%)
-----------Spectrum Setting ------------
Integration Time : 20ms
Average : 10
Boxcar : 0
Background removal :  enabled
linearity correction :  enabled
SC :  disabled
Intensity correction :  disabled
DWT denoise :  enabled
savitzky-golay :  disabled
FFT :  disabled
Running average :  disabled
Kalman :  disabled
High pass :  disabled
---------------BEGIN--------------------
Wavelength(nm)             Reflectance(%)
200.29               0
200.75        100.7813
201.21        93.62228
201.67        84.91326
202.13        78.99818
202.58        76.51977
203.04        76.78908
203.50        78.23985
203.96        78.35873
204.42         76.7172
204.88        74.27322
205.34        72.49343
205.80         73.0019
206.26         76.6426
206.72        85.60367
207.18        103.0765
207.64         116.945
208.10        104.3661
208.55        82.22072
209.01        68.98688
209.47        65.38061
209.93         67.4675
210.39        73.27567
210.85        80.35419
211.31         83.1851
211.77        79.79446
212.23        72.38259
212.69        64.42433
213.14        61.25714
213.60        63.82066
214.06        70.61154
214.52        78.99648
214.98        84.96329
215.44        87.19268
215.90        86.81239
216.36        85.17041
216.81        83.94991
217.27        83.90762
217.73        84.39042
218.19        84.30402
218.65        82.16806
219.11        77.25626
219.57        68.71355
220.02         57.5011
220.48        50.31745
220.94        50.98082
221.40        58.12192
221.86        64.91052
222.32        63.97149
222.77        56.24353
223.23        46.04548
223.69        37.57003
224.15        35.09288
224.61        38.03539
225.06         44.1077
225.52        50.25629
225.98        52.74303
226.44        50.90826
226.90         46.4534
227.36        41.32325
227.81        38.08058
228.27         37.6113
228.73        38.77824
229.19        40.88778
229.65        42.92725
230.10        44.42227
230.56        45.68228
231.02        46.59039
231.48        46.96079
231.93        46.84915
232.39        46.28991
232.85        45.59814
233.31        45.35358
233.77        45.66051
234.22        46.39536
234.68        47.18284
235.14         47.2057
235.60        46.30813
236.05        44.88736
236.51        43.49042
236.97        42.80874
237.43        43.10916
237.88        44.40039
238.34        46.75493
238.80        50.07486
239.26        53.93815
239.71         58.2258
240.17        62.22853
240.63        65.46909
241.08        67.85116
241.54        69.17417
242.00        69.91068
242.46        71.02439
242.91        73.50775
243.37        78.91337
243.83        95.08858
244.28        146.7938
244.74        204.0715
245.20        171.3832
245.66        142.5043
246.11        135.9504
246.57         143.774
247.03        173.9448
247.48        266.6457
247.94        233.6701
248.40        138.1089
248.85        107.2201
249.31        97.51033
249.77        95.54414
250.22        97.52704
250.68        102.8214
251.14        111.0484
251.59        116.4278
252.05        113.3335
252.51        104.7068
252.96        95.10616
253.42        89.05193
253.88        86.12232
254.33        84.64661
254.79        85.21786
255.25        88.06715
255.70        92.07023
256.16        96.63543
256.62        99.57614
257.07        98.65059
257.53        94.84894
257.99        89.12675
258.44        83.23652
258.90         80.2303
259.35        79.24635
259.81        79.18413
260.27        78.49113
260.72         75.6831
261.18        71.41065
261.63        66.25394
262.09        61.33968
262.55        57.24248
263.00        54.06728
263.46        51.73203
263.91        49.83366
264.37        48.23438
264.83        46.68361
265.28        45.08434
265.74         43.6407
266.19        42.39057
266.65        41.49855
267.11        40.87375
267.56        40.26227
268.02        39.34517
268.47        38.02164
268.93        36.38506
269.38        34.69072
269.84        33.61254
270.30        33.30367
270.75        33.58829
271.21        34.00941
271.66        33.87458
272.12        33.02814
272.57        31.68459
273.03        30.28972
273.48        29.43423
273.94        29.26641
274.39        29.53372
274.85        29.88231
275.31        29.78307
275.76        29.12397
276.22        28.13395
276.67        27.07722
277.13        26.42549
277.58        26.21183
278.04        26.28481
278.49          26.383
278.95        26.20988
279.40        25.68315
279.86        24.98892
280.31        24.22663
280.77        23.65096
281.22        23.28206
281.68        23.05024
282.13        22.91482
282.59        22.85999
283.04        22.84856
283.50        22.92414
283.95        22.96634
284.41        22.80714
284.86        22.42689
285.32        21.88924
285.77        21.39839
286.22        21.32555
286.68        21.69705
287.13        22.36307
287.59        23.02497
288.04        23.22927
288.50        22.91896
288.95        22.23492
289.41         21.4686
289.86        20.94954
290.32        20.81794
290.77        20.95329
291.22        21.25541
291.68        21.53487
292.13        21.75212
292.59        21.98577
293.04        22.32498
293.50        22.90096
293.95        23.71798
294.40         24.6836
294.86         25.6933
295.31        26.60719
295.77        27.39806
296.22         28.1256
296.68        28.82008
297.13        29.49813
297.58        30.19964
298.04        30.92806
298.49        31.77599
298.95        32.93476
299.40         34.4108
299.85        36.14266
300.31        37.93438
300.76        39.46846
301.21        40.64975
301.67        41.60144
302.12        42.43159
302.58         43.3938
303.03        44.53101
303.48        45.78815
303.94        47.18263
304.39        48.68602
304.84        50.28479
305.30         51.9892
305.75        53.66165
306.20        55.10749
306.66        56.31114
307.11        57.27713
307.57        58.19344
308.02        59.24475
308.47        60.52162
308.93         61.9722
309.38        63.45721
309.83        64.80104
310.29        65.94328
310.74        66.90575
311.19        67.79446
311.65        68.77348
312.10        69.86876
312.55        71.04083
313.00        72.13029
313.46        72.88506
313.91        73.24382
314.36        73.30869
314.82        73.33251
315.27        73.65809
315.72        74.39223
316.18        75.43137
316.63        76.57104
317.08        77.43059
317.53        77.89756
317.99        78.07019
318.44        78.15996
318.89         78.5135
319.35        79.19656
319.80        80.12412
320.25        81.04096
320.70        81.53028
321.16        81.49947
321.61        81.09026
322.06         80.5921
322.51        80.45655
322.97        80.77398
323.42        81.44217
323.87         82.2169
324.32        82.67857
324.78        82.70074
325.23        82.45412
325.68        82.11995
326.13        82.01614
326.59        82.21753
327.04        82.64332
327.49        83.18708
327.94         83.7054
328.39         84.1329
328.85         84.4977
329.30        84.83425
329.75        85.04713
330.20        85.15132
330.66        85.15919
331.11        85.22329
331.56        85.52181
332.01         86.1147
332.46        86.94361
332.92        87.91029
333.37        88.98953
333.82        90.03838
334.27        91.05354
334.72        91.89881
335.17        92.36986
335.63        92.43938
336.08        92.20706
336.53        91.87071
336.98        91.80055
337.43        92.10503
337.88        92.69106
338.34        93.44562
338.79        94.25562
339.24        95.01468
339.69        95.78537
340.14        96.46265
340.59        96.85718
341.05        96.95316
341.50         96.7823
341.95        96.57772
342.40        96.72433
342.85        97.29465
343.30        98.17578
343.75         99.1343
344.20        99.74703
344.66        99.90246
345.11        99.72826
345.56        99.38722
346.01        99.12314
346.46        99.02994
346.91        99.03519
347.36        99.14253
347.81        99.36597
348.26        99.68781
348.72        100.1253
349.17         100.575
349.62        100.9049
350.07        101.0721
350.52        101.0988
350.97        101.0411
351.42        101.0014
351.87        101.0122
352.32         101.048
352.77        101.0834
353.22        101.0784
353.67        101.0209
354.13        100.9384
354.58        100.8273
355.03        100.7339
355.48        100.6586
355.93        100.5812
356.38        100.4494
356.83        100.1876
357.28        99.77876
357.73        99.24295
358.18        98.64228
358.63        98.07437
359.08        97.56898
359.53        97.11388
359.98        96.64784
360.43        96.06952
360.88        95.36127
361.33        94.55431
361.78        93.75202
362.23        93.11883
362.68        92.69321
363.13         92.4347
363.58        92.20551
364.03        91.78606
364.48        91.13062
364.93        90.30119
365.38        89.45892
365.83        88.85943
366.28        88.53455
366.73        88.42702
367.18        88.38196
367.63        87.99329
368.08        87.17051
368.53        86.67234
368.98         85.5099
369.43        84.70478
369.88        83.99163
370.33        83.34727
370.78        82.81338
371.23        82.48618
371.68        82.37266
372.13        82.43932
372.58        82.54531
373.03         82.4409
373.48        82.06929
373.93         81.5052
374.38        80.88432
374.83        80.42329
375.28        80.17184
375.72        80.03874
376.17        79.97508
376.62        79.87718
377.07        79.69328
377.52        79.44553
377.97        79.11015
378.42        78.64549
378.87        78.07575
379.32        77.45149
379.77        76.81776
380.22        76.23409
380.67        75.71523
381.11        75.23315
381.56        74.84486
382.01        74.64558
382.46        74.63743
382.91        74.80128
383.36        74.94068
383.81        74.74487
384.26        74.16832
384.71        73.30323
385.15        72.41061
385.60        71.94925
386.05        71.95412
386.50         72.2785
386.95        72.64223
387.40        72.57267
387.85        71.99666
388.29        71.10043
388.74        70.22421
389.19        69.57103
389.64        69.18487
390.09        68.93847
390.54        68.84675
390.98        68.94704
391.43        69.19643
391.88        69.55715
392.33        69.82398
392.78        69.65645
393.23        69.02464
393.67        68.21166
394.12          67.255
394.57        66.64913
395.02        66.44512
395.47        66.80645
395.91        67.60435
396.36        68.21356
396.81        68.49808
397.26        68.70049
397.71        68.76377
398.15         68.4515
398.60        67.88005
399.05        67.15858
399.50        66.44851
399.95         65.7548
400.39        65.44084
400.84        65.32127
401.29        65.40794
401.74        65.56049
402.18        65.69752
402.63        65.65696
403.08        65.54774
403.53        65.67775
403.97        66.05385
404.42        66.47747
404.87        66.77834
405.32         66.7049
405.76        66.20818
406.21         65.5505
406.66         64.8948
407.11        64.29347
407.55        63.94521
408.00        64.13377
408.45        64.75067
408.90        65.37194
409.34        65.69057
409.79        65.34875
410.24        64.57955
410.68        64.20653
411.13        64.32016
411.58        64.42472
412.03        64.49352
412.47        64.72335
412.92        65.04568
413.37        65.43088
413.81        65.74554
414.26        65.82575
414.71        65.63036
415.15        65.20339
415.60        64.70965
416.05        64.43678
416.49         64.4603
416.94        64.71716
417.39        65.01709
417.83        65.01523
418.28        64.65783
418.73        64.08264
419.17        63.52963
419.62        63.37585
420.07        63.65741
420.51        64.23089
420.96        64.89886
421.41        65.24508
421.85        65.13055
422.30        65.01518
422.74        64.88206
423.19        64.27435
423.64        63.46487
424.08        63.69441
424.53        64.81649
424.98        65.39877
425.42        65.29207
425.87        65.52875
426.31         66.0781
426.76        65.95016
427.21        65.41172
427.65        65.79683
428.10        66.97173
428.54        67.80064
428.99        68.19449
429.44        68.35874
429.88        68.32295
430.33        68.82954
430.77        69.36457
431.22        68.18844
431.66        65.84212
432.11        64.62282
432.56        64.82782
433.00        65.82463
433.45        67.44823
433.89        69.43413
434.34        70.30021
434.78        71.75728
435.23        67.87349
435.67        65.56271
436.12         68.5914
436.57        69.56841
437.01        69.63152
437.46         69.8664
437.90        70.48296
438.35        69.34255
438.79        70.26518
439.24        70.18861
439.68        69.94958
440.13        69.84866
440.57        69.99889
441.02        70.60706
441.46         71.4465
441.91         72.3905
442.35        73.05727
442.80        72.50105
443.24         71.1764
443.69        71.75787
444.13        73.83468
444.58         73.8409
445.02        72.00294
445.47        71.54884
445.91        72.46215
446.36        72.73114
446.80        72.31704
447.24        72.27974
447.69        72.62274
448.13        72.90343
448.58        73.10497
449.02        73.28529
449.47        73.42921
449.91        73.62728
450.36         73.8968
450.80        74.01308
451.25        73.88662
451.69         74.2775
452.13         73.7285
452.58        73.47775
453.02        73.19524
453.47         73.1198
453.91        73.25171
454.36        73.53936
454.80        73.91321
455.24         74.0347
455.69        73.84061
456.13         73.7683
456.58        73.87453
457.02        73.03535
457.46        72.33576
457.91        72.68315
458.35        73.68364
458.79        74.15366
459.24        73.94584
459.68        73.71328
460.13        73.48949
460.57         73.2913
461.01        73.29819
461.46        72.11219
461.90        72.04092
462.34        72.01558
462.79        71.98864
463.23        71.47425
463.68        72.51464
464.12        72.97636
464.56        73.39474
465.01        73.42044
465.45        72.97678
465.89        73.22326
466.34        72.88486
466.78        71.84116
467.22         70.3814
467.67        69.59661
468.11        71.08463
468.55         71.9057
468.99        72.14771
469.44        71.90735
469.88        71.37245
470.32        71.31615
470.77        71.67403
471.21        71.59417
471.65        71.05503
472.10        70.72404
472.54        70.66768
472.98        70.65291
473.42        70.67093
473.87        70.93536
474.31        71.28896
474.75        71.20667
475.20         70.7909
475.64         70.7748
476.08        71.18252
476.52         71.1946
476.97        70.73695
477.41        71.15158
477.85        71.26467
478.29        70.77358
478.74        71.46046
479.18        71.58769
479.62        70.41913
480.06        70.99565
480.50        71.39697
480.95        71.78576
481.39        71.67619
481.83        71.01007
482.27        70.84169
482.72        70.88523
483.16        69.39902
483.60        69.67915
484.04        71.11789
484.48        71.39107
484.93        71.02042
485.37        72.65154
485.81        73.78705
486.25        72.38114
486.69        98.17316
487.14        79.85787
487.58        49.49503
488.02        60.83422
488.46        69.30476
488.90        68.19427
489.34        69.63004
489.79        69.50543
490.23         71.1993
490.67        72.16436
491.11        71.10503
491.55        71.04014
491.99        71.60884
492.43        71.44252
492.88        70.68639
493.32        70.65604
493.76        70.85808
494.20        71.12785
494.64        71.20396
495.08        71.40396
495.52        71.71916
495.96        71.55041
496.41        70.98348
496.85        71.45452
497.29        72.60799
497.73        71.51017
498.17        69.16752
498.61        69.20611
499.05        71.67027
499.49        72.16072
499.93        72.19387
500.37        71.97616
500.82        71.39245
501.26        71.32783
501.70        71.59028
502.14        71.85134
502.58         71.9408
503.02        71.91747
503.46        71.76076
503.90        71.44587
504.34        71.10504
504.78        70.91061
505.22        70.90546
505.66        71.20275
506.10        71.70481
506.54        71.82262
506.98        71.41626
507.42        71.75316
507.86        71.35639
508.30        70.87856
508.74        71.34383
509.18        71.55845
509.62        71.81387
510.06        71.87711
510.50        71.73029
510.94        71.41544
511.38        71.07371
511.82        70.95827
512.26        71.11915
512.70        71.47688
513.14        71.88925
513.58        72.12454
514.02        72.11265
514.46        71.92051
514.90         71.6615
515.34        71.49804
515.78        71.46824
516.22        71.58138
516.66        71.75885
517.10        71.71481
517.54        71.41911
517.98        71.50343
518.42        71.21384
518.86         71.2919
519.30        71.51703
519.74        71.80116
520.18        72.00859
520.62         72.4589
521.06        72.25676
521.50        72.14841
521.93        71.95242
522.37        71.81109
522.81         71.7653
523.25         71.7865
523.69        71.86975
524.13        71.98564
524.57        72.11948
525.01        72.27886
525.45        72.43327
525.89        72.53065
526.32        72.55025
526.76        72.49754
527.20        72.39743
527.64        72.31822
528.08        72.29522
528.52        72.24339
528.96        72.11713
529.40        72.07735
529.83        72.14463
530.27         71.4883
530.71        71.59159
531.15        71.48489
531.59          71.612
532.03        71.85301
532.46        72.17919
532.90        72.52731
533.34        72.83478
533.78        73.10092
534.22        73.27396
534.66        73.28947
535.09        73.13444
535.53        72.86256
535.97        72.51833
536.41        72.19737
536.85        71.94566
537.28        71.75742
537.72        71.64496
538.16        71.63261
538.60        71.71303
539.04        71.81702
539.47        71.90574
539.91        72.11215
540.35        72.33874
540.79         72.2946
541.22        72.02677
541.66        71.90746
542.10        71.95747
542.54        71.96983
542.97        71.95277
543.41        72.03334
543.85        72.19603
544.29        72.42985
544.72        72.61779
545.16        72.59233
545.60        72.32124
546.04        71.89286
546.47        71.49207
546.91        71.34321
547.35        71.54034
547.79        72.19711
548.22        72.98646
548.66        73.25423
549.10        72.86845
549.53        72.01443
549.97        71.08466
550.41         70.6175
550.84        70.72121
551.28        71.37827
551.72        72.07424
552.15        72.49052
552.59        72.38528
553.03        72.54355
553.46        72.00976
553.90        71.88304
554.34         71.8895
554.77        72.01859
555.21        72.22919
555.65        72.01577
556.08        72.49747
556.52        71.90578
556.96        72.24938
557.39        72.05014
557.83        71.88635
558.27        71.85101
558.70        71.95871
559.14        72.12814
559.57        72.30927
560.01        72.51855
560.45        72.71275
560.88        72.86315
561.32        72.90379
561.75        72.71643
562.19        72.38445
562.63        71.77291
563.06        71.12916
563.50        71.27083
563.93        72.00889
564.37        72.32203
564.80        72.11003
565.24        71.97478
565.68        71.96648
566.11         71.9502
566.55        71.99323
566.98        72.02969
567.42        72.07905
567.85        72.33279
568.29        72.74653
568.72        72.75049
569.16        72.57674
569.60        72.90604
570.03        73.37833
570.47        73.39635
570.90        73.20491
571.34        71.28077
571.77        72.26886
572.21        72.59399
572.64        71.83089
573.08        70.88456
573.51        67.73157
573.95         70.4804
574.38        75.07498
574.82        73.17279
575.25        72.63849
575.69        70.04982
576.12        69.02444
576.56        68.28365
576.99        69.77055
577.42        73.29733
577.86        73.39905
578.29        72.54121
578.73        76.59937
579.16        70.41376
579.60        64.43488
580.03        67.13326
580.47        71.39524
580.90        73.06203
581.33        71.72569
581.77         70.6573
582.20        77.96696
582.64        77.89984
583.07        66.27534
583.51           64.87
583.94        63.66329
584.37        66.60723
584.81        70.26199
585.24        74.01116
585.68        75.51451
586.11        74.43829
586.54        69.31723
586.98        67.15902
587.41        67.52657
587.85        70.99841
588.28        73.84071
588.71        70.22953
589.15        67.88359
589.58        69.47613
590.01        70.10725
590.45        70.78094
590.88        71.66661
591.31        70.77383
591.75        70.25234
592.18        70.38015
592.61         72.1037
593.05        72.57192
593.48        75.42496
593.91        76.33945
594.35        70.17152
594.78        68.72775
595.21        68.10357
595.65        71.09743
596.08        73.96932
596.51        71.20252
596.94        69.24719
597.38         70.0032
597.81        72.91827
598.24        74.42255
598.68        73.09152
599.11         71.6559
599.54        74.73232
599.97         76.0239
600.41        71.08607
600.84        71.21965
601.27        72.54276
601.70        71.61569
602.14        71.46391
602.57        70.34986
603.00        70.73503
603.43        72.70272
603.87        74.30569
604.30        73.91653
604.73        71.70472
605.16        70.10695
605.60        71.10464
606.03        72.22314
606.46         73.1603
606.89        73.15981
607.32        70.71059
607.76         70.3103
608.19         72.8004
608.62         72.4108
609.05         70.9936
609.48        71.54396
609.92        71.37895
610.35         70.7754
610.78        72.97625
611.21        73.90508
611.64        70.35401
612.07        71.15508
612.50        71.75529
612.94        72.17347
613.37        71.23262
613.80        72.09331
614.23        72.05461
614.66        72.06012
615.09        72.34483
615.52        72.45788
615.96        72.46901
616.39        72.60401
616.82        71.65978
617.25        71.16523
617.68        71.86636
618.11        72.44014
618.54        72.88909
618.97        72.41072
619.40        71.41702
619.84        71.17133
620.27        72.19076
620.70        72.84374
621.13        73.13798
621.56        72.32925
621.99        71.69917
622.42        72.43578
622.85        74.34901
623.28         73.9201
623.71        73.02726
624.14        73.41557
624.57        72.91148
625.00        72.45003
625.43        72.96644
625.86         72.2504
626.29        72.14552
626.72        72.96223
627.15        72.50183
627.58           72.77
628.01        72.92479
628.44        73.16172
628.87        73.50058
629.30        73.33947
629.73        73.74805
630.16        73.92747
630.59        73.43378
631.02         73.0539
631.45        72.70808
631.88        72.38927
632.31        72.08978
632.74        72.55991
633.17        72.42005
633.60        72.60723
634.03        72.68347
634.46        72.74106
634.89        72.76867
635.32        72.71978
635.75        72.64263
636.18        72.63703
636.61         72.7065
637.04        72.75507
637.47        72.77771
637.89        72.84901
638.32        72.92996
638.75        72.96741
639.18        72.95132
639.61        72.90503
640.04        72.82763
640.47        72.71885
640.90         72.5919
641.33        72.44304
641.76        72.29082
642.18        72.27116
642.61        72.39423
643.04        72.46019
643.47        72.37609
643.90        72.93361
644.33        72.60561
644.76        72.62894
645.18        72.57885
645.61        72.51414
646.04        72.43655
646.47        72.32803
646.90        72.25137
647.33        72.26231
647.75        72.38598
648.18        72.62695
648.61        72.82653
649.04        72.77682
649.47        72.43211
649.89        71.67296
650.32        70.88122
650.75        70.81725
651.18        71.46754
651.61        72.23999
652.03        72.77865
652.46        72.80713
652.89        72.60924
653.32        72.00844
653.74        71.40104
654.17        72.27576
654.60        73.55412
655.03        70.93883
655.46        72.03017
655.88        76.46063
656.31        80.70387
656.74        183.1277
657.16        118.9796
657.59        41.98569
658.02        31.68964
658.45        54.35234
658.87        69.68386
659.30        72.62318
659.73         71.8821
660.15        69.54021
660.58        72.14923
661.01        73.99023
661.44        71.58346
661.86        70.79108
662.29        70.80267
662.72        71.60158
663.14        72.92242
663.57        72.86955
664.00        71.70778
664.42        71.49165
664.85        72.29221
665.27         72.7605
665.70        72.69305
666.13        72.53979
666.55        72.28745
666.98        71.79975
667.41        71.25764
667.83        71.02075
668.26        71.16409
668.69        71.54452
669.11        71.94186
669.54        72.35525
669.96        72.03548
670.39        71.62862
670.82        71.12687
671.24         70.8918
671.67        71.01972
672.09        71.33538
672.52        71.61787
672.94        72.07196
673.37        71.47575
673.80        71.44091
674.22        71.61326
674.65        71.65512
675.07        71.52921
675.50        71.28095
675.92        71.02643
676.35        70.98013
676.77        71.17916
677.20         71.4858
677.62        71.80587
678.05        71.99156
678.47        71.98695
678.90        71.84811
679.32        71.68839
679.75        71.52612
680.17        71.67359
680.60        71.90924
681.02        72.18287
681.45        72.00905
681.87        71.73253
682.30        71.20129
682.72        70.72359
683.15         70.5817
683.57        70.85822
684.00         71.3733
684.42        72.07101
684.85        72.47982
685.27        72.53428
685.70        72.34889
686.12        72.02712
686.54        71.78354
686.97         71.6741
687.39        71.64581
687.82        71.64587
688.24        71.66795
688.66         71.6814
689.09        71.63861
689.51        71.69938
689.94        71.78148
690.36         71.9223
690.78        72.10762
691.21        72.28296
691.63        72.32252
692.06        72.20674
692.48        72.16646
692.90        71.94903
693.33         71.8969
693.75        71.93778
694.17        72.05594
694.60        72.23141
695.02        72.38344
695.44        72.44796
695.87        72.70732
696.29        73.08752
696.71         72.7378
697.14        71.98051
697.56        72.47354
697.98        73.83253
698.41        74.16447
698.83        72.85204
699.25        72.23779
699.68        72.28433
700.10        72.12305
700.52        71.75026
700.94        72.18755
701.37        72.32437
701.79        72.70554
702.21        72.92686
702.64        73.09659
703.06        73.15775
703.48        73.03715
703.90        72.76337
704.33        72.34539
704.75        71.90914
705.17        71.75205
705.59        71.94221
706.01        72.28152
706.44         72.6108
706.86        73.29303
707.28        73.28244
707.70        73.39342
708.12        73.37147
708.55        73.27921
708.97        73.12461
709.39        72.90753
709.81        72.71345
710.23        72.66926
710.66        72.80212
711.08        73.11301
711.50        73.43907
711.92        73.52777
712.34        73.32723
712.76        72.89975
713.19        72.43089
713.61        72.25739
714.03        72.44261
714.45        72.88786
714.87        73.37327
715.29        73.54874
715.71        73.33704
716.13        72.85558
716.56         72.3084
716.98         72.0524
717.40        72.17304
717.82        72.55787
718.24        73.03921
718.66        73.33668
719.08        73.36461
719.50        73.20929
719.92        72.96915
720.34        72.81846
720.76        72.81255
721.19        72.77552
721.61        72.89606
722.03         72.9728
722.45        73.04747
722.87        73.13352
723.29        73.23342
723.71        73.33688
724.13        73.43536
724.55        73.52065
724.97          73.581
725.39         73.6064
725.81        73.59601
726.23         73.5563
726.65        73.50273
727.07        73.45643
727.49        73.43123
727.91        73.43478
728.33        73.46278
728.75        73.50594
729.17        73.55616
729.59        73.60242
730.01        73.67238
730.43        73.80001
730.85        73.98964
731.27        74.25887
731.69        74.50663
732.10        74.54902
732.52         74.3553
732.94        74.01962
733.36        73.73916
733.78        73.68637
734.20         73.9003
734.62        74.65128
735.04        75.63714
735.46        75.57022
735.88         74.7002
736.30        74.85013
736.72        75.98338
737.13        76.36204
737.55        75.76827
737.97        75.61827
738.39        75.94978
738.81        75.35233
739.23        74.23986
739.65        75.07851
740.06        77.35513
740.48        77.60289
740.90        75.92062
741.32        75.15672
741.74        75.57467
742.16        75.77158
742.57        75.80069
742.99        76.45878
743.41        77.51514
743.83         78.1357
744.25        78.17586
744.67        77.84959
745.08        77.40745
745.50        77.25166
745.92        77.50877
746.34        78.04153
746.75        78.64816
747.17        78.99319
747.59        79.00888
748.01        78.79649
748.42        78.58823
748.84        78.73232
749.26        79.30714
749.68        80.17321
750.09        81.07185
750.51        81.58234
750.93        81.61462
751.35        81.24257
751.76        80.68587
752.18        80.48484
752.60        80.64767
753.01        80.69039
753.43        80.61258
753.85        80.81551
754.27         81.3067
754.68        81.89367
755.10        82.43763
755.52        82.87479
755.93        83.12712
756.35         83.1335
756.77        83.05203
757.18         83.0069
757.60        83.04288
758.02        83.56565
758.43        84.17174
758.85        83.54762
759.26        81.73533
759.68        81.52134
760.10        82.62166
760.51        83.76419
760.93        83.62151
761.34        82.48695
761.76        82.21989
762.18        81.44621
762.59        80.98444
763.01        81.08031
763.42        81.78441
763.84        82.36963
764.26         82.7439
764.67        83.28027
765.09        83.76559
765.50        83.73994
765.92        83.17868
766.33        81.88993
766.75        80.41116
767.16        79.98782
767.58        80.77741
768.00        82.25018
768.41        84.02147
768.83        85.41993
769.24        85.87214
769.66        85.04967
770.07        83.51723
770.49        81.95815
770.90        80.83179
771.32        81.79099
771.73        84.08496
772.15        83.49351
772.56        80.49576
772.97        79.68815
773.39        81.05873
773.80        81.50469
774.22        80.86275
774.63        81.06152
775.05        81.96606
775.46        82.50606
775.88        82.51865
776.29        82.30527
776.70        81.99858
777.12        81.84921
777.53        81.94044
777.95        82.12529
778.36        82.27686
778.77         82.1813
779.19        81.84566
779.60        81.36443
780.02        80.91544
780.43        80.87215
780.84        81.35628
781.26        81.72647
781.67        81.98779
782.09        83.25845
782.50        84.91475
782.91        84.08857
783.33        81.47913
783.74        80.61404
784.15        81.66439
784.57        82.33129
784.98        82.30269
785.39        82.25415
785.81        82.11997
786.22        81.56534
786.63         80.9359
787.04        80.89851
787.46        81.51654
787.87        82.57147
788.28        83.70451
788.70        84.29024
789.11        84.16654
789.52        83.57774
789.93        82.81211
790.35        82.19721
790.76        81.89717
791.17        82.00401
791.58        82.37265
792.00        82.56553
792.41        82.48817
792.82        82.34704
793.23        82.33184
793.65        82.28873
794.06         82.3938
794.47         83.5464
794.88        84.99786
795.29        84.54951
795.71        82.33669
796.12        79.95658
796.53        78.93305
796.94        78.56512
797.35        79.19815
797.76        80.51388
798.18        81.90681
798.59         82.8177
799.00        82.88249
799.41        81.98542
799.82         80.6316
800.23        79.88993
800.64        79.98474
801.06        80.50935
801.47        81.25481
801.88         81.7597
802.29        81.85823
802.70        81.74442
803.11        81.50787
803.52        81.26095
803.93        81.07255
804.34        80.85825
804.75        80.71265
805.17        80.84399
805.58        81.30199
805.99        81.89186
806.40        82.36599
806.81        82.65712
807.22         82.5033
807.63        81.22553
808.04         79.3872
808.45        78.55678
808.86        78.93382
809.27        79.84182
809.68         80.8606
810.09        81.44751
810.50        81.36529
810.91        80.79953
811.32        80.05393
811.73        79.60394
812.14        79.58577
812.55         79.8462
812.96        80.29155
813.37        80.64822
813.78        80.86903
814.19        81.29816
814.60         81.7131
815.01        81.54961
815.42        80.78033
815.83        79.59395
816.24        78.45034
816.65        78.09972
817.05        78.77192
817.46        80.22269
817.87        81.84892
818.28        82.55781
818.69        82.05418
819.10         80.6117
819.51          78.911
819.92         78.1123
820.33        78.51973
820.74        79.77606
821.14        81.25086
821.55        81.81908
821.96        81.23821
822.37        79.91103
822.78        78.39376
823.19        77.49569
823.60        77.43943
824.00        78.01191
824.41        78.85763
824.82        79.49832
825.23        79.71101
825.64        79.67279
826.04        79.49711
826.45         79.3386
826.86        79.24922
827.27        79.12196
827.68        78.98024
828.08        78.92783
828.49        78.91743
828.90        79.01597
829.31         79.0954
829.72        78.90443
830.12        78.43649
830.53        77.76102
830.94        77.17567
831.35        77.08082
831.75        77.58317
832.16         78.5061
832.57        79.59435
832.97         80.3097
833.38        80.40392
833.79         80.0371
834.20        79.48986
834.60         79.1924
835.01        79.28336
835.42        79.61404
835.82        79.99938
836.23        80.05136
836.64        79.71259
837.04        79.13988
837.45        78.53502
837.86        78.21042
838.26        78.25636
838.67        78.52988
839.08        78.91901
839.48        79.21606
839.89        79.30862
840.29        79.28587
840.70        79.15635
841.11        78.90995
841.51        78.57876
841.92        78.13297
842.33        77.71381
842.73        77.57404
843.14        77.71967
843.54        78.12032
843.95        78.52686
844.35        78.58478
844.76        78.20379
845.17        77.52793
845.57        76.78022
845.98        76.30607
846.38        76.19934
846.79        76.33211
847.19        76.63712
847.60        76.89828
848.00        77.06941
848.41        77.18641
848.81        77.27485
849.22        77.29605
849.62        77.30938
850.03        77.30975
850.43        77.38036
850.84         77.5948
851.24        78.00387
851.65        78.39077
852.05        78.85621
852.46        79.38081
852.86        79.93058
853.27        80.54798
853.67        80.74717
854.07         79.9054
854.48        78.08814
854.88        75.53798
855.29        73.14028
855.69          72.174
856.10        72.88196
856.50        75.10385
856.90        78.04086
857.31        79.82296
857.71        79.83101
858.12        78.51653
858.52        76.72742
858.92        75.59807
859.33        75.38264
859.73        75.76915
860.13        76.53078
860.54        77.20613
860.94         77.6663
861.34        78.04617
861.75        78.36862
862.15        78.73901
862.55        79.13986
862.96        79.47237
863.36        79.74786
863.76        79.97025
864.17        80.14294
864.57        80.35174
864.97        80.56335
865.38        80.71054
865.78        80.83881
866.18          80.868
866.58         80.9623
866.99        81.39181
867.39        82.24184
867.79        83.46555
868.19         84.5629
868.60         84.6013
869.00        83.39515
869.40        81.24268
869.80         79.1075
870.21        78.50011
870.61        79.86231
871.01        82.73992
871.41        86.16647
871.81        88.46203
872.22        89.10261
872.62        88.55796
873.02        87.53654
873.42        87.29709
873.82        88.02613
874.22        89.10024
874.63        90.18546
875.03        90.66759
875.43        90.21297
875.83        89.72225
876.23        88.39902
876.63        87.91925
877.03         88.3119
877.44        89.77864
877.84        102.2723
878.24        95.50027
878.64         95.2366
879.04        94.36797
879.44        90.91843
879.84        89.32759
880.24        92.56023
880.64        94.68038
881.04        96.24679
881.44        96.94902
881.84        95.97733
882.24        93.81915
882.65        91.69603
883.05        90.87576
883.45        91.57161
883.85        93.62563
884.25        96.28472
884.65        97.96819
885.05        98.13774
885.45        97.30321
885.85        96.15646
886.25        95.65916
886.65        96.02894
887.05         96.8949
887.45        97.93133
887.85        98.59003
888.25        98.65587
888.65        98.38265
889.04        97.83669
889.44        97.13216
889.84        96.36304
890.24        95.49348
890.64        94.78154
891.04        94.63336
891.44        95.09175
891.84        96.06899
892.24        97.18142
892.64        97.69857
893.04        97.47152
893.44        96.78913
893.83        96.05148
894.23        95.87416
894.63        96.36687
895.03        97.25285
895.43        98.44595
895.83        99.76649
896.23        101.0246
896.63        102.2823
897.02        103.0665
897.42        102.6185
897.82         100.933
898.22         98.3226
898.62        95.72682
899.01        94.52058
899.41        94.98267
899.81        96.64616
900.21         98.7536
900.61        100.0563
901.00        100.1718
901.40        99.47898
901.80         98.4027
902.20        97.60625
902.59        97.30967
902.99        97.29794
903.39        97.38106
903.79        97.26092
904.18        96.88093
904.58        96.44973
904.98        96.20045
905.38        96.45428
905.77        97.20787
906.17        98.24693
906.57        99.31909
906.96         100.129
907.36        100.5166
907.76        100.5892
908.15        100.3119
908.55        99.52582
908.95         98.3326
909.34        96.77586
909.74         95.2688
910.14        94.27182
910.53        93.93425
910.93        94.21819
911.33        94.90176
911.72        95.55154
912.12        95.92295
912.52        96.06075
912.91        96.14784
913.31        96.45534
913.70        97.07758
914.10        97.93588
914.49        98.69122
914.89        98.46648
915.29        97.09988
915.68        94.95523
916.08        93.05293
916.47        92.28392
916.87        92.72842
917.26        94.09618
917.66         95.6483
918.05        96.20088
918.45        95.46013
918.84         93.8699
919.24         92.2039
919.64        91.57961
920.03        92.28866
920.42        93.94041
920.82        96.00832
921.21        97.71444
921.61        98.55375
922.00        98.78545
922.40         98.4524
922.79        97.60432
923.19         96.3979
923.58        94.77563
923.98        92.95631
924.37        91.73676
924.77          91.611
925.16        90.72757
925.55        92.15382
925.95        93.32548
926.34        95.00833
926.74        96.88115
927.13         98.5793
927.52        99.24808
927.92        98.82093
928.31        97.55294
928.70        95.82268
929.10        94.31822
929.49        93.23898
929.89        92.45406
930.28        92.17111
930.67        92.71723
931.07        93.95129
931.46         95.8438
931.85        97.62691
932.24        98.14928
932.64         97.2109
933.03        94.99589
933.42        92.14029
933.82        90.13046
934.21        89.42419
934.60        89.67131
934.99         90.2684
935.39        90.54369
935.78        90.38704
936.17        89.74123
936.56        88.45339
936.96         88.9033
937.35        87.85055
937.74        87.92233
938.13        88.15011
938.53        88.83216
938.92        89.98821
939.31        91.71113
939.70        93.52411
940.09        94.05441
940.49        92.92258
940.88        90.71694
941.27        88.51793
941.66        87.61546
942.05        88.16005
942.44        89.72125
942.84        91.77176
943.23        93.44993
943.62        94.29042
944.01        94.50468
944.40         94.2305
944.79        93.68423
945.18        92.94695
945.57        91.87992
945.97        90.48412
946.36        89.02712
946.75        87.86703
947.14        87.16741
947.53        86.94052
947.92        87.08112
948.31        87.51508
948.70        88.25897
949.09         89.2154
949.48        90.08022
949.87        90.65045
950.26        90.91041
950.65        90.93704
951.04         90.9325
951.43        90.95839
951.82        90.92918
952.21        90.80178
952.60         90.5448
952.99        90.14068
953.38        89.61134
953.77        89.00762
954.16         88.3551
954.55        87.68634
954.94        87.09246
955.33        86.46701
955.72        85.61431
956.11        84.56238
956.50         83.3779
956.89        82.55808
957.28        82.97166
957.66        84.83654
958.05        87.60968
958.44        90.47536
958.83        92.23594
959.22        92.57068
959.61        91.72585
960.00        90.18657
960.39        88.78502
960.78        87.81991
961.16        87.15074
961.55        86.47092
961.94        85.30046
962.33        83.63982
962.72         81.8232
963.11        80.35635
963.49        79.83088
963.88        80.29434
964.27        81.57969
964.66        83.19835
965.04        84.10627
965.43        83.81204
965.82        82.71236
966.21        81.40071
966.60        80.65868
966.98        80.66408
967.37        81.11234
967.76        81.81172
968.15        82.38078
968.53        82.62226
968.92        82.61298
969.31        82.41613
969.69        82.05482
970.08        81.58483
970.47        81.04057
970.86        80.39333
971.24        79.62713
971.63        78.80662
972.02        77.98401
972.40        77.53194
972.79        78.05201
973.17        79.74152
973.56        82.25851
973.95        84.95922
974.33        86.56731
974.72        86.54149
975.11        85.22995
975.49        83.27721
975.88        81.60156
976.26        80.35289
976.65        79.29506
977.04        78.11331
977.42        76.29233
977.81        73.95538
978.19        71.57014
978.58        70.19368
978.96        70.66449
979.35        73.03857
979.74        77.16893
980.12        82.35806
980.51        85.81937
980.89         86.6306
981.28        85.34685
981.66        83.13554
982.05        81.58025
982.43        81.02429
982.82         81.0121
983.20        81.49207
983.59        82.47436
983.97        83.97391
984.35        86.11861
984.74        88.38342
985.12        89.80198
985.51        89.61729
985.89        87.91763
986.28        85.20095
986.66        82.31499
987.04        80.01305
987.43        78.40485
987.81        77.30299
988.20        76.33685
988.58         75.2625
988.96        73.81905
989.35        72.64819
989.73        74.07751
990.12        78.65733
990.50        84.88083
990.88        89.14787
991.27         89.0855
991.65        85.31781
992.03        78.60012
992.42        71.43786
992.80        68.52263
993.18        71.04485
993.56         76.4375
993.95        82.19413
994.33        85.98457
994.71        87.32977
995.10        87.40981
995.48        86.32613
995.86        83.96735
996.24         80.4463
996.63        75.27802
997.01        69.74877
997.39        67.77682
997.77        70.97363
998.15        78.51118
998.54        86.59312
998.92        89.94893
999.30        87.08727
999.68         79.2795
1000.06        68.78306
1000.45        61.24319
1000.83        59.05114
1001.21        60.38334
1001.59        63.59106
1001.97        66.97495
1002.35        70.08324
1002.73        73.95673
1003.12        77.64763
1003.50        77.96285
1003.88        73.72251
1004.26        66.58587
1004.64        59.78897
1005.02        55.99657
1005.40        55.29659
1005.78        57.36002
1006.16        63.17752
1006.54        71.32679
1006.92        77.24556
1007.30        80.01939
1007.69        80.83127
1008.07        81.32484
1008.45        82.02499
1008.83        82.67871
1009.21        82.06303
1009.59        72.71866
1009.97        32.92376
1010.35       -38.61077
1010.73       -42.17335
1011.11       -4.496549
1011.49        26.44898
1011.86        49.53623
1012.24         63.1692
1012.62        69.65618
1013.00        72.03888
1013.38        71.96626
1013.76        71.22098
1014.14        74.80569
1014.52        86.46526
1014.90        106.3206
1015.28        128.9317
1015.66        140.0745
1016.04        130.9671
1016.41        104.7767
1016.79        74.48198
1017.17        53.93292
1017.55        45.28028
1017.93        42.69841
1018.31        43.48056
1018.69         46.7995
1019.06         52.5395
1019.44        61.53699
1019.82        75.56714
1020.20        93.00288
1020.58        110.2229
1020.95        123.8214
1021.33        125.0566
1021.71        145.5586
1022.09        125.3104
1022.46         125.429
1022.84        127.3684
1023.22          133.86
1023.60        152.9192
1023.97        338.8487
1024.35        26.41631
1024.73        65.57021
