SpectraSmart Spectrum 2.9.0.0
--------- Device Information -----------
Spectrum Name :  反射率_0
Saving Time :  2024/04/26 01:25:34
Spectro-Module Model Name : SE2030-DUVN
Spectro-Module Serial Number : OS361AC55029948
Wavelength Start : 200
Wavelength End : 1025
Wavelength Unit : Wavelength(nm)
Spectrum Unit : Reflectance(%)
-----------Spectrum Setting ------------
Integration Time : 20ms
Average : 10
Boxcar : 0
Background removal :  enabled
linearity correction :  enabled
SC :  disabled
Intensity correction :  disabled
DWT denoise :  enabled
savitzky-golay :  disabled
FFT :  disabled
Running average :  disabled
Kalman :  disabled
High pass :  disabled
---------------BEGIN--------------------
Wavelength(nm)             Reflectance(%)
200.29               0
200.75        89.97858
201.21        81.82948
201.67        72.21835
202.13        66.16326
202.58         64.4025
203.04        65.82329
203.50        69.15765
203.96        72.15395
204.42        73.80302
204.88        74.63224
205.34         75.3975
205.80        77.18978
206.26        80.86338
206.72        88.10029
207.18        100.7234
207.64        108.3251
208.10        95.05724
208.55        76.29796
209.01        65.55601
209.47        62.12186
209.93        62.71059
210.39        66.15897
210.85        70.36581
211.31        70.87271
211.77        66.46425
212.23        58.86448
212.69        51.72232
213.14         50.7723
213.60        56.76073
214.06        67.86328
214.52        80.25272
214.98        88.12588
215.44        89.78809
215.90        87.00381
216.36        81.91322
216.81        77.41602
217.27        74.80426
217.73        73.30003
218.19        71.62252
218.65         67.8867
219.11         61.1083
219.57        50.36364
220.02        37.00217
220.48        29.29844
220.94        31.86522
221.40        42.72744
221.86        53.14332
222.32        53.97644
222.77        46.37728
223.23        35.31303
223.69        26.13287
224.15        24.31096
224.61        29.15177
225.06        37.80893
225.52        46.33646
225.98         49.6872
226.44        47.01437
226.90        40.59101
227.36        33.16596
227.81        28.41931
228.27          27.499
228.73        28.92619
229.19        31.60821
229.65        33.94889
230.10        35.34638
230.56        36.30236
231.02        36.92339
231.48        37.23632
231.93        37.31376
232.39        37.08274
232.85        36.66343
233.31        36.34576
233.77        36.18136
234.22        36.09613
234.68        36.02633
235.14        35.74733
235.60        35.23331
236.05         34.6524
236.51        34.07822
236.97        33.50418
237.43        32.99063
237.88        32.62302
238.34        32.64964
238.80        33.66453
239.26        35.84547
239.71        38.95675
240.17        42.56312
240.63        46.34708
241.08         50.0354
241.54         53.4005
242.00        56.04106
242.46        57.67358
242.91        58.48154
243.37        57.94071
243.83        56.41296
244.28        64.03591
244.74        97.21608
245.20        109.6629
245.66         106.032
246.11          103.91
246.57        103.7989
247.03        105.2715
247.48        104.1552
247.94        81.70451
248.40         77.2478
248.85        78.28703
249.31        80.26015
249.77        83.08141
250.22        87.25188
250.68        93.85909
251.14        102.4711
251.59        106.3177
252.05        99.76751
252.51        86.62624
252.96          73.611
253.42        66.57034
253.88        64.70944
254.33        65.89317
254.79        69.38582
255.25         73.4958
255.70        77.04028
256.16        80.32352
256.62        81.94413
257.07        80.44477
257.53        76.66938
257.99        71.12694
258.44        65.57993
258.90        62.96703
259.35        62.44064
259.81        62.88604
260.27         62.4416
260.72        59.31128
261.18        54.22986
261.63        48.06925
262.09        42.45002
262.55        38.63748
263.00        36.60632
263.46        35.77879
263.91        35.22371
264.37        34.13448
264.83         32.3586
265.28        30.10704
265.74        28.02581
266.19        26.87982
266.65        26.81586
267.11        27.36193
267.56        27.89772
268.02        27.68127
268.47        26.60892
268.93        24.93735
269.38        23.01833
269.84        21.67982
270.30        21.16323
270.75        21.25985
271.21        21.57278
271.66        21.51237
272.12        20.92286
272.57        20.00612
273.03         19.1122
273.48        18.68485
273.94        18.81906
274.39        19.30091
274.85        19.79756
275.31        19.84268
275.76        19.34059
276.22         18.4775
276.67        17.53069
277.13        16.96854
277.58        16.84099
278.04        17.00819
278.49        17.19063
278.95        17.03047
279.40        16.46258
279.86        15.67584
280.31        14.87151
280.77          14.431
281.22        14.38675
281.68        14.60158
282.13        14.89785
282.59        15.04462
283.04        14.98747
283.50        14.83336
283.95        14.61769
284.41          14.395
284.86        14.19651
285.32        14.00429
285.77        13.89124
286.22        14.02167
286.68        14.37908
287.13        14.89258
287.59         15.3763
288.04        15.55451
288.50         15.3982
288.95        14.99181
289.41         14.5209
289.86        14.17791
290.32        14.06976
290.77        14.13118
291.22        14.34385
291.68        14.64199
292.13        15.01078
292.59        15.47605
293.04         16.0515
293.50        16.74693
293.95        17.54337
294.40        18.39972
294.86        19.26656
295.31         20.0904
295.77        20.86942
296.22        21.63037
296.68        22.40347
297.13        23.20446
297.58        24.06192
298.04        24.98664
298.49        26.01852
298.95        27.25942
299.40        28.71242
299.85        30.34515
300.31        32.05452
300.76         33.6751
301.21        35.13457
301.67          36.491
302.12        37.76085
302.58        39.05584
303.03        40.38807
303.48         41.7428
303.94        43.17629
304.39        44.72508
304.84        46.39243
305.30        48.15997
305.75        49.88603
306.20        51.36943
306.66        52.59031
307.11        53.56934
307.57        54.47461
308.02        55.46329
308.47        56.62251
308.93        57.90294
309.38        59.21226
309.83        60.44697
310.29        61.55612
310.74        62.54298
311.19        63.43776
311.65          64.288
312.10        65.09869
312.55        65.86182
313.00        66.51523
313.46        66.96829
313.91        67.20252
314.36        67.27921
314.82        67.34145
315.27        67.56413
315.72        68.01627
316.18        68.64523
316.63        69.35887
317.08        69.96507
317.53        70.39241
317.99         70.6703
318.44        70.88654
318.89        71.19299
319.35        71.60906
319.80        72.11465
320.25        72.55222
320.70        72.67152
321.16        72.44016
321.61        71.95038
322.06        71.44668
322.51         71.3085
322.97        71.59568
323.42        72.22123
323.87        72.93603
324.32        73.30972
324.78        73.21355
325.23        72.80561
325.68        72.27361
326.13        71.94973
326.59        71.92259
327.04        72.11989
327.49        72.44446
327.94        72.75775
328.39         73.0026
328.85        73.21246
329.30        73.44035
329.75        73.63822
330.20        73.81766
330.66        73.96506
331.11        74.16235
331.56        74.48436
332.01        74.95932
332.46        75.55119
332.92         76.2108
333.37        76.98535
333.82        77.78306
334.27        78.58973
334.72        79.27304
335.17        79.62732
335.63        79.61924
336.08        79.34633
336.53        78.99581
336.98        78.90656
337.43        79.17482
337.88        79.71391
338.34        80.39069
338.79         81.0575
339.24        81.60917
339.69        82.10681
340.14        82.52263
340.59        82.80209
341.05        82.95166
341.50        82.96992
341.95        82.96406
342.40        83.12334
342.85         83.4912
343.30         84.0232
343.75        84.61452
344.20        85.06952
344.66        85.32683
345.11        85.41164
345.56         85.3942
346.01        85.38192
346.46         85.4156
346.91        85.47723
347.36        85.52387
347.81        85.49219
348.26        85.38615
348.72        85.25783
349.17        85.17741
349.62        85.30799
350.07        85.66516
350.52         86.1749
350.97        86.70072
351.42        87.04156
351.87        87.14629
352.32        87.07413
352.77        86.89204
353.22        86.71285
353.67        86.58001
354.13        86.47272
354.58        86.37038
355.03        86.29403
355.48        86.23737
355.93        86.20434
356.38         86.1543
356.83        86.01659
357.28        85.77027
357.73        85.42194
358.18        85.01302
358.63        84.61407
359.08        84.24728
359.53        83.90855
359.98        83.54764
360.43         83.0819
360.88        82.50354
361.33        81.84086
361.78        81.19955
362.23        80.74812
362.68        80.51577
363.13        80.44621
363.58         80.3935
364.03        80.12817
364.48        79.59768
364.93        78.87023
365.38         78.0784
365.83        77.43996
366.28        77.01189
366.73        76.72294
367.18        76.48191
367.63        76.14156
368.08        75.66997
368.53        75.14201
368.98        74.60598
369.43        74.12045
369.88        73.70631
370.33         73.3294
370.78        73.01131
371.23        72.79948
371.68        72.68459
372.13        72.64289
372.58        72.59293
373.03        72.39535
373.48        72.02763
373.93        71.55322
374.38         71.0411
374.83        70.59281
375.28        70.24451
375.72         69.9521
376.17         69.7603
376.62        69.71059
377.07         69.7804
377.52        69.93143
377.97        70.04333
378.42        69.92599
378.87        69.54675
379.32        68.98189
379.77        68.32504
380.22        67.71061
380.67        67.18011
381.11        66.69885
381.56        66.28421
382.01        65.96855
382.46        65.75874
382.91        65.67103
383.36        65.62129
383.81        65.46766
384.26        65.18031
384.71        64.77548
385.15         64.3625
385.60        64.17469
386.05        64.20181
386.50        64.36439
386.95        64.47242
387.40        64.21656
387.85         63.5834
388.29          62.715
388.74        61.90529
389.19        61.32648
389.64        61.00826
390.09        60.84505
390.54        60.83959
390.98        60.99329
391.43        61.26118
391.88        61.61766
392.33        61.87134
392.78        61.71262
393.23        61.14517
393.67        60.34401
394.12        59.62801
394.57        59.10593
395.02        58.92052
395.47        59.31644
395.91        60.14408
396.36        60.71193
396.81        60.87581
397.26        60.89468
397.71        60.81664
398.15         60.5428
398.60        60.17828
399.05         59.8444
399.50        59.52409
399.95        58.83036
400.39        58.14725
400.84        57.75436
401.29        57.73515
401.74        57.77494
402.18        57.81964
402.63        57.83235
403.08         57.8854
403.53         58.1661
403.97        58.65575
404.42        59.18101
404.87        59.55593
405.32         59.5432
405.76        59.09999
406.21        58.38422
406.66        57.61076
407.11        57.10917
407.55        57.00159
408.00        57.11154
408.45        57.35965
408.90          57.848
409.34        58.29578
409.79        57.96905
410.24        57.11076
410.68        56.75975
411.13        57.00321
411.58        57.25922
412.03        57.46468
412.47         57.7763
412.92        58.10692
413.37        58.43123
413.81        58.65408
414.26        58.66703
414.71        58.44668
415.15        58.03135
415.60        57.55052
416.05        57.23112
416.49         57.1422
416.94        57.24691
417.39        57.41664
417.83        57.41212
418.28        57.19057
418.73        56.83152
419.17        56.50497
419.62        56.48421
420.07        56.79132
420.51        57.32708
420.96        57.88945
421.41        58.11541
421.85        57.89986
422.30        57.52738
422.74        57.11374
423.19         56.7102
423.64        56.44911
424.08        56.77764
424.53        57.51418
424.98        57.92649
425.42        57.90774
425.87        57.88136
426.31        57.94282
426.76        57.92997
427.21         57.9682
427.65        58.36245
428.10        59.00924
428.54        59.64452
428.99        60.21141
429.44        60.44773
429.88        60.37152
430.33          60.861
430.77        61.44008
431.22        60.41522
431.66        58.28712
432.11        57.21872
432.56        57.45057
433.00        58.27716
433.45        59.49289
433.89        60.98642
434.34        61.70535
434.78        62.71823
435.23        59.94184
435.67         58.6876
436.12        59.91737
436.57        60.76047
437.01        61.44955
437.46         61.8032
437.90        61.97133
438.35        61.55821
438.79        62.32736
439.24        62.36192
439.68        62.20884
440.13         61.8075
440.57         61.5027
441.02        62.25742
441.46        63.69691
441.91        64.45554
442.35        64.31108
442.80        63.49471
443.24        62.42867
443.69        62.97829
444.13        64.76059
444.58        64.78848
445.02          63.251
445.47        62.97935
445.91        63.93111
446.36        64.24766
446.80         63.8758
447.24        63.80935
447.69        64.03899
448.13        64.27053
448.58        64.48767
449.02        64.73852
449.47        64.98797
449.91        65.19347
450.36        65.34389
450.80        65.42757
451.25        65.45575
451.69        65.42102
452.13        65.35139
452.58        65.25912
453.02        65.18265
453.47        65.21677
453.91        65.35246
454.36        65.55885
454.80        65.77552
455.24        65.79823
455.69        65.60214
456.13        65.43522
456.58        65.34985
457.02         64.8464
457.46        64.21696
457.91        64.50468
458.35        65.45728
458.79        65.79688
459.24        65.47472
459.68        65.11352
460.13        64.80442
460.57         64.5666
461.01        64.52961
461.46        64.03814
461.90        63.64289
462.34        64.46503
462.79         64.1532
463.23        64.43562
463.68        64.87682
464.12        65.10986
464.56        65.18856
465.01        65.07838
465.45        64.78148
465.89        64.70753
466.34        64.69622
466.78        63.81155
467.22        62.59452
467.67        61.91894
468.11        63.49755
468.55        64.13036
468.99        64.05389
469.44        63.74036
469.88        63.39521
470.32        63.51314
470.77        63.99589
471.21        64.09824
471.65        63.76794
472.10         63.5921
472.54        63.63475
472.98           63.67
473.42         63.6841
473.87        63.93975
474.31        64.26929
474.75        64.00887
475.20        63.36032
475.64        63.31081
476.08        63.79618
476.52        63.91679
476.97        63.65509
477.41        63.51236
477.85           63.56
478.29         63.7156
478.74        64.17569
479.18        64.29368
479.62        63.59229
480.06        64.15614
480.50        64.42484
480.95        64.73418
481.39        64.73957
481.83        63.64896
482.27        63.83908
482.72        63.73745
483.16        62.45667
483.60        62.77234
484.04        64.22174
484.48        64.66238
484.93        64.43074
485.37        66.06922
485.81        66.35326
486.25        65.01994
486.69        88.11983
487.14        71.46879
487.58        44.56378
488.02        55.37115
488.46        62.18543
488.90        62.38012
489.34        63.60124
489.79         62.7056
490.23        64.89076
490.67        65.70646
491.11        64.84314
491.55        64.80265
491.99        65.24768
492.43        65.13932
492.88        64.57093
493.32        64.67239
493.76        64.93208
494.20        65.21498
494.64        65.28697
495.08        65.29505
495.52        65.35403
495.96        65.43589
496.41        65.48702
496.85        66.04469
497.29        66.80991
497.73        65.72532
498.17        63.76544
498.61        64.00928
499.05        66.44122
499.49         66.9629
499.93        66.98062
500.37        66.69114
500.82        66.06954
501.26        66.19707
501.70        66.79822
502.14        67.07982
502.58        66.83139
503.02        66.65802
503.46        66.55002
503.90        66.08817
504.34        65.59364
504.78        65.37608
505.22        65.54114
505.66          65.964
506.10        66.45987
506.54        66.71084
506.98        66.62805
507.42        66.31862
507.86        65.95168
508.30        65.78403
508.74        65.88084
509.18         66.1546
509.62        66.48838
510.06        66.69664
510.50        66.72614
510.94        66.64677
511.38        66.53065
511.82        66.48244
512.26        66.53328
512.70        66.63814
513.14        66.76578
513.58        66.87434
514.02         66.9391
514.46        66.97186
514.90         66.9716
515.34        66.91596
515.78        66.79836
516.22        66.69801
516.66        66.63313
517.10        66.44398
517.54        66.14139
517.98        66.41532
518.42        66.30145
518.86        66.50017
519.30        66.70655
519.74        66.98838
520.18        67.27107
520.62        67.42439
521.06        67.43273
521.50        67.32922
521.93        67.16869
522.37        67.04504
522.81        66.99636
523.25        66.99718
523.69         67.0499
524.13        67.15662
524.57        67.30531
525.01        67.49355
525.45        67.67595
525.89        67.77694
526.32        67.77125
526.76        67.67493
527.20        67.52551
527.64        67.40826
528.08        67.36311
528.52        67.30486
528.96        67.18694
529.40        67.14932
529.83        67.20724
530.27        66.59441
530.71        66.68369
531.15        66.54874
531.59        66.60081
532.03        66.74249
532.46        66.95081
532.90        67.17145
533.34        67.35969
533.78        67.52563
534.22        67.64104
534.66        67.67354
535.09        67.61041
535.53        67.48197
535.97        67.31303
536.41        67.16644
536.85        67.06785
537.28          67.014
537.72        66.98638
538.16        66.96422
538.60         66.9414
539.04        66.86974
539.47         66.7726
539.91        66.87414
540.35        67.10561
540.79        67.15193
541.22        66.99753
541.66        67.00372
542.10        66.98828
542.54         66.9287
542.97        66.82604
543.41        66.87431
543.85        67.07895
544.29        67.41144
544.72        67.71914
545.16        67.78951
545.60        67.57752
546.04         67.1375
546.47        66.70082
546.91        66.65399
547.35        67.04543
547.79         67.7739
548.22        68.50307
548.66        68.66974
549.10        68.20273
549.53        67.38766
549.97        66.58453
550.41        66.17905
550.84        66.27112
551.28        66.82472
551.72        67.63533
552.15        68.03148
552.59        67.98679
553.03        68.33692
553.46        67.84529
553.90        67.75297
554.34        67.69819
554.77        67.68125
555.21        67.74052
555.65        67.51612
556.08        68.21786
556.52        67.80421
556.96        68.17465
557.39        68.05518
557.83        67.95745
558.27        67.81751
558.70        67.71996
559.14         67.7921
559.57        68.02014
560.01        68.39803
560.45        68.77549
560.88        68.91174
561.32         68.7896
561.75         68.4317
562.19        68.01335
562.63         67.7061
563.06        67.57478
563.50        67.65148
563.93        67.84047
564.37        67.96961
564.80        67.97369
565.24        67.94463
565.68        67.90118
566.11        67.87658
566.55        67.92603
566.98        67.98135
567.42        68.05253
567.85        68.22308
568.29        68.49838
568.72        68.53369
569.16        68.50204
569.60        68.88765
570.03        69.37683
570.47         69.3079
570.90        68.95339
571.34        67.40568
571.77        68.30605
572.21        68.08607
572.64        67.86486
573.08        66.81858
573.51        64.07048
573.95        66.43643
574.38        70.35396
574.82        68.88854
575.25        68.09945
575.69        66.41785
576.12        65.13329
576.56        64.42558
576.99        65.51695
577.42        68.88272
577.86         68.6142
578.29        67.77553
578.73           71.37
579.16          65.713
579.60         60.3708
580.03        62.95323
580.47        67.19431
580.90         68.6129
581.33        67.55203
581.77        66.52148
582.20        72.90668
582.64        72.60117
583.07        61.95062
583.51        60.96235
583.94        60.11901
584.37        62.98466
584.81        66.18678
585.24        69.46004
585.68        70.72202
586.11        69.41493
586.54        64.99251
586.98        62.58079
587.41        63.23811
587.85        66.82965
588.28        69.11853
588.71        65.81236
589.15        63.70098
589.58        65.32961
590.01         65.8224
590.45        66.53409
590.88        67.39677
591.31        66.67943
591.75        66.35091
592.18        66.40221
592.61        67.71818
593.05        68.48729
593.48        71.26103
593.91        71.89502
594.35        66.12304
594.78        64.74072
595.21        64.58146
595.65        67.49706
596.08        69.97234
596.51        67.23401
596.94        65.33298
597.38        65.89462
597.81        68.29009
598.24        70.66507
598.68        68.76262
599.11        67.97878
599.54        70.66434
599.97        72.04189
600.41        66.95026
600.84        66.99075
601.27        68.50822
601.70        67.57543
602.14         67.9658
602.57        66.94429
603.00        67.11832
603.43        68.92817
603.87        70.25183
604.30        69.95604
604.73        68.05364
605.16        66.73201
605.60        67.63617
606.03        68.70699
606.46        69.78736
606.89        69.24429
607.32         67.6327
607.76        67.39354
608.19        69.76241
608.62        68.84084
609.05        67.60668
609.48        68.19302
609.92        68.36503
610.35        67.53854
610.78        69.75683
611.21        70.59264
611.64        67.32871
612.07        68.09293
612.50        68.51804
612.94        69.03205
613.37        68.59431
613.80        68.65323
614.23        69.25879
614.66        69.21995
615.09        69.53041
615.52        69.56086
615.96        69.42857
616.39        69.53029
616.82        68.73439
617.25        68.17406
617.68        69.17027
618.11        69.67481
618.54        69.93137
618.97        69.40908
619.40        68.51369
619.84        68.50844
620.27        69.54782
620.70        70.21617
621.13         70.4028
621.56        69.84386
621.99        68.83031
622.42         69.6663
622.85        71.91117
623.28        71.02392
623.71        70.57507
624.14        70.72441
624.57        70.09555
625.00        69.81197
625.43        70.22462
625.86        69.57644
626.29        69.40424
626.72        70.37674
627.15        69.82035
627.58        70.07269
628.01        70.16248
628.44        70.48455
628.87        70.67039
629.30        70.66405
629.73        70.88451
630.16        71.24478
630.59        70.69768
631.02        70.35712
631.45        69.97726
631.88        69.69081
632.31        69.52835
632.74        69.53592
633.17        69.58659
633.60        69.66801
634.03        69.72162
634.46        69.77686
634.89        69.81635
635.32        69.81372
635.75        69.76836
636.18        69.67295
636.61        69.56956
637.04        69.53626
637.47        69.58385
637.89        69.69794
638.32        69.80005
638.75        69.80418
639.18        69.69015
639.61        69.50159
640.04        69.28257
640.47        69.09377
640.90        68.96391
641.33         68.8802
641.76        68.84179
642.18        68.88691
642.61        69.10139
643.04        69.22301
643.47        69.18534
643.90        69.73334
644.33        69.40964
644.76        69.40106
645.18        69.30442
645.61        69.18917
646.04        69.06225
646.47        68.89983
646.90         68.7902
647.33         68.8242
647.75        69.02958
648.18        69.41866
648.61        69.76962
649.04        69.74892
649.47        69.31953
649.89        68.43105
650.32        67.52791
650.75        67.52119
651.18        68.36472
651.61        69.17857
652.03        69.57997
652.46        69.66768
652.89        69.72958
653.32        69.12701
653.74        68.19118
654.17        69.78469
654.60        70.19189
655.03        68.05233
655.46        68.67089
655.88        73.11658
656.31        76.66725
656.74        170.6948
657.16        110.4285
657.59        39.14814
658.02         29.9392
658.45        51.98967
658.87        67.34727
659.30        70.21494
659.73        68.93267
660.15        67.13713
660.58        69.47025
661.01        71.36225
661.44        68.96198
661.86        68.15963
662.29        68.18128
662.72        69.03699
663.14        70.44129
663.57        70.32876
664.00        68.99654
664.42        68.69778
664.85        69.51689
665.27        70.01238
665.70        69.97732
666.13        69.88935
666.55        69.72753
666.98        69.35032
667.41        68.91072
667.83        68.71684
668.26        68.83632
668.69        69.14764
669.11        69.46554
669.54        69.83002
669.96         69.5302
670.39        69.18488
670.82         68.7774
671.24        68.61512
671.67        68.79171
672.09        69.19777
672.52        69.58118
672.94        70.03274
673.37        69.35773
673.80        69.17129
674.22        69.17717
674.65        69.11639
675.07        68.97874
675.50         68.7937
675.92        68.63515
676.35        68.64771
676.77        68.84698
677.20        69.11111
677.62        69.37749
678.05        69.54991
678.47        69.58348
678.90        69.51791
679.32        69.41102
679.75        69.21653
680.17        69.23285
680.60        69.25543
681.02        69.29898
681.45        69.15406
681.87        68.85226
682.30        68.61609
682.72        68.53221
683.15        68.56418
683.57        68.75896
684.00        69.14886
684.42        69.73283
684.85        69.98726
685.27        69.88861
685.70        69.58496
686.12        69.19355
686.54        68.99335
686.97        69.04749
687.39        69.16553
687.82        69.20773
688.24        69.69469
688.66        69.45895
689.09        69.43677
689.51        69.36685
689.94        69.35545
690.36        69.42678
690.78        69.55353
691.21        69.69746
691.63        69.77737
692.06        69.78007
692.48        69.73952
692.90        69.69927
693.33        69.71027
693.75        69.78615
694.17        69.91376
694.60        70.06123
695.02        70.15538
695.44        70.14111
695.87        70.21881
696.29        70.39902
696.71        70.11572
697.14        69.58247
697.56        70.07386
697.98         71.2942
698.41        71.12801
698.83        70.29819
699.25        69.73236
699.68        69.73492
700.10        69.62962
700.52        69.44861
700.94        69.56567
701.37        69.92323
701.79        70.32114
702.21        70.66882
702.64        71.02292
703.06        71.28077
703.48        71.27348
703.90        70.99812
704.33        70.50292
704.75        69.94925
705.17        69.68933
705.59        69.80951
706.01        70.10252
706.44        70.39937
706.86        71.00836
707.28        70.90441
707.70        70.94851
708.12        70.90036
708.55        70.69102
708.97        70.39342
709.39        70.30659
709.81        70.43028
710.23        70.46924
710.66         70.4105
711.08        70.47514
711.50        70.60607
711.92        70.63319
712.34        70.53795
712.76         70.3472
713.19         70.1649
713.61        70.19128
714.03        70.44543
714.45        70.86813
714.87        71.26976
715.29        71.35118
715.71        71.05971
716.13        70.49502
716.56        69.87944
716.98        69.60339
717.40        69.75573
717.82        70.21951
718.24        70.79663
718.66        71.14675
719.08        71.16869
719.50        70.96846
719.92        70.66269
720.34        70.45672
720.76        70.41692
721.19         70.3559
721.61        70.46759
722.03        70.57797
722.45        70.72405
722.87        70.91501
723.29        71.10696
723.71         71.2101
724.13         71.2003
724.55        71.10231
724.97         70.9867
725.39        70.89016
725.81        70.82363
726.23        70.93246
726.65         71.2244
727.07        70.85223
727.49        71.16621
727.91        71.09769
728.33        71.07095
728.75        71.08046
729.17        71.13964
729.59        71.21154
730.01        71.28519
730.43         71.3766
730.85        71.48408
731.27        71.63697
731.69        71.77911
732.10        71.79596
732.52        71.66991
732.94        71.47124
733.36        71.33918
733.78        71.35889
734.20        71.55048
734.62         72.1916
735.04        73.03394
735.46        72.94281
735.88        72.15876
736.30        72.33184
736.72        73.43574
737.13        73.86008
737.55        73.38126
737.97        73.38712
738.39        73.86233
738.81          73.209
739.23        71.89462
739.65        72.70961
740.06        75.12629
740.48        75.38575
740.90        73.57287
741.32        72.68573
741.74        73.03002
742.16         73.2288
742.57        73.34801
742.99        74.15978
743.41        75.39259
743.83        76.15408
744.25        76.27547
744.67        75.97897
745.08        75.52774
745.50        75.35439
745.92        75.59462
746.34        76.09642
746.75        76.66391
747.17        76.97346
747.59        76.96023
748.01        76.73358
748.42        76.50552
748.84        76.58815
749.26        77.05717
749.68        77.78184
750.09         78.5519
750.51        79.03146
750.93         79.1352
751.35        78.90295
751.76        78.49818
752.18        78.35158
752.60        78.44721
753.01        78.46642
753.43         78.2149
753.85        78.33917
754.27        78.79974
754.68        79.39466
755.10        79.97639
755.52        80.46222
755.93        80.76643
756.35        80.84275
756.77        80.83001
757.18        80.78216
757.60        80.73676
758.02        81.15202
758.43        81.69382
758.85         80.8261
759.26        79.17062
759.68        78.80455
760.10        80.78136
760.51        81.40171
760.93        80.70163
761.34        79.74677
761.76        79.46407
762.18        78.83393
762.59        78.33478
763.01        78.73335
763.42        79.94357
763.84        80.71511
764.26        80.88719
764.67        81.00239
765.09        81.04115
765.50        80.86342
765.92         80.4549
766.33        79.36253
766.75        78.03356
767.16        77.72093
767.58        78.54169
768.00        79.94376
768.41        81.57681
768.83        82.82281
769.24        83.19443
769.66        82.48467
770.07        81.17477
770.49        79.76868
770.90        78.66373
771.32         79.4201
771.73        81.39997
772.15         80.7791
772.56        78.05225
772.97        77.52834
773.39        79.12415
773.80        79.71702
774.22         79.0939
774.63        79.17557
775.05        79.87043
775.46        80.20508
775.88        80.05972
776.29          79.714
776.70        79.32854
777.12        79.19096
777.53        79.38832
777.95        79.77942
778.36        80.17221
778.77        80.23383
779.19        79.92081
779.60          79.339
780.02        78.74973
780.43        78.58064
780.84        78.96455
781.26        79.49768
781.67        80.04735
782.09         80.8941
782.50         81.6601
782.91        80.90553
783.33        79.20448
783.74        78.69943
784.15         79.4902
784.57        80.18027
784.98        80.45441
785.39        80.28032
785.81        79.72926
786.22         79.2826
786.63        79.14519
787.04        79.17363
787.46         79.4006
787.87        80.03913
788.28        80.85867
788.70        81.23711
789.11        81.05549
789.52        80.64217
789.93        80.18592
790.35        79.63586
790.76        79.22339
791.17        79.59106
791.58        80.51377
792.00        80.93967
792.41        80.71708
792.82        80.37254
793.23        80.19272
793.65        80.03619
794.06        80.10024
794.47        81.31551
794.88         82.8949
795.29        82.39504
795.71         80.0609
796.12        77.82166
796.53        76.39796
796.94        76.07365
797.35        76.90541
797.76        78.26714
798.18        79.54034
798.59        80.44579
799.00         80.6354
799.41        79.81734
799.82        78.47543
800.23        77.72173
800.64        77.78203
801.06        78.24816
801.47        78.92532
801.88        79.38333
802.29        79.46704
802.70        79.35561
803.11        79.16241
803.52        79.03469
803.93        79.03896
804.34        79.08154
804.75        79.16218
805.17        79.35844
805.58        79.69564
805.99        79.94722
806.40        80.00682
806.81        80.21569
807.22        80.29829
807.63        79.14864
808.04        77.27264
808.45         76.4578
808.86        76.88436
809.27        77.71032
809.68        78.57001
810.09        79.12508
810.50        79.17087
810.91         78.8163
811.32        78.28681
811.73        77.95538
812.14        77.92749
812.55        78.04794
812.96        78.26357
813.37        78.48137
813.78        78.64628
814.19        78.85063
814.60        78.94482
815.01        78.67744
815.42        78.03515
815.83        77.05104
816.24        76.10542
816.65        75.86863
817.05        76.53083
817.46        77.87209
817.87        79.33978
818.28         79.9351
818.69        79.39809
819.10        77.97436
819.51        76.34573
819.92        75.67102
820.33        76.24281
820.74        77.70917
821.14        79.38804
821.55        80.06689
821.96         79.4798
822.37        78.03978
822.78        76.37377
823.19        75.40421
823.60        75.38186
824.00        76.07762
824.41        77.05125
824.82        77.65848
825.23        77.64017
825.64        77.22766
826.04        76.69165
826.45        76.41754
826.86        76.49755
827.27        76.75655
827.68        77.04189
828.08         77.1542
828.49        76.96346
828.90        76.62032
829.31        76.17328
829.72        75.69831
830.12         75.2972
830.53        74.93478
830.94        74.75965
831.35        74.96431
831.75        75.59536
832.16         76.5345
832.57        77.58208
832.97        78.29476
833.38        78.45356
833.79        78.17307
834.20        77.67629
834.60        77.31678
835.01        77.22693
835.42        77.30369
835.82        77.43452
836.23        77.34962
836.64        77.02741
837.04        76.58586
837.45        76.18374
837.86        76.06381
838.26        76.28785
838.67          76.735
839.08        77.26942
839.48        77.64357
839.89        77.73986
840.29        77.64507
840.70        77.42895
841.11        77.18531
841.51        76.96228
841.92        76.70193
842.33         76.4679
842.73        76.37951
843.14        76.41544
843.54         76.5947
843.95        76.74458
844.35        76.63816
844.76        76.22402
845.17        75.59987
845.57        74.95267
845.98         74.5731
846.38        74.52965
846.79         74.7129
847.19        75.02733
847.60        75.20992
848.00        75.21378
848.41        75.09029
848.81        74.92586
849.22        74.77444
849.62        74.71212
850.03        74.71346
850.43        74.81873
850.84        75.02229
851.24        75.35295
851.65        75.63963
852.05        76.00419
852.46        76.46606
852.86         77.0048
853.27        77.62712
853.67        77.88976
854.07        77.23745
854.48        75.72021
854.88        73.55396
855.29        71.48804
855.69        70.59695
856.10        71.08139
856.50         72.8101
856.90        75.14796
857.31        76.60481
857.71        76.70708
858.12        75.80692
858.52        74.52318
858.92        73.67628
859.33        73.46245
859.73        73.64982
860.13         74.1539
860.54        74.79886
860.94        75.53983
861.34        76.39985
861.75         77.2188
862.15        77.82833
862.55         78.1368
862.96         78.1375
863.36        77.95144
863.76        77.77757
864.17        77.70117
864.57        77.74995
864.97         77.8847
865.38        78.02548
865.78        78.19884
866.18        78.34955
866.58        78.56932
866.99        78.99335
867.39        79.67764
867.79         80.5958
868.19        81.37648
868.60        81.33727
869.00        80.35704
869.40        78.66404
869.80         77.0525
870.21        76.75973
870.61        78.14619
871.01        80.82396
871.41        83.94238
871.81         86.0282
872.22        86.61808
872.62        86.10418
873.02        85.10298
873.42        84.75983
873.82         85.2134
874.22        85.82343
874.63        86.33356
875.03        86.36798
875.43        85.74691
875.83        85.54573
876.23        84.26786
876.63        83.92411
877.03        84.45727
877.44        86.14875
877.84        103.2318
878.24        93.56084
878.64        93.91458
879.04        93.47411
879.44          89.773
879.84        87.71957
880.24        90.85326
880.64        92.45731
881.04        93.03522
881.44        93.02544
881.84        92.02547
882.24        90.35493
882.65        88.93535
883.05        88.59158
883.45        89.45961
883.85        91.52212
884.25         94.0882
884.65        95.67653
885.05        95.80125
885.45        94.92572
885.85         93.7348
886.25        93.19212
886.65        93.52409
887.05        94.39297
887.45        95.48598
887.85        96.26029
888.25        96.49155
888.65        96.39653
889.04         96.0502
889.44        95.59084
889.84        95.08634
890.24        94.47258
890.64        93.89513
891.04        93.59443
891.44         93.6012
891.84        93.89761
892.24        94.26571
892.64        94.27731
893.04        93.89292
893.44        93.32786
893.83        92.87032
894.23        92.95987
894.63        93.65407
895.03        94.72151
895.43        96.08503
895.83        97.57869
896.23        98.99955
896.63        100.3553
897.02        101.1608
897.42        100.6652
897.82        98.86884
898.22        96.11365
898.62        93.31142
899.01        91.78529
899.41        91.82854
899.81        93.00686
900.21        94.70197
900.61        95.87558
901.00        96.18652
901.40        95.96171
901.80        95.43091
902.20        94.95431
902.59        94.67535
902.99        94.42413
903.39        94.22323
903.79        94.15664
904.18         94.2262
904.58        94.48627
904.98        94.83564
905.38        95.08791
905.77        95.17723
906.17        95.13147
906.57        95.02848
906.96        95.04453
907.36        95.15015
907.76        95.30656
908.15        95.38902
908.55        95.08733
908.95        94.41098
909.34        93.44186
909.74        92.49138
910.14        91.85679
910.53        91.65257
910.93        91.84662
911.33        92.32291
911.72        92.87868
912.12        93.33259
912.52        93.66013
912.91        93.95968
913.31        94.38673
913.70         95.0155
914.10          95.812
914.49        96.45888
914.89        96.14513
915.29        94.74496
915.68        92.60538
916.08        90.72408
916.47        89.97534
916.87        90.43193
917.26        91.81607
917.66        93.39801
918.05        94.00591
918.45        93.33988
918.84         91.8233
919.24        90.21843
919.64         89.6288
920.03        90.34207
920.42        91.98398
920.82        94.00415
921.21        95.58357
921.61        96.23164
922.00        96.23287
922.40        95.71863
922.79        94.87026
923.19        93.86243
923.58        92.56239
923.98        91.07497
924.37        90.04185
924.77        89.88902
925.16        88.45067
925.55        89.61024
925.95         90.3716
926.34        91.80581
926.74        93.54052
927.13        95.17625
927.52        95.77335
927.92        95.23598
928.31        93.86145
928.70         92.0789
929.10        90.65141
929.49        89.78481
929.89        89.31404
930.28        89.35535
930.67        90.09135
931.07        91.34731
931.46        93.13773
931.85         94.7897
932.24        95.30501
932.64        94.52547
933.03        92.58207
933.42        90.04903
933.82        88.27811
934.21        87.65445
934.60        87.85527
934.99        88.30651
935.39        88.38979
935.78        88.00653
936.17        86.99954
936.56        85.12816
936.96        85.46942
937.35        83.86388
937.74         83.8838
938.13        84.18925
938.53        85.08129
938.92        86.57094
939.31        88.74681
939.70        91.12808
940.09        92.20333
940.49        91.44479
940.88        89.43369
941.27        87.19303
941.66        85.96265
942.05        85.92035
942.44        86.64935
942.84        87.81113
943.23        88.90139
943.62        89.59013
944.01        90.04704
944.40        90.17368
944.79        89.78555
945.18         88.8568
945.57        87.31331
945.97        85.44995
946.36        84.14435
946.75        83.83928
947.14        84.29655
947.53        85.06409
947.92          85.634
948.31         85.9472
948.70        86.19185
949.09        86.41028
949.48        86.65375
949.87        86.91496
950.26        87.03857
950.65        87.14486
951.04         87.4892
951.43        88.07521
951.82         88.8438
952.21        89.36131
952.60        88.92603
952.99        87.46808
953.38        85.28017
953.77        83.03558
954.16        81.70096
954.55        81.48298
954.94        82.15437
955.33        83.14529
955.72        83.47474
956.11        82.88685
956.50         81.6542
956.89        80.38351
957.28        80.18741
957.66        81.43518
958.05        83.49326
958.44         85.6877
958.83        87.04189
959.22        87.27427
959.61        86.65495
960.00        85.47043
960.39        84.17981
960.78        82.98976
961.16        81.81219
961.55        80.63479
961.94        79.49754
962.33        78.48352
962.72        77.71891
963.11        77.26087
963.49        77.10168
963.88        77.19723
964.27        77.54716
964.66        78.04912
965.04        78.51189
965.43        78.73023
965.82         78.7254
966.21        78.66119
966.60        78.80394
966.98        79.23019
967.37        79.86221
967.76        80.45836
968.15        80.54375
968.53        80.02473
968.92        79.02705
969.31        78.04737
969.69        77.73232
970.08        78.18088
970.47        79.24223
970.86        80.36469
971.24        80.56105
971.63        79.54121
972.02        77.54144
972.40        75.33668
972.79        74.32883
973.17        75.06407
973.56        77.09508
973.95        79.59964
974.33        80.94877
974.72        80.53651
975.11        78.90231
975.49        76.93966
975.88        75.85548
976.26        75.86353
976.65        76.70244
977.04        77.72405
977.42        77.44972
977.81        75.48354
978.19        72.49209
978.58        70.19058
978.96        70.31813
979.35        73.11069
979.74         78.2027
980.12        84.50129
980.51        88.28729
980.89        88.32949
981.28        85.65656
981.66         81.9399
982.05        79.31252
982.43        78.21133
982.82        77.95034
983.20        78.39055
983.59        79.42227
983.97        81.01311
984.35         83.4128
984.74        85.95969
985.12        87.32754
985.51        86.64705
985.89        83.96593
986.28        80.33965
986.66        77.57674
987.04        76.45657
987.43        76.62766
987.81        77.06306
988.20        76.38282
988.58        74.09982
988.96        69.83847
989.35        64.28384
989.73        61.93568
990.12        65.83771
990.50        73.95899
990.88         81.0233
991.27           83.04
991.65        80.52077
992.03        74.72723
992.42        67.99969
992.80         64.6179
993.18        65.93664
993.56          69.682
993.95        73.91562
994.33        77.03866
994.71         78.5658
995.10        79.40137
995.48        79.41324
995.86        78.08927
996.24        75.41463
996.63        71.11357
997.01        66.29079
997.39        64.43813
997.77        67.05289
998.15        73.36934
998.54        80.29115
998.92        83.64225
999.30        82.18967
999.68        77.02808
1000.06        69.80171
1000.45        64.57218
1000.83        62.98335
1001.21        63.62909
1001.59        65.60074
1001.97        68.04154
1002.35        70.65795
1002.73        74.28452
1003.12        77.61516
1003.50        76.78606
1003.88        70.65513
1004.26        61.53508
1004.64         53.3746
1005.02        49.26878
1005.40        49.26964
1005.78        53.07896
1006.16        61.57365
1006.54        71.38286
1006.92        76.56708
1007.30        77.48671
1007.69         76.3293
1008.07        74.95275
1008.45        73.30187
1008.83        69.68873
1009.21        59.99608
1009.59        32.24498
1009.97       -33.28384
1010.35       -106.4329
1010.73       -75.80809
1011.11       -21.68928
1011.49        12.48922
1011.86        35.63649
1012.24        48.52003
1012.62        54.54249
1013.00        56.75015
1013.38         56.2675
1013.76        54.96153
1014.14        58.43433
1014.52        71.01152
1014.90        93.71146
1015.28        120.1011
1015.66        132.3888
1016.04        120.1111
1016.41        87.19794
1016.79        51.89868
1017.17         33.0909
1017.55        29.97923
1017.93         33.3237
1018.31        38.30756
1018.69        42.73154
1019.06        46.75061
1019.44         51.1904
1019.82        57.53533
1020.20        66.88846
1020.58         79.8847
1020.95         98.0285
1021.33         119.376
1021.71        3.632597
1022.09        109.3402
1022.46        120.3183
1022.84        127.7616
1023.22        138.9054
1023.60        166.3121
1023.97         431.252
1024.35       -14.97524
1024.73        39.68296
