SpectraSmart Spectrum 2.9.0.0
--------- Device Information -----------
Spectrum Name :  反射率_0
Saving Time :  2024/04/26 01:08:33
Spectro-Module Model Name : SE2030-DUVN
Spectro-Module Serial Number : OS361AC55029948
Wavelength Start : 200
Wavelength End : 1025
Wavelength Unit : Wavelength(nm)
Spectrum Unit : Reflectance(%)
-----------Spectrum Setting ------------
Integration Time : 20ms
Average : 10
Boxcar : 0
Background removal :  enabled
linearity correction :  enabled
SC :  disabled
Intensity correction :  disabled
DWT denoise :  enabled
savitzky-golay :  disabled
FFT :  disabled
Running average :  disabled
Kalman :  disabled
High pass :  disabled
---------------BEGIN--------------------
Wavelength(nm)             Reflectance(%)
200.29               0
200.75        96.39236
201.21        91.43603
201.67        84.89147
202.13        79.93806
202.58        77.14625
203.04        75.98582
203.50        75.72545
203.96        75.39786
204.42        74.78222
204.88        74.21217
205.34        74.20316
205.80        75.43861
206.26        78.59804
206.72        85.54317
207.18        99.01841
207.64        111.3217
208.10        104.4917
208.55        88.50197
209.01        78.37486
209.47        75.52972
209.93        77.11911
210.39        81.93879
210.85        87.28809
211.31        87.40996
211.77        80.76198
212.23        69.47489
212.69        58.88746
213.14        57.20258
213.60        65.51283
214.06         81.3381
214.52        98.18576
214.98        106.0873
215.44        102.9805
215.90        92.51072
216.36        79.88064
216.81        72.41134
217.27        71.79345
217.73        75.14294
218.19        79.05928
218.65        79.24735
219.11        74.26886
219.57        64.05577
220.02        49.90007
220.48        40.13375
220.94         40.0431
221.40        47.66643
221.86        55.87398
222.32        57.00962
222.77        51.57015
223.23        43.69244
223.69        37.17241
224.15        35.84821
224.61        39.24905
225.06        45.33354
225.52         51.2901
225.98        53.73618
226.44         52.0411
226.90        47.69012
227.36        42.57669
227.81        39.18114
228.27          38.382
228.73        39.21979
229.19        40.78016
229.65        41.74438
230.10        41.80778
230.56        41.47288
231.02        41.25265
231.48        41.68757
231.93        42.75709
232.39        44.17952
232.85        45.49908
233.31        46.09377
233.77        45.81833
234.22        44.85899
234.68        43.60971
235.14          42.795
235.60        42.71739
236.05         43.2154
236.51        43.99364
236.97        44.58989
237.43        44.93761
237.88        45.28984
238.34        45.88972
238.80        47.32305
239.26        49.74582
239.71        52.96445
240.17        56.33635
240.63        59.35862
241.08         61.8679
241.54        63.77368
242.00        65.44398
242.46        67.75272
242.91        71.94485
243.37        80.53593
243.83        104.3482
244.28        173.7584
244.74        238.9164
245.20        186.3593
245.66        146.1752
246.11        135.1788
246.57        140.2394
247.03        166.5954
247.48        249.4147
247.94        215.8312
248.40        128.9799
248.85        101.5125
249.31        93.18688
249.77         91.9155
250.22         94.4397
250.68        100.4805
251.14        109.6415
251.59        115.5797
252.05        112.1094
252.51        102.1535
252.96        91.65707
253.42        86.47298
253.88        86.03712
254.33        88.24385
254.79        91.90254
255.25        94.82074
255.70        96.24971
256.16        97.18591
256.62        97.37368
257.07        96.43314
257.53        94.86389
257.99        92.30352
258.44        89.16557
258.90         87.0811
259.35        85.28474
259.81        83.66949
260.27        81.25771
260.72         77.0312
261.18        71.74424
261.63        65.80147
262.09        60.39738
262.55         56.2225
263.00        53.28732
263.46        51.37827
263.91         49.9043
264.37        48.52719
264.83        46.99368
265.28        45.27868
265.74        43.65227
266.19        42.26785
266.65        41.31063
267.11         40.6274
267.56        39.95619
268.02        38.96313
268.47        37.54121
268.93        35.81665
269.38        33.98574
269.84        32.62622
270.30        31.90098
270.75        31.66768
271.21        31.65772
271.66        31.45657
272.12        30.93336
272.57        30.20927
273.03        29.45679
273.48        28.85267
273.94         28.4719
274.39        28.20062
274.85        27.94919
275.31        27.58722
275.76        27.07411
276.22         26.4847
276.67        25.87586
277.13        25.41469
277.58        25.08367
278.04        24.86589
278.49        24.63258
278.95        24.25755
279.40            23.7
279.86        23.06622
280.31         22.4281
280.77        22.00166
281.22        21.78155
281.68        21.71398
282.13        21.70985
282.59        21.67484
283.04        21.57446
283.50        21.47646
283.95        21.35095
284.41        21.16891
284.86        20.93648
285.32        20.67158
285.77        20.48648
286.22        20.61121
286.68        21.03955
287.13        21.66249
287.59        22.25551
288.04        22.47769
288.50        22.29165
288.95        21.79803
289.41        21.21477
289.86        20.76752
290.32        20.58124
290.77        20.57712
291.22        20.73265
291.68        20.97249
292.13        21.28039
292.59         21.6987
293.04         22.2494
293.50        22.95405
293.95         23.7986
294.40        24.74072
294.86         25.7337
295.31        26.72729
295.77        27.71429
296.22        28.70754
296.68        29.72561
297.13         30.7648
297.58        31.84176
298.04        32.97261
298.49        34.17503
298.95        35.52852
299.40        37.03586
299.85        38.66891
300.31        40.38201
300.76        42.09627
301.21        43.75234
301.67        45.39085
302.12        46.93634
302.58        48.38004
303.03        49.71576
303.48        50.98345
303.94        52.34962
304.39        54.00762
304.84        55.99447
305.30        58.23819
305.75        60.49159
306.20        62.39744
306.66        63.89769
307.11        65.05133
307.57        66.11057
308.02        67.33997
308.47        68.86108
308.93        70.59297
309.38        72.37532
309.83        74.00847
310.29        75.42216
310.74        76.64622
311.19         77.7908
311.65        79.02283
312.10        80.36693
312.55        81.77898
313.00        83.09451
313.46        84.05549
313.91        84.59534
314.36        84.81763
314.82        84.97699
315.27        85.41261
315.72        86.23975
316.18        87.35687
316.63        88.57345
317.08        89.52637
317.53        90.10527
317.99        90.40305
318.44        90.61459
318.89        91.06333
319.35        91.80357
319.80        92.75499
320.25        93.67119
320.70        94.15247
321.16         94.1142
321.61        93.70063
322.06        93.18272
322.51        92.98386
322.97        93.19067
323.42        93.71394
323.87        94.35797
324.32        94.78491
324.78        94.88316
325.23        94.80405
325.68         94.6505
326.13        94.61703
326.59        94.74386
327.04        94.98685
327.49        95.31533
327.94        95.71812
328.39        96.17152
328.85        96.67158
329.30         97.1909
329.75        97.50376
330.20        97.59171
330.66        97.50298
331.11        97.47877
331.56        97.83449
332.01        98.65714
332.46        99.83315
332.92        101.1554
333.37        102.4364
333.82        103.4634
334.27        104.2909
334.72        104.8474
335.17        105.0428
335.63        104.9122
336.08        104.5421
336.53        104.1632
336.98        104.1984
337.43        104.7491
337.88        105.6998
338.34        106.8619
338.79        107.9983
339.24        108.9568
339.69        109.8283
340.14        110.5109
340.59        110.8399
341.05        110.8295
341.50        110.5009
341.95        110.1678
342.40         110.334
342.85        111.0898
343.30        112.3046
343.75        113.6222
344.20         114.399
344.66        114.4708
345.11        114.0196
345.56        113.3627
346.01        112.9851
346.46        113.0238
346.91        113.3261
347.36        113.7414
347.81         114.041
348.26        114.1634
348.72        114.2243
349.17        114.2612
349.62        114.3688
350.07        114.5631
350.52        114.7674
350.97        114.9692
351.42        115.1722
351.87         115.356
352.32         115.527
352.77        115.5891
353.22        115.3886
353.67        114.9189
354.13        114.2514
354.58        113.5371
355.03        113.0778
355.48        112.9318
355.93        113.0081
356.38        113.1267
356.83        112.9949
357.28        112.5357
357.73        111.8442
358.18        111.0409
358.63        110.3153
359.08        109.7327
359.53        109.2394
359.98        108.7833
360.43        108.2888
360.88        107.7243
361.33        107.1056
361.78        106.4768
362.23        105.9017
362.68        105.3957
363.13        104.9511
363.58        104.4678
364.03        103.7913
364.48        102.9033
364.93        101.8487
365.38        100.8093
365.83        100.0802
366.28        99.70863
366.73        99.58892
367.18        99.49824
367.63        99.07095
368.08        98.23616
368.53        97.15204
368.98         95.9903
369.43        95.00232
369.88        94.26723
370.33        93.69102
370.78        93.28276
371.23        93.06365
371.68        92.99875
372.13        93.08487
372.58         93.1581
373.03        92.93434
373.48        92.36505
373.93        91.54056
374.38         90.6613
374.83        90.04244
375.28        89.75478
375.72        89.68382
376.17        89.72626
376.62         89.6865
377.07        89.48198
377.52        89.15335
377.97        88.70731
378.42        88.15565
378.87        87.53293
379.32        86.86629
379.77        86.17098
380.22        85.46314
380.67        84.75457
381.11          84.047
381.56        83.42774
382.01        83.03893
382.46        82.90558
382.91        82.99731
383.36        83.12563
383.81        82.99033
384.26        82.53072
384.71        81.81921
385.15        81.06776
385.60        80.67703
386.05        80.66094
386.50        80.88448
386.95        81.08701
387.40        80.83906
387.85        80.10171
388.29        79.06656
388.74        78.08929
389.19        77.35598
389.64         76.9069
390.09        76.61441
390.54        76.51846
390.98        76.68864
391.43        77.07268
391.88        77.60974
392.33        78.01722
392.78        77.82099
393.23         77.0121
393.67        75.91115
394.12        74.92256
394.57        74.04302
395.02        73.52959
395.47        74.00584
395.91        75.25044
396.36        76.03702
396.81        76.15001
397.26        76.12206
397.71        76.02567
398.15          75.659
398.60         75.1602
399.05        74.71725
399.50        74.30545
399.95        73.42238
400.39        72.56963
400.84        72.11163
401.29        72.14761
401.74        72.33881
402.18        72.53712
402.63        72.43008
403.08        72.17369
403.53        72.35415
403.97        72.98019
404.42        73.66096
404.87        74.10713
405.32        73.98936
405.76        73.23518
406.21        72.11926
406.66        71.00382
407.11        70.23906
407.55        70.04819
408.00        70.66668
408.45        71.79113
408.90        72.43812
409.34        72.32118
409.79        71.73773
410.24        70.99152
410.68        70.54382
411.13        70.51483
411.58        70.65908
412.03        70.91098
412.47        71.24675
412.92        71.55656
413.37        71.88392
413.81        72.12404
414.26        72.15388
414.71        71.94127
415.15        71.50237
415.60        70.98649
416.05        70.66428
416.49        70.61053
416.94        70.78035
417.39        70.98759
417.83        70.89095
418.28         70.4464
418.73        69.78832
419.17        69.19138
419.62        69.08937
420.07        69.51118
420.51        70.28813
420.96        71.14317
421.41        71.51834
421.85        71.24734
422.30        70.88121
422.74        70.47436
423.19        69.61121
423.64        68.61846
424.08        68.85233
424.53        70.11676
424.98        70.76873
425.42        70.61932
425.87        70.78065
426.31        71.24183
426.76        71.05346
427.21        70.47677
427.65        70.72612
428.10        71.68896
428.54        72.46177
428.99        72.98129
429.44         73.1573
429.88         73.0835
430.33        74.02058
430.77        75.22891
431.22        74.10812
431.66        71.26614
432.11         69.7542
432.56        69.92003
433.00        70.66576
433.45        71.84296
433.89        73.73806
434.34        74.84441
434.78        76.08614
435.23        71.98511
435.67        69.76129
436.12        72.20065
436.57        73.48788
437.01        74.32951
437.46        74.76742
437.90        74.97217
438.35        74.36423
438.79         74.9844
439.24        74.80772
439.68        74.47933
440.13        73.89856
440.57        73.52345
441.02        74.47604
441.46        76.32259
441.91        77.66167
442.35        77.98775
442.80         76.9372
443.24        75.12404
443.69        75.46151
444.13        77.60149
444.58        77.65321
445.02        75.83905
445.47        75.70125
445.91        77.08665
446.36        77.51808
446.80        76.88485
447.24        76.52634
447.69        76.37454
448.13        76.42257
448.58        76.64827
449.02        77.03638
449.47        77.46967
449.91        77.78654
450.36        77.93698
450.80        77.94643
451.25        77.85393
451.69        77.68936
452.13         77.5011
452.58        77.28567
453.02        77.09731
453.47        77.07045
453.91        77.19767
454.36        77.44456
454.80        77.71531
455.24        77.73756
455.69        77.47945
456.13        77.19391
456.58        76.98831
457.02        76.44079
457.46         75.9099
457.91         76.2002
458.35        77.09028
458.79         77.4519
459.24        77.22633
459.68        76.93251
460.13        76.62719
460.57        76.31867
461.01        75.98191
461.46        75.31718
461.90        74.69037
462.34        75.11723
462.79        74.71948
463.23        74.98663
463.68        75.25693
464.12         75.6681
464.56        76.06824
465.01        76.18606
465.45        75.93247
465.89        75.76182
466.34        75.56641
466.78        74.49939
467.22        73.12738
467.67        72.44868
468.11        73.71924
468.55        74.50985
468.99        74.77588
469.44        74.59703
469.88        73.87572
470.32        73.75463
470.77        74.11342
471.21        74.06938
471.65        73.60546
472.10        73.41317
472.54         73.5033
472.98        73.57592
473.42        73.61399
473.87        73.73103
474.31        73.84849
474.75        73.85753
475.20        73.73623
475.64         73.5332
476.08        73.38775
476.52        73.16177
476.97        72.81627
477.41        73.36049
477.85        73.67239
478.29        72.88722
478.74        73.59985
479.18        73.44034
479.62        72.56549
480.06         73.1469
480.50         73.4429
480.95        73.80853
481.39        73.73378
481.83        72.92903
482.27        73.12846
482.72        72.47875
483.16        71.36231
483.60        71.52177
484.04        73.15399
484.48         73.5699
484.93        73.27732
485.37        75.31495
485.81        75.16714
486.25        74.49123
486.69        102.2356
487.14        82.57724
487.58        50.87137
488.02        62.23249
488.46        70.54335
488.90        70.17149
489.34        72.07262
489.79        70.90881
490.23        73.18811
490.67        73.90088
491.11        72.78651
491.55        72.75292
491.99        73.34711
492.43        73.18511
492.88         72.3542
493.32        72.30174
493.76        72.50743
494.20        72.75769
494.64        72.78858
495.08        72.90134
495.52         73.1344
495.96        73.03101
496.41        72.63457
496.85        73.20404
497.29        74.36069
497.73        73.17969
498.17        70.74001
498.61        70.87314
499.05        73.60027
499.49        74.17688
499.93        74.16474
500.37        73.97273
500.82        73.47424
501.26        73.50094
501.70        73.80148
502.14        73.90006
502.58        73.67947
503.02        73.47117
503.46        73.28777
503.90        72.94063
504.34        72.56006
504.78        72.42861
505.22        72.57254
505.66        72.94374
506.10         73.4209
506.54        73.58858
506.98        73.33133
507.42        73.31132
507.86        73.12974
508.30        72.38935
508.74         72.8661
509.18         72.9769
509.62        73.17878
510.06        73.26788
510.50        73.21984
510.94        73.07439
511.38        72.88508
511.82        72.77699
512.26         72.7786
512.70         72.8485
513.14        72.95688
513.58        73.06136
514.02        73.13554
514.46          73.185
514.90        73.21062
515.34         73.1975
515.78        73.13884
516.22        73.09861
516.66        73.07127
517.10        72.89746
517.54        72.58329
517.98        72.69739
518.42        72.50169
518.86        72.63318
519.30        72.85431
519.74        73.20054
520.18         73.5556
520.62        73.72353
521.06        73.67187
521.50        73.45609
521.93         73.1759
522.37        72.99713
522.81        72.97532
523.25        73.05974
523.69        73.20968
524.13        73.36186
524.57        73.48898
525.01        73.61089
525.45        73.71326
525.89        73.76981
526.32         73.7683
526.76        73.70725
527.20        73.60617
527.64        73.52013
528.08        73.48351
528.52        73.43217
528.96        73.32179
529.40        73.28706
529.83        73.36122
530.27         72.7571
530.71        72.96797
531.15        72.92403
531.59        73.06716
532.03        73.32351
532.46        73.64388
532.90         73.9122
533.34        74.07308
533.78        74.15381
534.22        74.16395
534.66        74.12975
535.09        74.05137
535.53        73.94728
535.97        73.80853
536.41        73.64489
536.85        73.47273
537.28        73.30921
537.72        73.17416
538.16          73.108
538.60        73.11764
539.04        73.12828
539.47        73.12688
539.91        73.29156
540.35        73.52816
540.79        73.52952
541.22        73.31627
541.66        73.21927
542.10        73.24858
542.54        73.21189
542.97        73.12776
543.41        73.14478
543.85        73.25718
544.29         73.4407
544.72        73.59724
545.16        73.60543
545.60        73.43848
546.04        73.13235
546.47        72.82113
546.91        72.76998
547.35        73.01214
547.79        73.39859
548.22        73.74365
548.66        73.94221
549.10        73.85263
549.53        73.18989
549.97        72.27621
550.41        71.86686
550.84        72.06287
551.28        72.53705
551.72        73.08985
552.15        73.41566
552.59        73.40211
553.03         73.4062
553.46        73.08594
553.90        72.95379
554.34        72.91167
554.77         72.9854
555.21        73.17812
555.65        72.92105
556.08         73.5477
556.52        73.05153
556.96        73.49922
557.39        73.41337
557.83        73.33871
558.27        73.23775
558.70        73.17264
559.14        73.25664
559.57        73.46646
560.01        73.73899
560.45        73.97678
560.88        74.12151
561.32         74.1146
561.75        73.77797
562.19        73.27543
562.63        72.81494
563.06        72.52867
563.50        72.64706
563.93        73.04922
564.37        73.28611
564.80        73.27933
565.24        73.34709
565.68        73.44473
566.11        73.37136
566.55         73.2177
566.98        73.03478
567.42        72.91982
567.85        73.17162
568.29        73.71391
568.72        73.75511
569.16        73.52863
569.60        73.91648
570.03         74.5485
570.47        74.61349
570.90        74.45017
571.34        72.55597
571.77        73.63124
572.21         73.9041
572.64         73.3787
573.08        72.18222
573.51        68.97664
573.95        71.73679
574.38        76.53571
574.82        74.55836
575.25        74.06685
575.69        71.58846
576.12        70.47353
576.56        69.63432
576.99        71.04098
577.42        74.67815
577.86        74.57973
578.29        73.98811
578.73        77.93523
579.16        71.66656
579.60        65.58376
580.03         68.4073
580.47        73.19828
580.90        74.40498
581.33        73.42694
581.77        72.40818
582.20        80.17952
582.64        79.53074
583.07        67.90723
583.51        66.28564
583.94        65.10633
584.37         67.9203
584.81        71.38982
585.24        75.19076
585.68        76.75522
586.11        76.13232
586.54        70.42449
586.98        67.93545
587.41        68.39098
587.85        72.74102
588.28        75.25272
588.71        71.64414
589.15        69.30575
589.58        70.57474
590.01        70.40006
590.45        71.86082
590.88        72.59264
591.31        71.94862
591.75        71.34789
592.18        71.27911
592.61        72.78197
593.05        73.62798
593.48        77.01879
593.91        77.75842
594.35        71.66595
594.78        69.89088
595.21        69.23006
595.65         72.3452
596.08        75.50201
596.51        72.53531
596.94        70.41038
597.38        70.99856
597.81        73.83083
598.24        75.78295
598.68        73.70926
599.11        72.86214
599.54        75.80129
599.97        77.20815
600.41        72.08839
600.84        72.21101
601.27        73.64865
601.70        72.78394
602.14        72.62453
602.57        71.53593
603.00        72.03874
603.43        73.66514
603.87        75.41876
604.30        75.00822
604.73        72.85107
605.16        71.28014
605.60        72.06179
606.03        73.18243
606.46        74.35992
606.89        74.07858
607.32        72.00197
607.76        71.60318
608.19        74.21742
608.62        73.23569
609.05        71.93771
609.48        72.42133
609.92        72.28941
610.35        72.03741
610.78        74.13043
611.21        75.10634
611.64         71.6255
612.07        72.39528
612.50        72.82253
612.94        73.23795
613.37        72.53004
613.80        72.85024
614.23        73.17969
614.66        73.08008
615.09        73.29784
615.52        73.29672
615.96        73.18143
616.39        73.25269
616.82        72.34275
617.25        71.78079
617.68        72.88827
618.11        73.53655
618.54        73.90565
618.97        73.35598
619.40        72.31728
619.84        72.18282
620.27        73.10469
620.70         73.8214
621.13         74.1394
621.56        73.50707
621.99        72.33821
622.42        73.09456
622.85        75.23107
623.28        74.78694
623.71        74.05186
624.14        74.19199
624.57        74.15297
625.00        73.58924
625.43        74.06669
625.86        73.31134
626.29         73.3241
626.72        73.83967
627.15        73.43505
627.58        73.59736
628.01        73.70946
628.44        73.83401
628.87        73.97986
629.30        74.03563
629.73        73.92021
630.16        74.57238
630.59        74.18291
631.02        73.92239
631.45        73.40031
631.88        73.10538
632.31        73.08147
632.74        73.12229
633.17        73.19245
633.60        73.26949
634.03        73.32677
634.46        73.37582
634.89        73.40462
635.32         73.3932
635.75        73.34489
636.18        73.25729
636.61        73.18184
637.04        73.20737
637.47        73.34451
637.89        73.57438
638.32        73.79656
638.75        73.89142
639.18         73.8259
639.61        73.64692
640.04        73.41207
640.47        73.21185
640.90        73.08533
641.33        73.00546
641.76        72.95432
642.18        73.00723
642.61         73.1543
643.04        73.21033
643.47        73.10857
643.90        73.68992
644.33        73.41999
644.76        73.53271
645.18        73.56191
645.61        73.51083
646.04        73.36897
646.47        73.13615
646.90        72.92589
647.33        72.86753
647.75        73.00529
648.18         73.3426
648.61        73.66546
649.04        73.63696
649.47        73.21332
649.89        72.38509
650.32        71.57082
650.75        71.53466
651.18        72.27045
651.61        73.14041
652.03        73.72037
652.46         73.8445
652.89        73.80209
653.32        73.01098
653.74        71.93789
654.17        73.54844
654.60        74.01112
655.03        71.70852
655.46        72.75882
655.88         76.9297
656.31        82.55525
656.74        188.9601
657.16        122.5459
657.59        43.09827
658.02        32.00565
658.45        55.06791
658.87        70.58948
659.30        73.53156
659.73        72.78642
660.15        70.38358
660.58        73.18946
661.01        74.89741
661.44        72.11942
661.86        71.28493
662.29        71.53291
662.72        72.48491
663.14        73.81075
663.57        73.67816
664.00        72.39026
664.42         72.1073
664.85        72.90977
665.27        73.35126
665.70        73.23692
666.13        73.09415
666.55        72.90991
666.98        72.51428
667.41        72.06458
667.83        71.88737
668.26        72.04894
668.69        72.42165
669.11        72.79104
669.54        73.17213
669.96        72.81664
670.39        72.36697
670.82        71.84411
671.24        71.66161
671.67        71.91633
672.09        72.40916
672.52        72.84517
672.94        73.33846
673.37        72.62041
673.80        72.32759
674.22        72.19343
674.65        72.07249
675.07        71.97371
675.50        71.87537
675.92        71.81081
676.35        71.87418
676.77        72.06557
677.20        72.27995
677.62        72.47916
678.05        72.60745
678.47        72.63499
678.90        72.58489
679.32        72.51346
679.75        72.37849
680.17        72.48646
680.60         72.5896
681.02        72.68319
681.45         72.5992
681.87        72.32887
682.30        71.92141
682.72        71.54121
683.15        71.46687
683.57         71.7606
684.00        72.24204
684.42        72.86015
684.85        73.16555
685.27        73.11018
685.70        72.80627
686.12        72.38186
686.54        72.11818
686.97        72.08599
687.39        72.14906
687.82        72.20255
688.24        72.47215
688.66        72.50839
689.09        72.35577
689.51        72.50317
689.94        72.54407
690.36        72.66108
690.78        72.81169
691.21        72.96416
691.63        73.05492
692.06         73.0725
692.48        73.06042
692.90         73.0452
693.33        73.04908
693.75        73.07547
694.17        73.11868
694.60        73.19833
695.02         73.2645
695.44        73.26966
695.87        73.56992
696.29        74.04549
696.71        73.57944
697.14        72.51376
697.56        72.89073
697.98        74.37541
698.41        74.37868
698.83        73.24265
699.25         72.6188
699.68        72.71815
700.10         72.6919
700.52        72.55753
700.94        72.74949
701.37        73.17585
701.79        73.56229
702.21        73.80811
702.64        73.98602
703.06        74.04355
703.48        73.89862
703.90        73.57346
704.33        73.09618
704.75        72.59722
705.17         72.3807
705.59        72.52027
706.01         72.8161
706.44        73.11931
706.86        73.81362
707.28        73.84362
707.70        74.01614
708.12        74.04886
708.55        73.97133
708.97        73.78228
709.39        73.48485
709.81        73.18433
710.23        73.05389
710.66        73.13808
711.08        73.42473
711.50        73.75568
711.92        73.88595
712.34        73.76116
712.76        73.44382
713.19        73.09695
713.61         73.0188
714.03        73.26017
714.45        73.72355
714.87        74.21268
715.29        74.42052
715.71        74.27567
716.13        73.87939
716.56        73.39992
716.98        73.13696
717.40         73.1656
717.82        73.39776
718.24        73.70543
718.66        73.87386
719.08        73.84176
719.50        73.67957
719.92         73.4691
720.34        73.35654
720.76        73.38345
721.19        73.37827
721.61        73.52786
722.03        73.62181
722.45        73.70166
722.87        73.78309
723.29        73.86726
723.71        73.94543
724.13        74.01457
724.55        74.06764
724.97        74.11604
725.39        74.18607
725.81        74.27759
726.23        74.38005
726.65        74.46897
727.07        74.50224
727.49        74.47903
727.91        74.42771
728.33        74.36887
728.75        74.33786
729.17        74.34608
729.59        74.36984
730.01        74.44252
730.43        74.60685
730.85        74.86096
731.27        75.21796
731.69        75.54915
732.10        75.62335
732.52        75.40027
732.94        74.99062
733.36        74.61278
733.78        74.47953
734.20        74.65279
734.62        75.37905
735.04        76.35667
735.46        76.35592
735.88        75.60291
736.30        75.72993
736.72        76.90982
737.13        77.29099
737.55        76.70313
737.97        76.63861
738.39        77.07275
738.81        76.22387
739.23        74.63151
739.65        75.44122
740.06        78.09969
740.48        78.46896
740.90        76.61426
741.32        75.78369
741.74        76.26524
742.16        76.50125
742.57        76.54229
742.99        77.22971
743.41        78.31614
743.83        78.93723
744.25        78.94533
744.67        78.55686
745.08        78.04482
745.50         77.8574
745.92        78.12627
746.34        78.68975
746.75        79.33064
747.17        79.68901
747.59        79.69826
748.01        79.48293
748.42        79.25271
748.84        79.36263
749.26        79.90296
749.68         80.5938
750.09        81.28024
750.51        82.03216
750.93        82.61941
751.35        82.34944
751.76        81.45337
752.18        81.09525
752.60        81.30203
753.01        81.21774
753.43        80.88297
753.85         80.9707
754.27        81.51746
754.68        82.24145
755.10        82.97903
755.52        83.62624
755.93        84.07735
756.35        84.29018
756.77        84.36262
757.18        84.31903
757.60        84.20188
758.02        84.41695
758.43        84.70283
758.85        83.91901
759.26        82.56187
759.68        82.39548
760.10        83.24784
760.51         84.7001
760.93        84.27132
761.34        83.61549
761.76        82.53335
762.18        81.87648
762.59        81.88358
763.01        82.31779
763.42        83.09557
763.84        83.68983
764.26         84.0035
764.67        84.11771
765.09        84.03198
765.50        83.96211
765.92        83.79975
766.33        82.62717
766.75        80.93286
767.16        80.45193
767.58        81.33308
768.00        82.62273
768.41        84.04752
768.83        85.53024
769.24        86.43732
769.66        85.93952
770.07        84.48694
770.49        82.71886
770.90          81.242
771.32        82.22407
771.73        84.90377
772.15        84.50565
772.56        81.48739
772.97        80.78967
773.39        82.36759
773.80        82.97138
774.22        82.32405
774.63        82.10045
775.05        82.31254
775.46        82.47686
775.88        82.52416
776.29        82.46996
776.70        82.34323
777.12        82.33185
777.53        82.47341
777.95        82.64877
778.36        82.77135
778.77        82.69142
779.19        82.42667
779.60        82.03005
780.02        81.67655
780.43        81.71124
780.84        82.24136
781.26        82.74195
781.67        83.15964
782.09        84.25167
782.50        85.50491
782.91        84.65472
783.33         82.3595
783.74        81.59876
784.15        82.52254
784.57        83.15383
784.98        83.19708
785.39        83.17065
785.81        83.01492
786.22        82.48403
786.63        81.89974
787.04         81.8423
787.46        82.37653
787.87        83.33393
788.28        84.37195
788.70         84.8898
789.11        84.74197
789.52        84.13419
789.93        83.38168
790.35        82.92046
790.76        82.87552
791.17        83.17086
791.58        83.62289
792.00        83.84989
792.41        83.74743
792.82         83.5108
793.23        83.36963
793.65        83.15784
794.06        83.10269
794.47        84.35506
794.88        86.14048
795.29        85.72776
795.71         83.3487
796.12        81.31998
796.53        80.24055
796.94        79.60477
797.35        79.61725
797.76        80.82845
798.18          82.621
798.59        83.66296
799.00        83.55354
799.41        82.64225
799.82        81.43519
800.23        80.76462
800.64        80.84368
801.06        81.32729
801.47         82.0205
801.88        82.48834
802.29        82.57616
802.70        82.46211
803.11        82.23844
803.52        82.01511
803.93        81.85688
804.34        81.71854
804.75        81.67596
805.17        81.80906
805.58        82.19457
805.99         82.8671
806.40         83.5644
806.81         83.9197
807.22        83.69671
807.63        82.54472
808.04        80.94875
808.45        80.13127
808.86        80.27424
809.27          80.854
809.68         81.5795
810.09        82.08482
810.50        82.19219
810.91        82.03168
811.32        81.74287
811.73        81.55405
812.14        81.52996
812.55        81.53101
812.96        81.58286
813.37        81.74737
813.78        82.00714
814.19        82.40348
814.60         82.6761
815.01        82.40965
815.42        81.56338
815.83        80.22874
816.24        78.90796
816.65        78.47989
817.05        79.19695
817.46        80.77473
817.87        82.55324
818.28        83.34856
818.69        82.83924
819.10        81.32423
819.51        79.54235
819.92        78.75086
820.33        79.27628
820.74        80.72588
821.14        82.40834
821.55        83.09808
821.96        82.52572
822.37        81.13053
822.78        79.51212
823.19        78.54382
823.60        78.46943
824.00        79.05595
824.41        79.93893
824.82        80.62751
825.23        80.88481
825.64         80.8903
826.04        80.74321
826.45        80.57384
826.86        80.43219
827.27        80.22119
827.68        79.97388
828.08        79.81527
828.49        79.70847
828.90        79.71439
829.31        79.73403
829.72        79.56128
830.12        79.19597
830.53        78.70045
830.94        78.30142
831.35        78.29711
831.75         78.7781
832.16        79.58122
832.57        80.53817
832.97        81.27934
833.38        81.58162
833.79        81.52882
834.20        81.26508
834.60        81.01709
835.01        80.88776
835.42        80.81772
835.82        80.70734
836.23        80.31664
836.64         79.6683
837.04        78.88493
837.45        78.21883
837.86        78.05764
838.26        78.47733
838.67        79.30743
839.08        80.28302
839.48        80.91561
839.89        81.00905
840.29        80.72611
840.70        80.20708
841.11        79.65962
841.51        79.18507
841.92        78.69301
842.33        78.30927
842.73        78.25522
843.14        78.51748
843.54        79.09745
843.95        79.69248
844.35        79.84646
844.76        79.44761
845.17        78.64685
845.57        77.76054
845.98        77.29195
846.38         77.3577
846.79        77.78116
847.19        78.36782
847.60         78.6722
848.00        78.60012
848.41        78.28223
848.81         77.8867
849.22        77.58054
849.62        77.47875
850.03        77.51627
850.43        77.73255
850.84        78.11304
851.24        78.66675
851.65         79.2131
852.05        79.82162
852.46        80.41659
852.86        80.96094
853.27        81.49629
853.67        81.61636
854.07        80.83478
854.48        79.22937
854.88        76.98876
855.29        74.90209
855.69        74.10181
856.10        74.79195
856.50        76.85456
856.90        79.53384
857.31        81.07433
857.71        80.93221
858.12        79.54114
858.52        77.74323
858.92        76.65722
859.33        76.52776
859.73        77.06246
860.13        78.01907
860.54        78.88253
860.94        79.49445
861.34        79.97518
861.75        80.36383
862.15        80.81101
862.55        81.30937
862.96        81.74496
863.36        82.08504
863.76        82.26382
864.17         82.2704
864.57        82.20805
864.97        82.12807
865.38        82.08391
865.78         82.1487
866.18         82.2347
866.58        82.38812
866.99        82.67221
867.39        83.13647
867.79         83.7868
868.19        84.34399
868.60        84.27868
869.00        83.50573
869.40        82.19058
869.80        80.99197
870.21        80.92946
870.61        82.31052
871.01        84.82014
871.41        87.68151
871.81        89.55711
872.22        90.03632
872.62        89.46142
873.02         88.4976
873.42        88.33089
873.82        89.12261
874.22        90.35337
874.63        91.57188
875.03         91.8873
875.43        90.95066
875.83        89.79016
876.23         87.9248
876.63        87.32932
877.03        88.13387
877.44        90.64608
877.84        101.5067
878.24        98.48346
878.64        97.95184
879.04        96.11877
879.44        92.33653
879.84        90.25911
880.24        92.97629
880.64        94.84781
881.04        96.32986
881.44        97.27631
881.84        96.90462
882.24        95.58999
882.65        94.22195
883.05        93.74301
883.45        94.33408
883.85        95.82999
884.25        97.65077
884.65        98.64652
885.05         98.4586
885.45        97.51234
885.85        96.38995
886.25        95.87456
886.65        96.13808
887.05        96.88968
887.45        97.86394
887.85        98.59341
888.25        98.88232
888.65         98.9257
889.04        98.72413
889.44        98.31829
889.84        97.75628
890.24        96.98241
890.64        96.27811
891.04        96.09377
891.44        96.47832
891.84        97.34947
892.24        98.24066
892.64        98.29014
893.04        97.38809
893.44        95.93734
893.83        94.55206
894.23        94.12016
894.63        94.79665
895.03        96.22631
895.43        98.16989
895.83        100.1521
896.23        101.8404
896.63        103.3248
897.02        104.1832
897.42        103.7681
897.82        102.1185
898.22        99.52127
898.62         96.8605
899.01        95.44128
899.41        95.56061
899.81         96.8017
900.21        98.58184
900.61        99.90974
901.00        100.4341
901.40         100.442
901.80        100.1068
902.20        99.70463
902.59        99.36243
902.99        98.95258
903.39        98.50041
903.79        98.10092
904.18        97.79575
904.58        97.64957
904.98        97.69373
905.38        97.93472
905.77        98.31596
906.17        98.79598
906.57        99.24551
906.96        99.52848
907.36        99.55699
907.76        99.38068
908.15        99.04868
908.55        98.54631
908.95        97.96412
909.34        97.28914
909.74        96.69953
910.14        96.28053
910.53        96.09019
910.93        96.17432
911.33        96.48367
911.72        96.92963
912.12        97.37024
912.52        97.71406
912.91        98.05434
913.31        98.56649
913.70        99.31597
914.10        100.2823
914.49        101.0595
914.89        100.5987
915.29        98.75498
915.68        96.00439
916.08        93.57889
916.47        92.58669
916.87        93.10783
917.26        94.76687
917.66        96.71843
918.05        97.58572
918.45        96.98574
918.84         95.3992
919.24        93.60899
919.64         92.7488
920.03        93.13246
920.42        94.37041
920.82        95.97845
921.21        97.28416
921.61         97.8449
922.00        97.91813
922.40         97.5652
922.79        96.84297
923.19        95.90014
923.58        94.68993
923.98         93.3447
924.37        92.44209
924.77        92.37749
925.16        91.46785
925.55        92.70176
925.95        94.01656
926.34        96.14944
926.74        98.66273
927.13        100.9351
927.52        101.7337
927.92         100.942
928.31        98.97243
928.70        96.42191
929.10         94.3246
929.49         92.9966
929.89        92.19312
930.28        92.08692
930.67        92.93958
931.07         94.5388
931.46        96.87035
931.85        99.01326
932.24        99.57085
932.64        98.30701
933.03        95.45882
933.42         91.8549
933.82        89.41476
934.21        88.73787
934.60        89.31687
934.99        90.37283
935.39        91.03057
935.78        91.13654
936.17         90.7687
936.56        89.74628
936.96        90.02443
937.35        88.74346
937.74        88.37213
938.13        88.30523
938.53         89.0853
938.92        90.73142
939.31        93.27524
939.70        96.10675
940.09        97.40555
940.49         96.5098
940.88        94.12977
941.27        91.46339
941.66        89.93848
942.05        89.77328
942.44        90.50676
942.84        91.73785
943.23         92.8739
943.62        93.54336
944.01        93.91146
944.40        93.97785
944.79        93.71544
945.18        93.12137
945.57        92.10192
945.97        90.66452
946.36        89.12529
946.75        87.87595
947.14        87.05613
947.53        86.71167
947.92        86.76748
948.31         87.1612
948.70        87.94429
949.09        89.00474
949.48        89.99389
949.87         90.6787
950.26        90.99193
950.65        91.13433
951.04        91.51487
951.43        92.20177
951.82        93.05685
952.21        93.64528
952.60        93.30352
952.99         91.9445
953.38        89.83803
953.77        87.64881
954.16        86.30804
954.55        86.01683
954.94        86.59811
955.33        87.39378
955.72        87.27324
956.11        85.98264
956.50        83.83225
956.89        81.75085
957.28        81.43018
957.66        83.37223
958.05        86.75643
958.44        90.40565
958.83        92.60208
959.22        92.88113
959.61        91.67467
960.00        89.66206
960.39        87.95889
960.78        86.97075
961.16        86.48117
961.55        86.06947
961.94        85.06776
962.33        83.42979
962.72         81.5572
963.11        80.12035
963.49        79.95074
963.88        81.13999
964.27        83.45875
964.66        86.18784
965.04        87.74571
965.43        87.41651
965.82        85.77373
966.21        83.71944
966.60        82.43349
966.98        82.18349
967.37        82.55197
967.76        83.28886
968.15        83.90325
968.53        84.15144
968.92        84.17657
969.31        84.02056
969.69        83.65479
970.08        83.13533
970.47        82.48822
970.86        81.73785
971.24        80.98813
971.63        80.31961
972.02         79.7329
972.40        79.52728
972.79         80.1579
973.17         81.7805
973.56        84.12472
973.95        86.54153
974.33        87.76202
974.72        87.32051
975.11        85.58746
975.49        83.40115
975.88        81.93389
976.26        81.36536
976.65        81.45024
977.04        81.60966
977.42        80.57688
977.81         78.1316
978.19        74.97172
978.58        72.65479
978.96        72.65069
979.35        75.13299
979.74        79.78542
980.12        85.73725
980.51        89.73037
980.89        90.62453
981.28        89.18293
981.66        86.66605
982.05        84.76353
982.43        83.87421
982.82        83.48741
983.20        83.68358
983.59        84.70907
983.97        86.61336
984.35        89.51012
984.74        92.61889
985.12        94.35436
985.51        93.65716
985.89        90.75806
986.28         86.5351
986.66        82.56626
987.04        79.81861
987.43        78.16849
987.81        77.16994
988.20         76.0909
988.58        74.55667
988.96        72.36366
989.35        70.01959
989.73         69.9819
990.12        73.40555
990.50        78.94729
990.88        83.26951
991.27        84.08993
991.65         81.9358
992.03        77.54951
992.42        72.77867
992.80        70.89095
993.18        72.80635
993.56        76.65076
993.95        80.84731
994.33        84.14964
994.71        86.16051
995.10        87.61101
995.48        88.23051
995.86         87.3562
996.24        84.92663
996.63        80.70619
997.01         75.8997
997.39        74.10632
997.77        76.84032
998.15        83.23349
998.54        90.08948
998.92        93.09404
999.30        90.96356
999.68        84.84821
1000.06        76.40733
1000.45        69.86873
1000.83         67.1441
1001.21         66.9333
1001.59        68.38596
1001.97        70.62801
1002.35        73.33513
1002.73        77.38476
1003.12        81.55639
1003.50        81.96364
1003.88        77.13276
1004.26        69.05191
1004.64        61.63642
1005.02        58.24914
1005.40        59.13209
1005.78        64.15095
1006.16        73.89006
1006.54        83.52419
1006.92        86.91587
1007.30         85.7473
1007.69        83.23779
1008.07        81.58692
1008.45        80.78689
1008.83        79.72648
1009.21        76.70313
1009.59        65.29231
1009.97        31.05019
1010.35         -15.931
1010.73       -7.576674
1011.11        20.85488
1011.49        41.02883
1011.86        55.66363
1012.24        64.50359
1012.62        69.91766
1013.00        74.02737
1013.38        78.11707
1013.76        84.02832
1014.14        94.80988
1014.52        111.6974
1014.90        133.5579
1015.28        154.8463
1015.66        164.9279
1016.04        156.4859
1016.41        130.7676
1016.79        97.42893
1017.17         68.3441
1017.55        50.01405
1017.93        39.88279
1018.31        35.83599
1018.69        37.19592
1019.06        43.31374
1019.44        54.55899
1019.82        74.42491
1020.20        105.2601
1020.58        149.8273
1020.95         219.163
1021.33        353.3045
1021.71       -1555.305
1022.09       -16.63819
1022.46        70.99493
1022.84        102.2315
1023.22        119.8765
1023.60        141.3582
1023.97        297.0343
1024.35        41.80609
1024.73        72.09072
