SpectraSmart Spectrum 2.9.0.0
--------- Device Information -----------
Spectrum Name :  反射率_0
Saving Time :  2024/04/26 01:41:24
Spectro-Module Model Name : SE2030-DUVN
Spectro-Module Serial Number : OS361AC55029948
Wavelength Start : 200
Wavelength End : 1025
Wavelength Unit : Wavelength(nm)
Spectrum Unit : Reflectance(%)
-----------Spectrum Setting ------------
Integration Time : 20ms
Average : 10
Boxcar : 0
Background removal :  enabled
linearity correction :  enabled
SC :  disabled
Intensity correction :  disabled
DWT denoise :  enabled
savitzky-golay :  disabled
FFT :  disabled
Running average :  disabled
Kalman :  disabled
High pass :  disabled
---------------BEGIN--------------------
Wavelength(nm)             Reflectance(%)
200.29               0
200.75        104.0072
201.21         91.4394
201.67        76.96735
202.13        68.21885
202.58        66.18034
203.04        68.94147
203.50        74.15075
203.96        77.67479
204.42        78.19507
204.88        77.21573
205.34        76.18504
205.80        76.65755
206.26        79.48269
206.72        86.04094
207.18        98.69144
207.64        109.5041
208.10        101.7272
208.55        86.20782
209.01        76.81743
209.47        74.48374
209.93        76.41414
210.39        81.35423
210.85        86.79147
211.31        87.25665
211.77        81.21857
212.23        70.87837
212.69        60.71623
213.14        57.61319
213.60         62.5936
214.06        73.62588
214.52        86.28054
214.98        93.70634
215.44         94.0648
215.90        89.57131
216.36        82.95072
216.81        77.94279
217.27        75.86535
217.73        75.43636
218.19        74.95286
218.65        72.07762
219.11        65.76463
219.57        55.33748
220.02        42.04527
220.48        33.88715
220.94        35.51228
221.40        45.00251
221.86        54.56658
222.32        55.95874
222.77        49.97635
223.23        41.08979
223.69        33.62648
224.15        32.02229
224.61        35.75909
225.06        42.48812
225.52        49.22215
225.98        52.30626
226.44        51.02945
226.90        47.05769
227.36        42.13058
227.81        38.49204
228.27         37.0805
228.73        37.01724
229.19        37.93536
229.65        39.30944
230.10        40.75379
230.56        42.29276
231.02        43.76231
231.48        44.94731
231.93        45.81395
232.39        46.39742
232.85        46.66386
233.31        46.63501
233.77        46.32833
234.22        45.73422
234.68         44.9987
235.14         44.3622
235.60        43.99591
236.05        44.00058
236.51        44.27576
236.97        44.58318
237.43        44.96445
237.88        45.61462
238.34        46.96139
238.80        49.91499
239.26        54.58188
239.71          60.552
240.17        66.53284
240.63        71.01707
241.08        73.54675
241.54        74.22178
242.00        73.94022
242.46        74.17906
242.91        76.03718
243.37        80.70705
243.83         95.2983
244.28        142.2391
244.74        193.4756
245.20        163.3437
245.66        137.0382
246.11        130.6497
246.57        136.6001
247.03        161.1537
247.48        233.2539
247.94        193.5996
248.40        115.9059
248.85         92.4487
249.31        85.93156
249.77        86.03986
250.22        90.15521
250.68         98.5536
251.14        111.3643
251.59        121.3664
252.05        120.4443
252.51        111.4202
252.96         100.496
253.42        94.34502
253.88        92.76543
254.33        93.30551
254.79        95.94654
255.25        100.0358
255.70        104.3832
256.16        109.0793
256.62         112.135
257.07        111.4719
257.53        108.0958
257.99        102.6386
258.44        96.98988
258.90        94.45659
259.35        93.96917
259.81        94.44797
260.27         93.8467
260.72        90.19238
261.18        84.47365
261.63        77.57787
262.09        71.28449
262.55        66.83331
263.00        64.16315
263.46        62.76018
263.91        61.69516
264.37        60.39658
264.83        58.57251
265.28        56.32397
265.74        54.05807
266.19        52.09518
266.65        50.73953
267.11        49.79556
267.56        48.92426
268.02        47.73022
268.47        46.06514
268.93        44.07357
269.38        42.03641
269.84        40.67681
270.30        40.17794
270.75        40.33293
271.21        40.68768
271.66        40.55217
272.12        39.75508
272.57        38.49991
273.03        37.16916
273.48        36.24796
273.94        35.88054
274.39        35.84402
274.85        35.87647
275.31        35.57957
275.76        34.85856
276.22        33.89363
276.67        32.87712
277.13        32.18933
277.58        31.83602
278.04        31.71838
278.49        31.58692
278.95        31.17462
279.40        30.40864
279.86        29.47383
280.31        28.50307
280.77        27.81458
281.22        27.43074
281.68         27.2717
282.13         27.2321
282.59        27.21289
283.04        27.15778
283.50        27.13745
283.95        27.09038
284.41        26.94664
284.86        26.69875
285.32        26.37852
285.77        26.10895
286.22        26.15096
286.68        26.50824
287.13        27.05511
287.59        27.58019
288.04        27.75041
288.50        27.53355
288.95        27.03251
289.41        26.43995
289.86        25.92833
290.32        25.62935
290.77        25.48317
291.22        25.52808
291.68         25.7802
292.13        26.23145
292.59        26.88556
293.04        27.70205
293.50        28.60693
293.95        29.55348
294.40        30.52761
294.86        31.50306
295.31        32.46062
295.77         33.4129
296.22        34.36473
296.68        35.35275
297.13         36.4051
297.58        37.54052
298.04        38.76531
298.49        40.07455
298.95        41.51167
299.40        43.06623
299.85        44.72296
300.31        46.42884
300.76        48.09467
301.21        49.66772
301.67        51.19446
302.12        52.63451
302.58        54.04263
303.03        55.41215
303.48        56.76453
303.94         58.2131
304.39        59.86337
304.84        61.73751
305.30        63.79193
305.75        65.82625
306.20        67.56264
306.66          68.965
307.11        70.06457
307.57         71.0826
308.02        72.22781
308.47         73.6118
308.93        75.17444
309.38        76.77796
309.83        78.25994
310.29        79.56176
310.74        80.69945
311.19        81.76639
311.65        82.90388
312.10        84.12737
312.55        85.39915
313.00        86.57016
313.46         87.4094
313.91        87.85635
314.36        88.00633
314.82         88.0933
315.27        88.41976
315.72        89.09857
316.18        90.04647
316.63        91.09705
317.08        91.92838
317.53        92.43973
317.99        92.70087
318.44        92.90466
318.89        93.37064
319.35        94.14323
319.80        95.15142
320.25        96.09698
320.70        96.49402
321.16        96.25362
321.61        95.55024
322.06        94.76343
322.51        94.48592
322.97        94.83316
323.42          95.663
323.87        96.66428
324.32        97.29614
324.78        97.38377
325.23         97.1393
325.68        96.74594
326.13        96.53333
326.59        96.59132
327.04        96.83867
327.49        97.22153
327.94        97.69432
328.39        98.21243
328.85        98.77953
329.30        99.37054
329.75        99.75087
330.20        99.89585
330.66        99.85408
331.11        99.83379
331.56        100.1024
332.01         100.747
332.46        101.6684
332.92        102.7475
333.37        103.9593
333.82        105.1331
334.27        106.2822
334.72        107.2174
335.17        107.6396
335.63         107.519
336.08        107.0003
336.53        106.3974
336.98        106.2725
337.43        106.7744
337.88        107.7452
338.34        108.9682
338.79        110.1679
339.24         111.168
339.69        112.0688
340.14        112.7696
340.59         113.098
341.05         113.071
341.50        112.7234
341.95        112.3415
342.40        112.3916
342.85         112.969
343.30        113.9502
343.75        115.0851
344.20        115.9073
344.66        116.2759
345.11        116.3089
345.56        116.1402
346.01        115.9795
346.46        115.9135
346.91         115.875
347.36        115.8851
347.81        115.9893
348.26        116.1907
348.72        116.5141
349.17        116.8703
349.62        117.1423
350.07        117.2901
350.52        117.3252
350.97        117.3097
351.42        117.3541
351.87        117.4744
352.32        117.6287
352.77        117.7301
353.22        117.6467
353.67        117.3573
354.13        116.9308
354.58        116.4358
355.03        116.0382
355.48        115.7768
355.93        115.6023
356.38        115.4437
356.83        115.1875
357.28        114.7966
357.73        114.3048
358.18        113.7445
358.63        113.1637
359.08        112.5847
359.53        111.9998
359.98        111.3934
360.43        110.7452
360.88        110.0469
361.33        109.2969
361.78        108.5453
362.23        107.8699
362.68        107.2911
363.13        106.8092
363.58        106.3146
364.03        105.6302
364.48        104.7311
364.93        103.6628
365.38        102.6195
365.83        101.9171
366.28        101.6063
366.73        101.5757
367.18        101.5741
367.63        101.1923
368.08        100.3496
368.53         99.2112
368.98        97.99356
369.43        97.01878
369.88        96.37619
370.33        95.95094
370.78        95.68682
371.23        95.49577
371.68        95.32066
372.13        95.19619
372.58        95.03679
373.03        94.69097
373.48        94.14718
373.93        93.45125
374.38         92.7445
374.83        92.25232
375.28        92.01476
375.72        91.94229
376.17        91.94485
376.62        91.84731
377.07        91.58089
377.52        91.18332
377.97        90.66598
378.42        90.05233
378.87        89.38391
379.32        88.68819
379.77        87.99383
380.22        87.33409
380.67        86.71429
381.11        86.12266
381.56        85.61044
382.01        85.25962
382.46        85.08527
382.91        85.08552
383.36        85.10011
383.81        84.87605
384.26        84.37434
384.71          83.653
385.15        82.94524
385.60        82.68468
386.05        82.87988
386.50         83.3853
386.95        83.86504
387.40        83.75731
387.85        82.99079
388.29        81.79244
388.74        80.61752
389.19        79.77283
389.64         79.3181
390.09        79.09511
390.54        79.06783
390.98        79.17847
391.43        79.35282
391.88        79.58509
392.33        79.70172
392.78        79.36063
393.23        78.57156
393.67        77.65793
394.12        76.91214
394.57         76.0481
395.02        75.35538
395.47        75.78484
395.91         77.1416
396.36        77.96852
396.81        78.05355
397.26        78.09057
397.71        78.10233
398.15        77.73192
398.60        77.11284
399.05        76.48946
399.50          75.927
399.95        75.00801
400.39        74.25411
400.84        74.08008
401.29        74.46874
401.74        74.66753
402.18        74.55153
402.63        74.28996
403.08        74.06287
403.53        74.14515
403.97        74.55354
404.42        75.08022
404.87        75.50366
405.32        75.45702
405.76        74.85277
406.21        74.09075
406.66        73.35873
407.11        72.47788
407.55        71.77228
408.00         72.1551
408.45        73.38493
408.90        74.04335
409.34         73.8177
409.79         73.2004
410.24        72.47684
410.68        72.03734
411.13        71.98831
411.58        72.05618
412.03        72.20079
412.47         72.4876
412.92        72.82168
413.37        73.20892
413.81        73.50656
414.26        73.54253
414.71        73.27534
415.15        72.74319
415.60        72.13087
416.05        71.76429
416.49        71.73273
416.94        71.96792
417.39        72.26161
417.83        72.24026
418.28        71.83591
418.73        71.17886
419.17        70.54321
419.62        70.36328
420.07         70.6826
420.51        71.35178
420.96        72.07945
421.41        72.33661
421.85        71.98159
422.30         71.4279
422.74        70.83188
423.19        70.22812
423.64         69.7942
424.08        70.14424
424.53        71.07806
424.98        71.59467
425.42        71.53071
425.87        71.63544
426.31           71.91
426.76         71.4898
427.21        70.72227
427.65        71.09989
428.10        72.39652
428.54        73.24088
428.99        73.52843
429.44         73.3421
429.88        72.91734
430.33        73.80322
430.77        75.19228
431.22        74.08475
431.66        71.09032
432.11        69.46558
432.56        69.59925
433.00        70.49178
433.45        71.99419
433.89        73.97511
434.34        74.88706
434.78        76.28326
435.23        72.75237
435.67        69.80618
436.12         72.7404
436.57        73.84106
437.01          74.543
437.46        74.78086
437.90        74.74573
438.35        73.78191
438.79        74.11112
439.24        73.82989
439.68        73.61253
440.13        73.41015
440.57        73.45855
441.02        74.29414
441.46        75.56081
441.91        76.53557
442.35        76.84832
442.80        75.91145
443.24        74.27392
443.69        74.74681
444.13        76.91342
444.58        76.92204
445.02        74.99923
445.47        74.65916
445.91        75.85404
446.36        76.18027
446.80        75.54119
447.24        75.40651
447.69        75.91848
448.13        75.35931
448.58        76.09062
449.02        76.25283
449.47        76.50056
449.91        76.72512
450.36        76.91828
450.80        77.04745
451.25        77.05772
451.69        76.89951
452.13        76.59891
452.58        76.19182
453.02        75.80912
453.47         75.6965
453.91        75.86881
454.36        76.25047
454.80        76.68026
455.24        76.78017
455.69        76.48907
456.13        76.09594
456.58        75.74973
457.02        75.10332
457.46        74.52477
457.91        74.77631
458.35        75.64616
458.79        76.03477
459.24        75.86523
459.68        75.67357
460.13        75.51116
460.57        75.17503
461.01        74.75628
461.46        74.21669
461.90        73.58962
462.34        73.69812
462.79        73.34476
463.23        73.57851
463.68        73.95469
464.12         74.4901
464.56        74.97715
465.01        75.07861
465.45        74.72997
465.89         74.4514
466.34        74.16404
466.78        73.13306
467.22        71.94704
467.67        71.14089
468.11          72.603
468.55        73.45928
468.99        73.28127
469.44        72.87612
469.88        72.26376
470.32         72.1414
470.77        72.43696
471.21        72.34972
471.65        71.86445
472.10        71.63416
472.54        71.69183
472.98        71.76714
473.42         71.8381
473.87          72.058
474.31        72.31487
474.75        72.30277
475.20         72.0626
475.64        71.98664
476.08        72.10421
476.52        71.94052
476.97        71.45528
477.41        71.72913
477.85        71.40891
478.29        71.25296
478.74        71.66793
479.18        71.75751
479.62        70.86294
480.06        71.47361
480.50         71.7587
480.95        72.25359
481.39        72.56413
481.83        71.01737
482.27        71.67277
482.72        71.22083
483.16        69.95587
483.60        70.08666
484.04         71.6585
484.48        71.95472
484.93        71.51379
485.37        73.57265
485.81        73.61852
486.25        72.88425
486.69        99.72401
487.14        80.51074
487.58        50.06306
488.02        61.27408
488.46         69.2697
488.90        68.56732
489.34         69.8908
489.79        69.19888
490.23        70.94136
490.67        71.72622
491.11         70.7131
491.55        70.76971
491.99        71.42023
492.43        71.31621
492.88        70.54566
493.32        70.46426
493.76         70.5956
494.20        70.82224
494.64        70.90265
495.08        71.07407
495.52        71.35707
495.96        71.33392
496.41        71.00056
496.85        71.48872
497.29        72.46477
497.73        71.15535
498.17        68.66297
498.61        68.86321
499.05        71.70664
499.49        72.16043
499.93        71.77953
500.37        71.44948
500.82        71.09101
501.26        71.04397
501.70        71.44739
502.14        71.57272
502.58         71.4108
503.02        71.25626
503.46        71.11265
503.90        70.76797
504.34        70.34618
504.78        70.14969
505.22        70.19749
505.66        70.47784
506.10        70.90053
506.54        71.01607
506.98        70.69608
507.42        71.15687
507.86        70.59222
508.30        70.45238
508.74        70.59815
509.18        70.71493
509.62        70.84389
510.06        70.90115
510.50        70.88527
510.94        70.80866
511.38        70.72352
511.82         70.7114
512.26        70.78773
512.70        70.92138
513.14        71.06578
513.58        71.14996
514.02        71.14828
514.46         71.0782
514.90        70.97404
515.34        70.87451
515.78        70.78494
516.22        70.75746
516.66        70.77229
517.10        70.62915
517.54         70.3224
517.98         70.4795
518.42        70.28198
518.86        70.38735
519.30        70.54103
519.74        70.79039
520.18        71.06239
520.62        71.23125
521.06        71.27677
521.50        71.23076
521.93         71.1377
522.37        71.07148
522.81        71.06197
523.25        71.08463
523.69        71.13979
524.13        71.22978
524.57        71.34503
525.01        71.48305
525.45        71.60866
525.89        71.66332
526.32        71.62578
526.76        71.51022
527.20        71.34515
527.64        71.19657
528.08        71.10284
528.52        70.99593
528.96        70.83815
529.40        70.76667
529.83        70.81735
530.27        70.23781
530.71         70.4544
531.15        70.40963
531.59        70.52618
532.03        70.73112
532.46        71.01652
532.90        71.33652
533.34        71.63971
533.78        71.92475
534.22        72.11848
534.66        72.12415
535.09        71.92524
535.53          71.584
535.97        71.18335
536.41        70.87827
536.85        70.72166
537.28        70.68641
537.72        70.72582
538.16         70.7692
538.60        70.79133
539.04        70.75822
539.47        70.69306
539.91        70.81966
540.35        71.06235
540.79        71.10085
541.22        70.94341
541.66        70.89756
542.10        70.96409
542.54        70.95993
542.97        70.89918
543.41        70.91621
543.85        71.00719
544.29        71.15762
544.72         71.2725
545.16        71.23588
545.60        71.02668
546.04        70.67626
546.47        70.34253
546.91        70.32703
547.35        70.65996
547.79        71.17751
548.22        71.64801
548.66        71.85896
549.10        71.64806
549.53        70.82723
549.97        69.79436
550.41        69.07656
550.84        69.38372
551.28        69.87208
551.72         70.4809
552.15        70.90604
552.59           71.03
553.03        70.94177
553.46        70.71882
553.90        70.56321
554.34        70.52538
554.77        70.46816
555.21        70.36819
555.65        70.42107
556.08         70.6572
556.52        70.17577
556.96        70.60391
557.39        70.55704
557.83        70.55119
558.27        70.57537
558.70        70.65469
559.14        70.79424
559.57        70.95922
560.01        71.11581
560.45        71.21995
560.88        71.30826
561.32        71.33359
561.75        71.06535
562.19        70.64088
562.63         70.2454
563.06        70.00776
563.50         70.1763
563.93        70.61295
564.37        70.85336
564.80        70.79757
565.24        70.69221
565.68        70.58119
566.11        70.39941
566.55        70.42056
566.98        70.36039
567.42        70.33561
567.85        70.60119
568.29        71.11042
568.72        71.31039
569.16        71.38199
569.60        71.84513
570.03        72.32192
570.47        72.60271
570.90        72.15411
571.34        70.42262
571.77        71.52132
572.21        71.53868
572.64        71.06445
573.08        70.05796
573.51         67.0592
573.95        69.64866
574.38         74.0433
574.82        71.93663
575.25        72.01614
575.69        69.51493
576.12        68.32336
576.56        67.32489
576.99        68.78024
577.42        72.32813
577.86        72.46522
578.29        71.69786
578.73        75.72394
579.16        69.61581
579.60        63.57256
580.03        66.28877
580.47        70.32526
580.90        72.66857
581.33        71.24796
581.77        70.24152
582.20        77.56374
582.64        77.88631
583.07        66.00711
583.51        64.51439
583.94        62.93382
584.37        65.71796
584.81        69.13499
585.24        72.94806
585.68        74.56123
586.11        73.95501
586.54        68.33125
586.98          66.131
587.41        66.69666
587.85         70.0536
588.28        72.83142
588.71        69.25436
589.15        66.96337
589.58        68.43396
590.01        68.77473
590.45        69.88841
590.88        70.77266
591.31        69.87283
591.75        69.01212
592.18         68.8743
592.61        70.54692
593.05        70.94318
593.48        74.41922
593.91        75.41186
594.35        69.23704
594.78        67.71542
595.21        67.04684
595.65        69.98529
596.08        72.84341
596.51        69.78245
596.94        67.80846
597.38        68.44471
597.81        71.32754
598.24        73.15361
598.68        71.84812
599.11         70.6766
599.54        73.28217
599.97        74.77548
600.41        69.74585
600.84        69.87706
601.27        71.21518
601.70        70.07675
602.14         69.9832
602.57        68.95084
603.00         69.6812
603.43        71.37398
603.87         72.7767
604.30        72.22531
604.73        70.02709
605.16        68.83185
605.60        69.42128
606.03        70.56098
606.46        71.67065
606.89        71.40724
607.32        69.50642
607.76        68.81099
608.19        71.58765
608.62        70.71998
609.05        69.56614
609.48        69.89406
609.92        69.53391
610.35        68.93605
610.78         71.4968
611.21        72.56496
611.64        68.94437
612.07        69.60754
612.50        70.07185
612.94        70.46438
613.37        69.70047
613.80        70.00686
614.23        70.27805
614.66        70.19135
615.09         70.4417
615.52        70.47106
615.96        70.37018
616.39        70.56087
616.82        69.90174
617.25        69.14941
617.68        70.26123
618.11        70.75874
618.54        71.05687
618.97        70.43958
619.40        69.33349
619.84        69.28956
620.27        70.21611
620.70         70.8566
621.13        71.01072
621.56        70.36673
621.99        69.24582
622.42        70.07439
622.85        72.33573
623.28        71.45846
623.71        71.43046
624.14        71.11619
624.57        70.78831
625.00        70.27618
625.43        70.68145
625.86        70.09781
626.29        70.17422
626.72          70.813
627.15        70.38093
627.58        70.50884
628.01        70.60207
628.44        70.69132
628.87        70.77318
629.30        70.98092
629.73         71.2495
630.16        71.31625
630.59        71.15131
631.02        70.85468
631.45        70.51302
631.88        70.25182
632.31        70.11319
632.74        70.05425
633.17        70.06118
633.60        70.11382
634.03         70.1935
634.46        70.31462
634.89        70.44198
635.32        70.50007
635.75        70.48414
636.18        70.43601
636.61         70.3913
637.04        70.38718
637.47        70.43631
637.89        70.54299
638.32        70.65237
638.75         70.7125
639.18        70.70413
639.61        70.64974
640.04         70.5547
640.47        70.42632
640.90        70.28043
641.33         70.1149
641.76        69.93839
642.18        69.86757
642.61        69.91403
643.04        69.89278
643.47        69.74376
643.90        70.27332
644.33        70.01809
644.76        70.15746
645.18        70.24239
645.61        70.26572
646.04        70.20805
646.47        70.06285
646.90        69.93087
647.33          69.925
647.75        70.08781
648.18         70.4335
648.61         70.7538
649.04        70.72292
649.47        70.30894
649.89         69.4884
650.32        68.68693
650.75        68.72865
651.18        69.56776
651.61        70.42939
652.03        70.89938
652.46        70.91624
652.89        70.79665
653.32        70.04539
653.74        69.13744
654.17        70.71925
654.60        71.03622
655.03        69.03976
655.46        70.10155
655.88        73.76998
656.31        79.29164
656.74        184.6837
657.16        120.5511
657.59        42.18629
658.02        31.08731
658.45        53.22132
658.87        68.08813
659.30        70.75648
659.73        69.93677
660.15        67.65707
660.58        69.63844
661.01        71.42995
661.44        69.35006
661.86        68.63274
662.29        68.47374
662.72        69.20721
663.14        70.58966
663.57        70.57137
664.00        69.40493
664.42         69.1802
664.85        69.96615
665.27        70.41879
665.70        70.34268
666.13        70.19198
666.55        69.95411
666.98        69.48874
667.41         68.9782
667.83         68.7809
668.26        68.96909
668.69         69.4054
669.11        69.84978
669.54        70.25298
669.96        69.87966
670.39        69.38451
670.82        68.80968
671.24        68.54248
671.67        68.71005
672.09        69.21391
672.52        69.74165
672.94        70.25651
673.37        69.53664
673.80        69.25198
674.22        69.15415
674.65        69.05363
675.07        68.96074
675.50        68.88074
675.92        68.83787
676.35        68.90225
676.77        69.07286
677.20        69.25205
677.62        69.42583
678.05        69.57647
678.47        69.68018
678.90        69.74921
679.32        69.79276
679.75         69.7009
680.17        69.75317
680.60        69.72797
681.02        69.68079
681.45        69.52975
681.87        69.28456
682.30        69.02163
682.72        68.82356
683.15         68.7142
683.57        68.78874
684.00        69.18318
684.42        69.88651
684.85        70.22503
685.27        70.15573
685.70        69.92565
686.12         69.6408
686.54        69.44778
686.97         69.3904
687.39        69.43646
687.82        69.51105
688.24        69.55256
688.66        69.52326
689.09        69.44334
689.51        69.36311
689.94        69.39459
690.36        69.54245
690.78        69.60801
691.21        69.59238
691.63        69.74911
692.06        70.00405
692.48        69.96955
692.90        69.70459
693.33        69.61245
693.75        69.72124
694.17        69.81831
694.60        69.89051
695.02        69.98222
695.44        70.04559
695.87        70.26237
696.29        70.57185
696.71        70.33749
697.14        69.80315
697.56        70.20148
697.98        71.19743
698.41        71.52142
698.83        70.27264
699.25        69.74398
699.68        69.76681
700.10        69.68313
700.52        69.51215
700.94        69.65629
701.37        70.04288
701.79         70.3979
702.21        70.62749
702.64        70.80606
703.06        70.89053
703.48        70.80932
703.90        70.57889
704.33        70.21873
704.75        69.82716
705.17        69.65469
705.59        69.76586
706.01        69.98566
706.44         70.1963
706.86         70.8102
707.28        70.83101
707.70        71.01849
708.12         71.1016
708.55        71.10906
708.97        71.03093
709.39        70.86742
709.81        70.68928
710.23        70.60786
710.66        70.65519
711.08        70.83932
711.50        71.03973
711.92        71.07527
712.34        70.90994
712.76        70.58298
713.19        70.25555
713.61        70.21835
714.03        70.51185
714.45        71.04642
714.87        71.58282
715.29        71.74272
715.71        71.45015
716.13        70.82948
716.56         70.1288
716.98        69.77947
717.40        69.88614
717.82        70.32025
718.24        70.87791
718.66        71.21022
719.08        71.21498
719.50        71.00721
719.92        70.70812
720.34        70.52673
720.76         70.5279
721.19        70.51592
721.61        70.68035
722.03        70.84151
722.45        71.03043
722.87        71.25546
723.29        71.46291
723.71        71.54358
724.13        71.46829
724.55        71.29449
724.97        71.10377
725.39        70.94019
725.81        70.81937
726.23        71.10422
726.65        71.06969
727.07        71.19774
727.49        71.26602
727.91        71.32617
728.33        71.37035
728.75        71.39722
729.17        71.41488
729.59        71.39944
730.01        71.40742
730.43        71.52496
730.85        71.76479
731.27        72.12856
731.69        72.48916
732.10        72.61652
732.52        72.46577
732.94        72.14509
733.36        71.85134
733.78        71.76734
734.20        71.94096
734.62        72.61356
735.04        73.51533
735.46        73.47226
735.88        72.71481
736.30        72.92689
736.72        74.05373
737.13        74.44371
737.55        73.87656
737.97        73.67783
738.39        73.91813
738.81        73.32957
739.23        72.31525
739.65        73.19846
740.06        75.44153
740.48         75.6552
740.90        73.92843
741.32        73.03001
741.74        73.26226
742.16         73.3616
742.57        73.40693
742.99          74.139
743.41        75.29167
743.83        75.98383
744.25        76.04894
744.67        75.71451
745.08        75.23844
745.50        75.03713
745.92        75.24326
746.34        75.71175
746.75        76.24961
747.17        76.53707
747.59        76.51235
748.01         76.2835
748.42        76.06647
748.84         76.1804
749.26        76.69814
749.68        77.48299
750.09        78.31509
750.51        78.83771
750.93        78.96577
751.35        78.75114
751.76        78.34247
752.18        78.16702
752.60         78.2191
753.01        78.06216
753.43        77.77102
753.85        77.86231
754.27        78.37563
754.68        79.07984
755.10        79.79285
755.52        80.37009
755.93        80.71711
756.35        80.81831
756.77        80.80882
757.18         80.7915
757.60        80.80203
758.02        81.14887
758.43        81.60027
758.85        81.01251
759.26        79.78181
759.68        79.79263
760.10         80.8713
760.51        81.29273
760.93        80.84199
761.34        79.81261
761.76         79.4487
762.18        79.08878
762.59        79.11246
763.01         79.2599
763.42        79.59802
763.84        80.08746
764.26        80.66286
764.67        81.23367
765.09        81.55202
765.50        81.23302
765.92        80.34335
766.33        78.98662
766.75        77.67493
767.16        77.27077
767.58        77.90137
768.00        79.37737
768.41        81.29773
768.83        82.54649
769.24        82.67656
769.66        82.03564
770.07         81.0442
770.49        79.73905
770.90        78.51775
771.32         79.1883
771.73        81.15718
772.15        80.55986
772.56        77.89587
772.97        77.48573
773.39         79.1935
773.80        79.78594
774.22        79.02759
774.63         78.8747
775.05        79.31069
775.46        79.50115
775.88        79.36221
776.29        79.12209
776.70         78.8806
777.12         78.8287
777.53        79.02061
777.95        79.35077
778.36        79.63987
778.77        79.57806
779.19        79.15591
779.60        78.47771
780.02        77.83814
780.43        77.78123
780.84        78.45154
781.26        79.22577
781.67        79.94312
782.09        81.26543
782.50        82.57758
782.91        81.48448
783.33        78.77248
783.74         77.7727
784.15        78.69315
784.57        79.41566
784.98        79.58057
785.39        79.66228
785.81        79.55582
786.22        78.99059
786.63        78.33893
787.04         78.2979
787.46        78.94214
787.87         80.0342
788.28        81.19017
788.70        81.76466
789.11        81.59241
789.52        80.89954
789.93        80.01772
790.35        79.40392
790.76        79.20677
791.17        79.35667
791.58        79.68984
792.00        79.89363
792.41        79.87199
792.82        79.69637
793.23        79.60972
793.65         79.6832
794.06        80.03513
794.47        81.33389
794.88        82.81046
795.29        82.25016
795.71        79.91347
796.12        77.60084
796.53        76.05238
796.94        75.64596
797.35         76.4537
797.76        77.83894
798.18        79.15047
798.59        80.03735
799.00        80.13917
799.41        79.19802
799.82        77.74008
800.23        76.93733
800.64        77.02548
801.06        77.56424
801.47        78.34214
801.88        78.89818
802.29        79.06195
802.70        79.03817
803.11        78.88914
803.52        78.67538
803.93         78.4564
804.34        78.16039
804.75        77.93784
805.17        78.06886
805.58        78.61279
805.99        79.41788
806.40        80.16364
806.81        80.47543
807.22        80.14133
807.63        78.92593
808.04        77.33575
808.45        76.50477
808.86        76.62143
809.27         77.2504
809.68        78.05733
810.09        78.54169
810.50        78.50575
810.91        78.12312
811.32        77.61863
811.73        77.35085
812.14        77.41502
812.55        77.63721
812.96        77.94933
813.37        78.24159
813.78        78.44817
814.19        78.66702
814.60        78.73436
815.01        78.38213
815.42        77.60481
815.83        76.44147
816.24        75.34096
816.65        75.09025
817.05        75.90347
817.46        77.53077
817.87        79.31516
818.28        80.07866
818.69        79.51073
819.10        77.90027
819.51         76.0244
819.92         75.2097
820.33         75.7962
820.74        77.37877
821.14        79.20739
821.55        79.95437
821.96        79.32642
822.37        77.79507
822.78        76.02299
823.19        74.97952
823.60        74.93498
824.00         75.6311
824.41        76.66241
824.82        77.44728
825.23        77.71496
825.64        77.66481
826.04        77.44889
826.45        77.27688
826.86        77.21578
827.27        77.14632
827.68        77.03596
828.08        76.89845
828.49         76.6754
828.90        76.46059
829.31        76.24649
829.72        75.99277
830.12        75.73994
830.53        75.48405
830.94         75.3536
831.35        75.50966
831.75        76.00567
832.16        76.72472
832.57        77.52162
832.97        78.07325
833.38        78.20172
833.79        77.98952
834.20        77.61832
834.60        77.37063
835.01        77.35075
835.42        77.47759
835.82        77.61745
836.23        77.46319
836.64        77.00013
837.04        76.36239
837.45        75.76661
837.86        75.55339
838.26        75.80081
838.67         76.3475
839.08        77.02444
839.48        77.51818
839.89        77.67725
840.29        77.61652
840.70        77.35622
841.11        76.91362
841.51        76.34904
841.92        75.63712
842.33        74.99135
842.73        74.77569
843.14        75.02639
843.54        75.69916
843.95        76.45739
844.35         76.7869
844.76        76.54451
845.17        75.89151
845.57        75.14275
845.98        74.79707
846.38        74.97286
846.79        75.49355
847.19        76.14462
847.60         76.4582
848.00        76.33767
848.41        75.91705
848.81        75.42248
849.22         75.1073
849.62        75.09647
850.03        75.30756
850.43        75.68793
850.84        76.05654
851.24        76.38433
851.65        76.55997
852.05        76.77187
852.46        77.14852
852.86        77.70451
853.27        78.39422
853.67        78.76356
854.07        78.24905
854.48        76.88216
854.88        74.88466
855.29        72.95432
855.69        72.07939
856.10        72.44789
856.50        73.94619
856.90        76.01102
857.31        77.32837
857.71        77.48573
858.12        76.76431
858.52        75.69646
858.92        74.99085
859.33        74.80978
859.73        74.96115
860.13        75.32668
860.54         75.6769
860.94        75.98955
861.34        76.31838
861.75        76.64433
862.15        77.00916
862.55        77.37663
862.96        77.71198
863.36        78.00793
863.76        78.22249
864.17        78.34544
864.57        78.42755
864.97        78.53218
865.38        78.75508
865.78        79.15005
866.18        79.60278
866.58        80.04163
866.99        80.33249
867.39        80.48488
867.79         80.5706
868.19        80.46326
868.60        79.92973
869.00         78.9958
869.40        77.76134
869.80        76.81903
870.21        77.05956
870.61        78.72083
871.01        81.52677
871.41        84.62267
871.81        86.53606
872.22         86.8518
872.62        85.94908
873.02         84.6278
873.42        84.32948
873.82        85.22115
874.22        86.61201
874.63        88.05146
875.03        88.59779
875.43        87.83252
875.83        86.94706
876.23         84.9947
876.63        84.15513
877.03        84.44203
877.44        86.05309
877.84        103.2619
878.24        93.29954
878.64        93.30778
879.04         92.6773
879.44        88.54758
879.84        86.33751
880.24        89.92111
880.64        91.79592
881.04         92.6193
881.44        92.95503
881.84        92.28716
882.24        90.88513
882.65        89.54559
883.05        88.96284
883.45         89.2739
883.85        90.50307
884.25        92.18461
884.65        93.26283
885.05        93.40229
885.45        92.92654
885.85        92.35229
886.25        92.41762
886.65        93.25732
887.05        94.57588
887.45        95.97592
887.85        96.76206
888.25        96.69196
888.65        96.03786
889.04        95.02029
889.44        94.01764
889.84        93.19368
890.24        92.45914
890.64        91.94829
891.04        91.86563
891.44        92.19955
891.84        92.90926
892.24        93.71606
892.64        94.07417
893.04        93.87496
893.44        93.33847
893.83        92.71552
894.23         92.4037
894.63        92.48009
895.03         92.7421
895.43        93.26646
895.83        94.17302
896.23        95.38299
896.63        96.88718
897.02        98.08057
897.42        97.97275
897.82        96.47379
898.22        93.95628
898.62        91.41988
899.01        90.33809
899.41        91.00352
899.81        92.89156
900.21        95.20374
900.61        96.63711
901.00        96.79778
901.40          96.104
901.80        94.98872
902.20        94.11953
902.59         93.7286
902.99        93.59276
903.39        93.58247
903.79        93.50574
904.18        93.30984
904.58        93.15809
904.98        93.15054
905.38         93.4046
905.77        93.88492
906.17        94.45589
906.57        94.99444
906.96        95.39095
907.36        95.54553
907.76        95.53555
908.15        95.28049
908.55        94.54494
908.95        93.40569
909.34        91.92307
909.74        90.56033
910.14        89.85694
910.53        89.95329
910.93        90.75764
911.33        91.90268
911.72        92.71098
912.12        92.88853
912.52        92.59161
912.91        92.16782
913.31        92.05954
913.70        92.39256
914.10         93.0499
914.49        93.68604
914.89        93.44769
915.29        92.16771
915.68        90.21836
916.08        88.55486
916.47        88.01574
916.87          88.663
917.26        90.19961
917.66        91.89864
918.05        92.60175
918.45        92.00472
918.84        90.53403
919.24        88.91711
919.64        88.20168
920.03        88.67359
920.42        89.97533
920.82        91.65446
921.21        93.07093
921.61        93.77415
922.00        93.98491
922.40        93.70564
922.79        92.94168
923.19        91.84856
923.58        90.34574
923.98        88.58476
924.37        87.42487
924.77         87.3946
925.16        85.77128
925.55        87.37677
925.95        88.59986
926.34        90.72464
926.74        93.26696
927.13        95.62059
927.52        96.53837
927.92        95.87089
928.31        94.03344
928.70        91.56467
929.10        89.41512
929.49         87.8984
929.89        86.82079
930.28        86.44042
930.67        87.15623
931.07        88.81659
931.46        91.38783
931.85        93.91383
932.24        94.95335
932.64        94.22956
933.03        91.92941
933.42        88.86681
933.82        86.89248
934.21        86.53223
934.60        87.29655
934.99        88.28122
935.39        88.46815
935.78        87.69031
936.17         85.8302
936.56         82.8364
936.96        83.08209
937.35        81.96095
937.74        83.14152
938.13        84.44469
938.53        85.70068
938.92        86.92573
939.31         88.3639
939.70        89.68272
940.09        89.84466
940.49        88.63783
940.88        86.52774
941.27        84.42789
941.66        83.42495
942.05         83.6328
942.44        84.69733
942.84        86.23109
943.23        87.59879
943.62        88.42217
944.01        88.86552
944.40        88.89035
944.79        88.43591
945.18        87.51749
945.57        86.04816
945.97        84.28172
946.36        82.98809
946.75        82.59422
947.14        82.91988
947.53        83.59877
947.92        84.21089
948.31        84.69328
948.70        85.19656
949.09        85.68865
949.48        86.04476
949.87        86.18356
950.26        86.02088
950.65        85.74327
951.04        85.69707
951.43        85.93826
951.82        86.39884
952.21         86.7305
952.60        86.36719
952.99        85.23027
953.38         83.5323
953.77        81.80502
954.16        80.80201
954.55        80.68105
954.94         81.2904
955.33        82.08594
955.72        82.14153
956.11        81.24606
956.50        79.64554
956.89        78.10349
957.28        78.00551
957.66        79.77426
958.05        82.71466
958.44        85.83675
958.83        87.69515
959.22        87.90646
959.61        86.82077
960.00          85.065
960.39        83.67092
960.78        82.98181
961.16        82.78313
961.55        82.59208
961.94        81.61979
962.33        79.79933
962.72        77.58393
963.11        75.69802
963.49        75.03086
963.88        75.69886
964.27        77.46478
964.66        79.72423
965.04        81.14078
965.43        81.07724
965.82        80.00118
966.21        78.60712
966.60        77.82546
966.98        77.87006
967.37         78.3737
967.76        79.11917
968.15        79.68394
968.53        79.86965
968.92        79.81595
969.31         79.5663
969.69        79.10003
970.08        78.47022
970.47        77.68559
970.86        76.83832
971.24        76.14162
971.63        75.68442
972.02        75.43128
972.40        75.45435
972.79        75.81318
973.17        76.56594
973.56        77.58935
973.95        78.59895
974.33        79.01054
974.72        78.59405
975.11        77.51176
975.49        76.29933
975.88        75.77538
976.26        76.04527
976.65          76.956
977.04        77.95082
977.42        77.68645
977.81        75.79577
978.19        72.89063
978.58        70.43993
978.96        69.83646
979.35        71.26687
979.74        74.43316
980.12        78.73378
980.51         81.6785
980.89        82.46621
981.28        81.61008
981.66        80.01089
982.05        78.85742
982.43        78.40787
982.82        78.27402
983.20        78.47485
983.59        79.12092
983.97        80.26136
984.35        81.99831
984.74        83.79604
985.12        84.69363
985.51        84.02566
985.89        81.90409
986.28        79.07379
986.66        76.69294
987.04        75.40997
987.43        75.05628
987.81        75.03068
988.20        74.50811
988.58        73.17552
988.96         70.7926
989.35        67.90373
989.73        67.38244
990.12        70.75755
990.50        76.55806
990.88        81.17509
991.27        82.01157
991.65        79.56438
992.03        74.70194
992.42        69.24023
992.80         66.4557
993.18        67.44576
993.56        70.39105
993.95        73.88701
994.33        76.92847
994.71        79.04233
995.10        80.84194
995.48          81.847
995.86        81.02303
996.24        78.20856
996.63        73.28879
997.01        67.49856
997.39        64.72651
997.77        66.73852
998.15        72.61334
998.54        79.40849
998.92        83.13129
999.30        82.51557
999.68        78.76207
1000.06        72.80876
1000.45        67.24387
1000.83        63.53334
1001.21        60.97767
1001.59        60.02584
1001.97        61.29004
1002.35        64.65376
1002.73        70.77663
1003.12        77.82643
1003.50        79.58028
1003.88        73.44035
1004.26        62.51665
1004.64        52.21697
1005.02         47.0824
1005.40        47.41014
1005.78        52.65366
1006.16         63.8131
1006.54        76.22295
1006.92        82.34817
1007.30        83.18115
1007.69        81.74282
1008.07        80.48735
1008.45        79.62621
1008.83        77.62138
1009.21        71.90313
1009.59        55.13567
1009.97        13.79825
1010.35       -33.82635
1010.73       -18.39061
1011.11         10.4474
1011.49        28.16671
1011.86        41.32087
1012.24        48.81516
1012.62        52.50951
1013.00        54.18614
1013.38        54.10871
1013.76         54.4836
1014.14        61.67228
1014.52        80.47987
1014.90        112.9259
1015.28        149.8428
1015.66        166.5174
1016.04        148.8751
1016.41        101.7645
1016.79        52.46084
1017.17        29.94726
1017.55        30.60459
1017.93        39.59314
1018.31        49.33211
1018.69        55.98911
1019.06        60.04111
1019.44        63.16245
1019.82        66.32499
1020.20        69.86884
1020.58        73.48587
1020.95        74.76437
1021.33        60.94751
1021.71        402.7051
1022.09        135.1291
1022.46        123.9291
1022.84         122.015
1023.22        124.9901
1023.60        136.5514
1023.97        256.3445
1024.35        54.59675
1024.73        80.99541
