SpectraSmart Spectrum 2.9.0.0
--------- Device Information -----------
Spectrum Name :  反射率_0
Saving Time :  2024/04/26 02:02:46
Spectro-Module Model Name : SE2030-DUVN
Spectro-Module Serial Number : OS361AC55029948
Wavelength Start : 200
Wavelength End : 1025
Wavelength Unit : Wavelength(nm)
Spectrum Unit : Reflectance(%)
-----------Spectrum Setting ------------
Integration Time : 20ms
Average : 10
Boxcar : 0
Background removal :  enabled
linearity correction :  enabled
SC :  disabled
Intensity correction :  disabled
DWT denoise :  enabled
savitzky-golay :  disabled
FFT :  disabled
Running average :  disabled
Kalman :  disabled
High pass :  disabled
---------------BEGIN--------------------
Wavelength(nm)             Reflectance(%)
200.29               0
200.75        97.36928
201.21        92.64544
201.67          86.946
202.13        83.42935
202.58        82.48821
203.04        83.76374
203.50        85.44423
203.96        84.64148
204.42        81.27676
204.88         76.7862
205.34         73.2079
205.80        72.60217
206.26        75.78478
206.72        84.88168
207.18        104.0058
207.64        122.5431
208.10        114.2807
208.55        93.00856
209.01        78.78267
209.47        73.36422
209.93        72.97173
210.39        75.56161
210.85        78.74325
211.31        77.91469
211.77         71.9963
212.23        62.99644
212.69        54.97831
213.14        54.12056
213.60        61.19293
214.06         74.2241
214.52         88.6853
214.98        97.65488
215.44        99.29457
215.90        95.85526
216.36        90.05833
216.81        85.65901
217.27        84.05684
217.73        83.94205
218.19        83.99078
218.65        82.48978
219.11         78.6051
219.57        71.80473
220.02        62.76042
220.48        56.62916
220.94        56.33318
221.40         61.0068
221.86        65.01704
222.32        62.26573
222.77         53.7968
223.23        43.45728
223.69        35.27417
224.15        33.38227
224.61        37.09645
225.06        44.14854
225.52        51.25617
225.98        54.31709
226.44        52.59776
226.90         47.8464
227.36        42.30055
227.81        38.97654
228.27        38.80798
228.73        40.50422
229.19        42.98007
229.65        44.66803
230.10        45.14309
230.56        45.07424
231.02        44.78048
231.48        44.54095
231.93        44.41507
232.39        44.22773
232.85        44.03132
233.31        44.01032
233.77        44.16483
234.22        44.48529
234.68        44.74229
235.14        44.41869
235.60        43.44966
236.05        42.07956
236.51         40.7457
236.97        39.98344
237.43        39.98167
237.88        40.79644
238.34        42.35761
238.80        44.33544
239.26        46.33841
239.71        48.28947
240.17        50.14922
240.63        52.47466
241.08        55.40639
241.54         58.6182
242.00        61.48981
242.46        63.40298
242.91        64.51501
243.37        64.46982
243.83         65.2992
244.28        86.17209
244.74        144.9421
245.20        155.7541
245.66        144.1935
246.11        138.8467
246.57        138.0049
247.03        139.2506
247.48        130.8808
247.94        82.17008
248.40        78.02057
248.85         82.6761
249.31        86.76204
249.77        90.26029
250.22        94.23021
250.68        100.1832
251.14        107.6421
251.59        110.2244
252.05        103.0982
252.51         90.0781
252.96        77.68325
253.42        71.66277
253.88        71.07878
254.33        73.58662
254.79        78.47445
255.25        83.95033
255.70        88.58213
256.16        92.75867
256.62         94.5935
257.07        92.13364
257.53        86.59132
257.99        78.86925
258.44        71.55063
258.90        68.54282
259.35        68.72998
259.81        70.37458
260.27        70.93711
260.72        67.99483
261.18        62.44692
261.63        55.52051
262.09        49.14581
262.55        44.87339
263.00        42.68956
263.46        41.86959
263.91        41.40467
264.37        40.48721
264.83        38.90332
265.28        36.84299
265.74        34.86661
266.19        33.57138
266.65        33.14209
267.11        33.21562
267.56        33.25141
268.02        32.59531
268.47         31.1457
268.93        29.13585
269.38        26.96967
269.84        25.57988
270.30        25.21465
270.75        25.60701
271.21        26.24247
271.66        26.35009
272.12         25.7249
272.57        24.61403
273.03        23.40281
273.48        22.59274
273.94        22.32564
274.39        22.38357
274.85        22.49918
275.31        22.29556
275.76        21.68645
276.22        20.83556
276.67        19.94958
277.13         19.3911
277.58        19.18131
278.04        19.21228
278.49        19.23564
278.95        18.94792
279.40        18.28942
279.86        17.42604
280.31        16.54219
280.77         16.0025
281.22        15.83777
281.68        15.93182
282.13        16.10792
282.59        16.13478
283.04        15.96066
283.50        15.69095
283.95        15.38142
284.41        15.12229
284.86        14.93962
285.32        14.79288
285.77        14.71166
286.22         14.7969
286.68        15.02144
287.13        15.34177
287.59        15.59807
288.04        15.55313
288.50        15.19705
288.95        14.60603
289.41        13.98058
289.86        13.53563
290.32        13.37119
290.77        13.40834
291.22        13.59085
291.68        13.79423
292.13        13.98844
292.59        14.21212
293.04        14.49711
293.50        14.88803
293.95         15.3782
294.40        15.91302
294.86        16.44193
295.31        16.90922
295.77         17.3054
296.22        17.65862
296.68        17.98229
297.13        18.26782
297.58        18.54595
298.04        18.83841
298.49         19.2132
298.95        19.80619
299.40        20.62847
299.85        21.63858
300.31        22.72122
300.76        23.69907
301.21        24.50603
301.67        25.20985
302.12         25.8485
302.58        26.53415
303.03        27.28781
303.48        28.08763
303.94        28.98008
304.39        30.00114
304.84        31.15539
305.30        32.43412
305.75        33.72794
306.20        34.86905
306.66        35.85033
307.11        36.70818
307.57        37.58628
308.02        38.62983
308.47        39.91255
308.93        41.38295
309.38        42.98065
309.83        44.63653
310.29        46.29171
310.74        47.93431
311.19        49.52975
311.65        51.03852
312.10        52.46006
312.55        53.81303
313.00        55.09819
313.46        56.32105
313.91        57.46433
314.36        58.52473
314.82        59.58344
315.27        60.74675
315.72        62.06253
316.18        63.50951
316.63        64.97507
317.08        66.22572
317.53        67.19342
317.99        67.91904
318.44        68.57912
318.89        69.47753
319.35        70.66222
319.80        72.06229
320.25        73.41069
320.70        74.25496
321.16        74.49425
321.61        74.28255
322.06         73.9259
322.51        73.90988
322.97        74.34707
323.42        75.12763
323.87        76.04276
324.32        76.72404
324.78        77.04418
325.23        77.15404
325.68        77.15524
326.13        77.23368
326.59        77.43625
327.04         77.7149
327.49        78.04981
327.94        78.44614
328.39        78.88755
328.85        79.37159
329.30        79.87251
329.75        80.19395
330.20        80.31613
330.66        80.28234
331.11        80.28893
331.56        80.58408
332.01        81.24489
332.46        82.18939
332.92        83.27149
333.37        84.37372
333.82        85.33292
334.27        86.17548
334.72        86.83235
335.17        87.21142
335.63        87.31807
336.08        87.21511
336.53        87.04633
336.98         87.0923
337.43        87.43347
337.88        88.00423
338.34        88.71181
338.79        89.47398
339.24        90.19666
339.69        90.92162
340.14         91.5514
340.59        91.91544
341.05        91.99686
341.50        91.83103
341.95        91.61872
342.40        91.68711
342.85        92.10812
343.30        92.79825
343.75        93.57661
344.20        94.11334
344.66        94.31782
345.11          94.272
345.56        94.11464
346.01         94.0534
346.46        94.15652
346.91        94.36494
347.36        94.61623
347.81        94.82118
348.26        94.96132
348.72        95.08991
349.17        95.23669
349.62        95.49582
350.07         95.8655
350.52        96.28204
350.97         96.6606
351.42        96.88532
351.87        96.92957
352.32        96.83971
352.77        96.64258
353.22        96.38367
353.67        96.09599
354.13        95.78451
354.58        95.48703
355.03        95.31529
355.48        95.27866
355.93        95.35127
356.38        95.41904
356.83         95.2945
357.28          94.936
357.73        94.39506
358.18         93.7861
358.63         93.2955
359.08        92.97066
359.53        92.75664
359.98        92.55833
360.43        92.22749
360.88        91.72485
361.33        91.09483
361.78        90.42557
362.23        89.85598
362.68         89.4267
363.13        89.10574
363.58        88.79639
364.03        88.34571
364.48        87.72578
364.93        86.98527
365.38        86.25154
365.83        85.72965
366.28        85.45049
366.73        85.32602
367.18        85.21198
367.63        84.87837
368.08        84.27676
368.53        83.51402
368.98        82.67254
369.43        81.86593
369.88        81.14632
370.33        80.47638
370.78         79.9247
371.23        79.60909
371.68        79.53276
372.13        79.66024
372.58        79.83436
373.03        79.78016
373.48        79.43121
373.93        78.87145
374.38        78.23451
374.83        77.73278
375.28        77.42272
375.72        77.22037
376.17        77.10138
376.62        76.99911
377.07        76.87398
377.52        76.74204
377.97         76.5579
378.42        76.24433
378.87        75.80414
379.32        75.27695
379.77        74.72324
380.22        74.23074
380.67        73.81591
381.11         73.4483
381.56        73.12878
382.01        72.86182
382.46        72.64697
382.91        72.50552
383.36        72.35965
383.81        72.08465
384.26        71.66829
384.71        71.13551
385.15        70.62279
385.60        70.40372
386.05        70.47018
386.50        70.73192
386.95        70.96864
387.40          70.814
387.85        70.23042
388.29        69.36069
388.74        68.52601
389.19        67.91795
389.64        67.56891
390.09        67.36086
390.54        67.28956
390.98        67.34896
391.43         67.5061
391.88        67.75515
392.33        67.91215
392.78         67.6945
393.23        67.11403
393.67        66.27095
394.12        65.51767
394.57        65.13184
395.02        65.18391
395.47        65.59033
395.91        66.22252
396.36        66.70982
396.81        66.93587
397.26        66.97569
397.71        66.84899
398.15        66.50513
398.60        66.05917
399.05        65.59731
399.50         65.1619
399.95        64.48544
400.39        63.94476
400.84        63.66824
401.29        63.70677
401.74        63.70173
402.18        63.63576
402.63         63.6584
403.08        63.81216
403.53        64.05364
403.97        64.36097
404.42        64.70849
404.87        64.96259
405.32         64.8905
405.76        64.46253
406.21        63.86345
406.66        63.26582
407.11        62.87287
407.55        62.82993
408.00        63.11902
408.45        63.61162
408.90        64.21706
409.34         64.5899
409.79        63.97072
410.24        62.73658
410.68        62.20316
411.13        62.49416
411.58        62.90834
412.03        63.29354
412.47        63.68706
412.92        63.95515
413.37        64.11958
413.81        64.15976
414.26        64.08437
414.71        63.89516
415.15        63.58134
415.60        63.23633
416.05        63.03196
416.49        63.01761
416.94        63.18441
417.39        63.38639
417.83        63.35036
418.28        63.04021
418.73        62.54395
419.17        62.10706
419.62        62.12449
420.07        62.62864
420.51        63.47971
420.96        64.37237
421.41        64.76283
421.85        64.50154
422.30        63.94967
422.74        63.30443
423.19        62.73553
423.64         62.4026
424.08         62.7258
424.53        63.51102
424.98        63.98102
425.42         64.0088
425.87        64.10264
426.31         64.3197
426.76        64.26607
427.21        64.12949
427.65        64.59272
428.10        65.51711
428.54        66.25188
428.99        66.71765
429.44        66.88767
429.88        66.80382
430.33        67.24178
430.77        67.76058
431.22        66.80794
431.66        64.81941
432.11        63.81129
432.56        64.02248
433.00        64.76005
433.45         65.9053
433.89        67.62141
434.34        68.60576
434.78        69.70892
435.23        66.23069
435.67        64.21113
436.12        66.49265
436.57        67.56087
437.01        68.18356
437.46        68.41397
437.90        68.39092
438.35        68.11472
438.79        68.36964
439.24        68.35398
439.68        68.23316
440.13        68.05886
440.57        68.06175
441.02        68.91376
441.46          70.271
441.91        71.18124
442.35        71.32307
442.80        70.43764
443.24        68.99527
443.69        69.31586
444.13         71.0687
444.58        71.00037
445.02        69.34624
445.47        69.19835
445.91        70.43372
446.36        70.87746
446.80        70.43636
447.24        70.23518
447.69        70.33366
448.13        70.46925
448.58        70.65453
449.02        70.90758
449.47        71.18499
449.91        71.43668
450.36        71.63885
450.80        71.78323
451.25        71.84633
451.69        71.76223
452.13        71.55611
452.58        71.26153
453.02        70.97644
453.47        70.89224
453.91        71.02193
454.36        71.31834
454.80        71.68573
455.24        71.79578
455.69        71.58991
456.13        71.42846
456.58        71.44541
457.02        70.69958
457.46        70.50317
457.91        70.79337
458.35        71.63866
458.79        71.95557
459.24        71.69304
459.68        71.34528
460.13         71.0179
460.57        70.68677
461.01        70.46252
461.46        70.07133
461.90        69.76981
462.34        70.07114
462.79        69.86786
463.23        70.03693
463.68        70.20572
464.12        70.63751
464.56        71.15425
465.01        71.24389
465.45          70.883
465.89        70.70031
466.34        70.55402
466.78         69.7103
467.22        68.59457
467.67        67.41128
468.11        68.70176
468.55        69.25675
468.99        69.50181
469.44        69.23973
469.88        68.66781
470.32        68.69895
470.77        69.23981
471.21        69.34394
471.65        68.95724
472.10        68.75123
472.54        68.78164
472.98        68.81126
473.42        68.83231
473.87        69.04588
474.31        69.30568
474.75        69.13813
475.20        68.65682
475.64        68.51457
476.08         68.7435
476.52        68.72598
476.97        68.43405
477.41        68.67453
477.85         68.7888
478.29        68.60461
478.74        69.09814
479.18        68.88005
479.62        67.86596
480.06        68.33745
480.50        68.68283
480.95        69.20863
481.39          69.441
481.83        68.49187
482.27        68.62489
482.72        68.51414
483.16        67.01136
483.60         67.2791
484.04        68.72812
484.48        69.28162
484.93        69.39172
485.37        70.66024
485.81        70.75518
486.25        69.96132
486.69         94.8046
487.14        76.04015
487.58        47.65738
488.02        58.75368
488.46        66.71861
488.90         65.7427
489.34        68.07354
489.79        66.91577
490.23        68.94733
490.67        69.43638
491.11        68.21077
491.55        68.21459
491.99        68.97124
492.43        68.91908
492.88         68.1106
493.32        68.05592
493.76        68.26317
494.20        68.51273
494.64        68.56847
495.08        68.57835
495.52        68.63053
495.96        68.70455
496.41        68.69588
496.85           69.05
497.29        69.52991
497.73        68.17638
498.17        66.06406
498.61        66.46428
499.05        69.29517
499.49        69.91385
499.93        69.76945
500.37        69.51559
500.82        69.07462
501.26        69.03918
501.70        69.22301
502.14        69.43388
502.58        69.48848
503.02        69.37697
503.46        69.08297
503.90        68.58514
504.34        68.06279
504.78         67.8251
505.22        67.93072
505.66         68.2854
506.10        68.76143
506.54        69.03328
506.98        68.97728
507.42        68.87035
507.86        68.90424
508.30        68.10607
508.74        68.64229
509.18        68.71992
509.62        68.87444
510.06        68.93011
510.50        68.86835
510.94        68.71864
511.38        68.54813
511.82        68.50964
512.26         68.6276
512.70        68.85247
513.14        69.09872
513.58         69.2307
514.02         69.2051
514.46        69.05758
514.90         68.8614
515.34        68.71452
515.78        68.63804
516.22        68.67498
516.66        68.77037
517.10        68.65462
517.54        68.30999
517.98        68.42487
518.42        68.16765
518.86        68.30786
519.30        68.58187
519.74        69.01118
520.18          69.466
520.62        69.73292
521.06        69.76835
521.50        69.63007
521.93        69.39985
522.37         69.2142
522.81        69.12777
523.25        69.10329
523.69        69.13091
524.13        69.19543
524.57        69.28375
525.01        69.40564
525.45        69.53638
525.89        69.62965
526.32         69.6657
526.76         69.6478
527.20        69.58916
527.64        69.54353
528.08        69.54105
528.52        69.48814
528.96        69.35224
529.40        69.33601
529.83        69.44743
530.27        68.81553
530.71        68.86843
531.15        68.72948
531.59        68.82499
532.03        69.00382
532.46        69.24377
532.90        69.50841
533.34        69.74763
533.78        69.97026
534.22         70.1143
534.66        70.09647
535.09        69.90498
535.53        69.59235
535.97        69.25152
536.41        69.05373
536.85        69.04342
537.28        69.17871
537.72        69.36819
538.16        69.47098
538.60        69.44747
539.04        69.28811
539.47        69.05976
539.91        69.04813
540.35        69.20081
540.79        69.19289
541.22        69.01869
541.66         68.9525
542.10        68.98727
542.54        68.95474
542.97        68.87862
543.41        68.90028
543.85         69.0168
544.29        69.20981
544.72        69.36653
545.16         69.3407
545.60        69.10435
546.04        68.70782
546.47        68.33804
546.91        68.29861
547.35        68.64144
547.79        69.29485
548.22         69.9546
548.66        70.18321
549.10        69.84857
549.53        68.95316
549.97        67.89706
550.41        67.37777
550.84        67.51919
551.28        68.09841
551.72        68.87938
552.15        69.32758
552.59        69.27384
553.03        69.56238
553.46        69.06606
553.90        69.02404
554.34        69.12373
554.77        69.24735
555.21        69.28539
555.65         69.3835
556.08        69.55971
556.52        68.94562
556.96        69.18307
557.39        68.98763
557.83        68.87933
558.27        68.79755
558.70        68.79144
559.14        68.91634
559.57        69.13098
560.01        69.42769
560.45        69.70879
560.88        69.78881
561.32        69.67254
561.75        69.47515
562.19        69.27237
562.63        68.88235
563.06        68.43752
563.50        68.40752
563.93         68.7137
564.37         68.9082
564.80        68.90305
565.24        68.88329
565.68        68.85004
566.11        68.82346
566.55        68.85919
566.98        68.80906
567.42        68.71566
567.85        68.91834
568.29        69.39268
568.72         69.3884
569.16        69.08121
569.60        69.73318
570.03        70.14835
570.47        70.17463
570.90        69.84121
571.34        68.34765
571.77        69.40273
572.21        69.27988
572.64        69.01294
573.08        67.95285
573.51        64.67123
573.95        67.12788
574.38        71.57056
574.82        69.66628
575.25        69.61745
575.69        67.30066
576.12        65.85271
576.56        65.17721
576.99        66.49808
577.42        69.81158
577.86        69.97651
578.29        69.48323
578.73        73.09783
579.16        67.33633
579.60        61.41943
580.03        64.17774
580.47        68.46918
580.90        69.84878
581.33        68.79732
581.77        67.85674
582.20        74.53259
582.64        73.81133
583.07         63.2913
583.51        62.13099
583.94         61.0328
584.37        63.76805
584.81        67.00219
585.24         70.5462
585.68        72.19041
586.11        71.02142
586.54        66.01979
586.98         64.0695
587.41        64.67516
587.85        67.84337
588.28        70.34113
588.71          67.146
589.15        64.52635
589.58        66.44077
590.01        66.68269
590.45         67.5283
590.88          68.328
591.31         67.5986
591.75        67.22781
592.18        67.27075
592.61        68.71468
593.05        69.27659
593.48        72.01772
593.91        73.01671
594.35        67.57407
594.78        65.45766
595.21        65.23952
595.65        68.04704
596.08        70.99122
596.51        67.72262
596.94        65.95602
597.38        66.46258
597.81        69.12012
598.24        70.95892
598.68        69.58529
599.11        68.33292
599.54        70.95272
599.97        72.10957
600.41         67.7205
600.84        67.35297
601.27        68.95465
601.70        68.16233
602.14        68.12954
602.57        67.11615
603.00        67.41937
603.43        69.21022
603.87        70.70419
604.30        70.24262
604.73        68.03795
605.16        66.64974
605.60        67.75633
606.03        68.87524
606.46        69.69457
606.89        69.71622
607.32         67.2851
607.76        67.32278
608.19        69.45593
608.62        68.89334
609.05        67.67776
609.48        68.18567
609.92        67.91622
610.35        67.65677
610.78        69.62881
611.21        69.89725
611.64          67.077
612.07        67.81351
612.50         68.2682
612.94        68.76491
613.37        68.27954
613.80        68.29865
614.23        68.75688
614.66        68.66826
615.09         68.9761
615.52        69.01065
615.96         68.8768
616.39        68.94434
616.82        68.05675
617.25        67.56322
617.68        68.32716
618.11        68.80389
618.54        69.06764
618.97        68.79971
619.40        67.88998
619.84        67.83581
620.27        68.75041
620.70        69.42879
621.13        69.73753
621.56        68.94275
621.99        67.79856
622.42        68.50272
622.85        70.62238
623.28        70.47742
623.71        69.49341
624.14        69.50737
624.57        69.26525
625.00        68.97287
625.43        69.19111
625.86        68.63056
626.29        68.91431
626.72        69.19962
627.15        69.13535
627.58        69.30323
628.01        69.39614
628.44        69.63142
628.87        69.37769
629.30        69.45544
629.73        70.11665
630.16        70.36214
630.59        69.88893
631.02        69.46688
631.45        69.10914
631.88        68.84151
632.31        68.70726
632.74        68.70907
633.17        68.80579
633.60        68.91382
634.03        69.00792
634.46        69.09415
634.89         69.1436
635.32        69.17947
635.75        69.21311
636.18        68.96449
636.61        68.96231
637.04        68.93999
637.47        69.05273
637.89        69.26923
638.32        69.47819
638.75        69.52901
639.18        69.38228
639.61        69.09818
640.04        68.77357
640.47         68.5593
640.90         68.5011
641.33        68.55169
641.76         68.6339
642.18        68.71883
642.61         68.7754
643.04        68.66399
643.47         68.3843
643.90         68.8211
644.33        68.57133
644.76         68.7563
645.18        68.89699
645.61        68.96382
646.04        68.92854
646.47        68.72929
646.90        68.46922
647.33        68.62423
647.75        68.67026
648.18        69.06868
648.61        69.41503
649.04        69.37184
649.47        68.90138
649.89         67.9699
650.32        67.04417
650.75        67.06793
651.18        67.97153
651.61        68.80099
652.03         69.1837
652.46        69.17386
652.89        69.04993
653.32        68.41089
653.74        67.72523
654.17        68.62222
654.60        69.53951
655.03        67.28543
655.46        68.17457
655.88        71.76147
656.31        76.47027
656.74        172.1089
657.16        112.1676
657.59         39.5566
658.02        29.79473
658.45        51.27893
658.87        66.65206
659.30        69.33302
659.73        67.99982
660.15        65.88599
660.58        68.31876
661.01        70.20113
661.44        67.86773
661.86        67.06973
662.29        67.03236
662.72        67.74686
663.14        68.98714
663.57        68.95367
664.00        67.88323
664.42        67.68798
664.85        68.43286
665.27        68.86243
665.70        68.79675
666.13         68.6704
666.55        68.47128
666.98        68.06599
667.41         67.6066
667.83        67.40058
668.26        67.51506
668.69        67.83114
669.11        68.15406
669.54        68.50539
669.96        68.18465
670.39        67.79174
670.82        67.33475
671.24        67.17978
671.67        67.41413
672.09        67.86414
672.52        68.26445
672.94        68.72551
673.37        68.06956
673.80        67.85763
674.22        67.82416
674.65        67.77279
675.07        67.70135
675.50        67.61842
675.92        67.55798
676.35        67.60389
676.77        67.75822
677.20        67.91884
677.62          68.063
678.05        68.15985
678.47        68.18658
678.90        68.16715
679.32        68.12315
679.75          67.964
680.17        67.96958
680.60        67.91981
681.02        67.86928
681.45        67.74194
681.87        67.54222
682.30        67.32777
682.72        67.16902
683.15        67.09655
683.57        67.18974
684.00        67.53455
684.42        68.13944
684.85        68.40013
685.27        68.29068
685.70         68.0192
686.12        67.71458
686.54        67.56875
686.97        67.62411
687.39        67.83635
687.82        68.07723
688.24        68.18563
688.66        68.09766
689.09        67.87746
689.51        67.64003
689.94        67.54115
690.36        67.63034
690.78        67.84431
691.21        68.09951
691.63        68.27054
692.06        68.31927
692.48        68.29237
692.90        68.23603
693.33        68.20686
693.75        68.23077
694.17         68.2943
694.60         68.3801
695.02        68.46819
695.44        68.51705
695.87        68.63293
696.29        68.82743
696.71        68.73364
697.14        68.46132
697.56        68.84004
697.98        69.66049
698.41        69.35011
698.83        68.64784
699.25        68.19112
699.68        68.24081
700.10        68.18606
700.52        68.04142
700.94         68.1653
701.37        68.49593
701.79        68.82749
702.21        69.07633
702.64        69.30371
703.06         69.4459
703.48        69.39454
703.90         69.1572
704.33        68.76694
704.75        68.33833
705.17         68.1442
705.59        68.25315
706.01        68.48277
706.44         68.7029
706.86        69.28785
707.28        69.25694
707.70        69.38435
708.12        69.41189
708.55        69.33886
708.97        69.17789
709.39        69.00625
709.81        68.88699
710.23        68.84412
710.66        68.89735
711.08        69.10001
711.50        69.32297
711.92        69.34757
712.34        69.13575
712.76        68.74149
713.19        68.33378
713.61        68.21654
714.03        68.44223
714.45        68.92192
714.87        69.43577
715.29         69.6332
715.71        69.43793
716.13        68.96658
716.56        68.44304
716.98        68.21294
717.40        68.35246
717.82        68.82833
718.24        69.48065
718.66        69.56747
719.08        69.74117
719.50         69.5085
719.92        69.19079
720.34        68.94318
720.76        68.83409
721.19        68.68489
721.61        68.70844
722.03         68.7929
722.45        68.98255
722.87        69.26729
723.29        69.56853
723.71        69.74023
724.13        69.74393
724.55         69.6144
724.97        69.42213
725.39        69.29404
725.81        69.26959
726.23        69.31313
726.65        69.39429
727.07        69.46159
727.49        69.50052
727.91        69.53918
728.33        69.57799
728.75        69.61263
729.17        69.64046
729.59        69.64568
730.01        69.65798
730.43        69.72124
730.85        69.84534
731.27        70.04788
731.69        70.24534
732.10        70.27897
732.52        70.12236
732.94        69.86182
733.36        69.65902
733.78        69.64155
734.20        69.83749
734.62        70.49332
735.04        71.35689
735.46        71.30576
735.88        70.57028
736.30        70.77637
736.72         71.8673
737.13        72.24342
737.55        71.69263
737.97        71.48661
738.39        71.70018
738.81        71.15547
739.23        70.22509
739.65        71.06107
740.06        73.16047
740.48        73.36153
740.90        71.75793
741.32        70.96416
741.74        71.25978
742.16        71.41843
742.57        71.50625
742.99        72.24516
743.41        73.37219
743.83        74.02327
744.25        74.04108
744.67        73.65147
745.08        73.13264
745.50         72.9343
745.92        73.19328
746.34        73.75426
746.75        74.39754
747.17        74.75897
747.59        74.76391
748.01        74.53015
748.42        74.28332
748.84        74.37453
749.26        74.88766
749.68        75.63975
750.09        76.41559
750.51        76.96154
750.93        77.14834
751.35        76.82216
751.76        76.18417
752.18         75.9099
752.60        76.01266
753.01        75.93473
753.43        75.70541
753.85        75.81205
754.27        76.27686
754.68        76.87904
755.10        77.47796
755.52        77.99448
755.93        78.34669
756.35         78.4944
756.77        78.53939
757.18        78.53046
757.60        78.50187
758.02        78.79176
758.43         79.1715
758.85        78.55244
759.26        77.31812
759.68        77.18437
760.10         78.0665
760.51        78.59463
760.93        78.42682
761.34        77.62384
761.76         77.0872
762.18         76.2502
762.59        75.65192
763.01        75.96909
763.42        77.14812
763.84        77.96188
764.26        78.25071
764.67        78.55519
765.09        78.82349
765.50        78.88361
765.92        78.64951
766.33        77.58933
766.75        76.14171
767.16        75.54926
767.58        76.02695
768.00        77.27197
768.41        78.96597
768.83        80.30359
769.24        80.72427
769.66        80.06188
770.07        78.78184
770.49        77.30581
770.90        76.10472
771.32        76.96911
771.73        79.21635
772.15        78.72973
772.56        75.95641
772.97        75.31688
773.39        76.77774
773.80        77.29492
774.22        76.68456
774.63        76.81263
775.05        77.54527
775.46        77.85974
775.88        77.62074
776.29         77.1255
776.70        76.57286
777.12         76.3086
777.53        76.44059
777.95        76.81991
778.36        77.23489
778.77        77.32115
779.19        77.02216
779.60        76.44791
780.02         75.8838
780.43        75.78663
780.84        76.28333
781.26         76.9892
781.67        77.71321
782.09        78.54392
782.50        79.13641
782.91        78.31567
783.33        76.65236
783.74        76.12472
784.15        76.85088
784.57        77.45472
784.98        77.67204
785.39        77.75381
785.81        77.63815
786.22        77.18421
786.63        76.67751
787.04        76.61592
787.46        77.05715
787.87        77.84996
788.28        78.70801
788.70        79.11211
789.11        78.93634
789.52        78.40969
789.93        77.76582
790.35        77.21374
790.76        76.90743
791.17        77.03757
791.58        77.46548
792.00        77.68393
792.41        77.59178
792.82        77.45881
793.23        77.47026
793.65        77.37315
794.06        77.36629
794.47        78.54726
794.88        80.15945
795.29        79.69015
795.71        77.38219
796.12        75.18932
796.53        73.82893
796.94        73.56413
797.35          74.451
797.76        75.89256
798.18        77.23771
798.59         78.1244
799.00        78.19885
799.41         77.2093
799.82        75.69593
800.23        74.84678
800.64        74.90654
801.06        75.44171
801.47        76.22718
801.88        76.78326
802.29         76.9261
802.70        76.84253
803.11        76.62989
803.52        76.41108
803.93        76.26465
804.34        76.11811
804.75         76.0069
805.17        76.09631
805.58        76.44227
805.99        76.71436
806.40         76.8308
806.81        77.38076
807.22        77.96407
807.63        76.96186
808.04        74.91531
808.45        74.09056
808.86        74.68483
809.27        75.57015
809.68        76.34801
810.09        76.77271
810.50        76.64876
810.91        76.08158
811.32        75.33086
811.73        74.81222
812.14        74.64866
812.55        74.68568
812.96        74.88842
813.37        75.18118
813.78        75.49962
814.19        75.92175
814.60        76.23716
815.01        76.10775
815.42        75.50257
815.83        74.47043
816.24        73.43948
816.65        73.17243
817.05        73.88207
817.46        75.31732
817.87        76.88538
818.28        77.52005
818.69        76.94173
819.10        75.42998
819.51        73.67582
819.92        72.84931
820.33        73.26209
820.74        74.56168
821.14        76.12055
821.55        76.81593
821.96        76.39119
822.37        75.23004
822.78        73.87074
823.19        73.10184
823.60        73.14103
824.00        73.78294
824.41        74.65562
824.82        75.24281
825.23        75.32336
825.64        75.08389
826.04        74.72183
826.45        74.51458
826.86        74.53189
827.27        74.63747
827.68        74.73809
828.08        74.73064
828.49        74.51849
828.90        74.22096
829.31        73.84682
829.72        73.40016
830.12        72.95939
830.53        72.52168
830.94        72.25704
831.35        72.38155
831.75        72.95449
832.16        73.85419
832.57        74.89468
832.97        75.66003
833.38        75.93257
833.79        75.80384
834.20         75.4768
834.60        75.28074
835.01        75.33042
835.42        75.52034
835.82        75.70416
836.23        75.55894
836.64        75.06688
837.04        74.38311
837.45        73.72198
837.86        73.41299
838.26        73.53935
838.67        73.94358
839.08        74.50424
839.48        74.98963
839.89        75.26122
840.29        75.40377
840.70        75.35379
841.11        75.00236
841.51        74.38425
841.92        73.51165
842.33        72.66549
842.73        72.32536
843.14        72.55921
843.54        73.27911
843.95        74.11115
844.35        74.47674
844.76        74.20987
845.17        73.50277
845.57        72.66496
845.98        72.17858
846.38        72.16917
846.79        72.46181
847.19        72.89886
847.60        73.12395
848.00         73.0628
848.41        72.81619
848.81        72.52857
849.22        72.32433
849.62        72.29874
850.03         72.4082
850.43        72.64485
850.84        72.92783
851.24        73.25208
851.65         73.4572
852.05        73.71877
852.46        74.14944
852.86        74.74886
853.27         75.5023
853.67        75.87841
854.07        75.18774
854.48        73.46999
854.88         70.9966
855.29         68.6478
855.69        67.69386
856.10        68.38746
856.50        70.56045
856.90        73.45599
857.31        75.28876
857.71         75.4499
858.12        74.35721
858.52        72.80199
858.92        71.84636
859.33        71.73834
859.73        72.18433
860.13        72.96741
860.54        73.64919
860.94        74.09809
861.34        74.43114
861.75        74.68957
862.15        75.00811
862.55        75.37564
862.96        75.70755
863.36        75.94805
863.76        75.99303
864.17        75.83659
864.57        75.59753
864.97        75.38846
865.38        75.36243
865.78        75.59836
866.18        75.95624
866.58        76.40968
866.99        76.90199
867.39        77.43415
867.79        78.05678
868.19        78.48881
868.60        78.21017
869.00        77.16377
869.40        75.52402
869.80        74.06847
870.21         74.0106
870.61        75.67131
871.01        78.66145
871.41        82.03852
871.81        84.17065
872.22        84.57623
872.62           83.71
873.02        82.29599
873.42        81.67139
873.82        81.99338
874.22        82.47585
874.63        82.91471
875.03         83.0472
875.43        82.67812
875.83        82.95557
876.23        81.83763
876.63        81.41111
877.03        81.48455
877.44        82.24926
877.84        104.8278
878.24        88.53693
878.64        89.17406
879.04        89.79182
879.44        85.61018
879.84        83.50791
880.24        87.82513
880.64        89.82488
881.04        90.33508
881.44        90.28031
881.84        89.28943
882.24        87.57626
882.65        86.12286
883.05        85.80583
883.45        86.76207
883.85        89.01882
884.25        91.76615
884.65        93.25724
885.05        92.97283
885.45        91.50323
885.85        89.71217
886.25        88.79436
886.65        89.01392
887.05        89.94599
887.45        91.21472
887.85        92.16045
888.25        92.49966
888.65        92.49421
889.04        92.16752
889.44        91.57184
889.84        90.79202
890.24        89.79736
890.64        88.87608
891.04        88.49769
891.44        88.72265
891.84        89.43917
892.24        90.29827
892.64        90.62901
893.04         90.2964
893.44        89.59774
893.83        88.83739
894.23        88.46095
894.63        88.56817
895.03         88.9389
895.43        89.64513
895.83        90.80235
896.23        92.30687
896.63        94.11724
897.02        95.60114
897.42        95.73821
897.82        94.40143
898.22        91.94583
898.62        89.32755
899.01        87.95956
899.41        88.16287
899.81        89.49454
900.21        91.24493
900.61        92.24797
901.00        92.16901
901.40        91.38336
901.80        90.37167
902.20         89.8678
902.59        90.07344
902.99        90.73044
903.39        91.48978
903.79        91.78328
904.18        91.46494
904.58        90.80259
904.98        90.14175
905.38        90.00294
905.77        90.46085
906.17        91.25694
906.57          92.134
906.96        92.77819
907.36        93.01862
907.76        92.99439
908.15        92.65937
908.55        91.82324
908.95        90.58522
909.34        88.99615
909.74        87.49218
910.14        86.57601
910.53        86.39938
910.93        86.90581
911.33        87.85072
911.72        88.75488
912.12        89.33891
912.52        89.65231
912.91        89.87291
913.31        90.26195
913.70        90.92787
914.10        91.79739
914.49        92.55957
914.89        92.43634
915.29        91.26054
915.68        89.35675
916.08        87.64079
916.47        86.90993
916.87         87.2344
917.26        88.36218
917.66        89.62955
918.05        89.98914
918.45        89.18768
918.84        87.62799
919.24        86.01727
919.64         85.3625
920.03        85.93476
920.42        87.40369
920.82        89.28982
921.21        90.88966
921.61         91.7239
922.00        91.99186
922.40        91.76408
922.79        91.17494
923.19        90.39804
923.58        89.30071
923.98          87.893
924.37        86.77874
924.77        86.42613
925.16        83.95139
925.55        84.91648
925.95        85.57106
926.34        87.51227
926.74        90.18803
927.13         92.8036
927.52        93.78071
927.92         92.9013
928.31        90.68232
928.70        87.91325
929.10        85.95071
929.49        85.16212
929.89        85.18008
930.28        85.89851
930.67        87.13255
931.07        88.56422
931.46        90.32696
931.85        91.78391
932.24        91.97701
932.64        90.78928
933.03        88.31459
933.42        85.22871
933.82        83.11951
934.21        82.46452
934.60        82.90268
934.99        83.68942
935.39        84.06889
935.78         83.9221
936.17        82.98412
936.56        81.05429
936.96        82.07617
937.35        80.68533
937.74        81.17152
938.13        81.70844
938.53        82.50406
938.92        83.59145
939.31         85.1012
939.70        86.67857
940.09        87.17072
940.49        86.26952
940.88        84.46857
941.27        82.65125
941.66        81.88055
942.05        82.28378
942.44        83.49078
942.84        85.12654
943.23        86.59469
943.62        87.51163
944.01        88.01055
944.40        88.04154
944.79        87.52385
945.18        86.45462
945.57        84.75574
945.97        82.63055
946.36        80.79754
946.75        79.80024
947.14        79.59061
947.53        79.90578
947.92        80.38328
948.31        80.93051
948.70        81.65741
949.09        82.51917
949.48        83.31957
949.87         83.8952
950.26        84.15501
950.65        84.18109
951.04        84.19313
951.43        84.25401
951.82        84.32493
952.21        84.24332
952.60        83.77596
952.99        82.89407
953.38        81.66556
953.77        80.44204
954.16        79.69865
954.55        79.52151
954.94        79.88163
955.33        80.22847
955.72        79.61954
956.11        77.89611
956.50        75.30046
956.89        72.87976
957.28        72.54759
957.66        74.83431
958.05        78.87276
958.44        83.23196
958.83        85.78871
959.22        86.01096
959.61        84.46254
960.00        82.01103
960.39        80.10744
960.78        79.24554
961.16        79.04481
961.55        79.05424
961.94        78.53097
962.33         77.3264
962.72        75.86553
963.11        74.59554
963.49        74.00454
963.88        74.16135
964.27        74.91739
964.66        75.95155
965.04        76.62049
965.43        76.58228
965.82         76.0792
966.21        75.53452
966.60        75.52551
966.98        76.18313
967.37        77.28802
967.76        78.53055
968.15        79.29084
968.53        79.33582
968.92        78.80403
969.31        78.05888
969.69        77.56315
970.08        77.42827
970.47        77.56107
970.86        77.63865
971.24        77.10713
971.63        75.84322
972.02        74.01709
972.40        72.24959
972.79        71.61591
973.17        72.53355
973.56        74.66413
973.95        77.24594
974.33         78.7573
974.72        78.61083
975.11        77.23237
975.49        75.51267
975.88         74.7198
976.26        75.05743
976.65        76.23472
977.04        77.48133
977.42        77.03536
977.81        74.43624
978.19        70.55522
978.58        67.23793
978.96        66.25273
979.35        67.85205
979.74        71.68929
980.12        76.96754
980.51        80.68532
980.89        81.76982
981.28        80.82997
981.66        79.06142
982.05        78.07133
982.43        78.14482
982.82        78.70114
983.20        79.49386
983.59        80.25079
983.97        80.91847
984.35        81.68434
984.74        82.16518
985.12        81.86352
985.51        80.41756
985.89        77.84672
986.28        74.89557
986.66         72.6049
987.04        71.51624
987.43        71.52714
987.81        71.75893
988.20        70.98716
988.58        68.77159
988.96        64.62907
989.35        59.38303
989.73        57.71522
990.12        62.62011
990.50        71.83431
990.88        79.70879
991.27        82.10745
991.65        79.66847
992.03        73.66605
992.42        66.75446
992.80        63.76178
993.18        66.02966
993.56        70.99996
993.95        76.23825
994.33        79.55602
994.71        80.49868
995.10         80.2375
995.48         79.0565
995.86        77.08407
996.24        74.52731
996.63        71.03163
997.01        67.52744
997.39        66.94955
997.77        70.38229
998.15        76.99895
998.54        83.96037
998.92        87.60934
999.30        86.82117
999.68        82.57565
1000.06        75.81635
1000.45        69.35028
1000.83        64.83299
1001.21        61.71563
1001.59        60.36429
1001.97        61.11948
1002.35        63.78063
1002.73        69.01426
1003.12        75.18155
1003.50        76.71808
1003.88         71.3019
1004.26        61.60913
1004.64         52.5308
1005.02        48.28633
1005.40        49.19709
1005.78        54.86854
1006.16        65.95576
1006.54        77.04408
1006.92        81.03397
1007.30        79.82261
1007.69        76.88296
1008.07        74.51388
1008.45        72.45505
1008.83        68.77557
1009.21        59.48475
1009.59        32.86175
1009.97       -30.61863
1010.35       -100.8792
1010.73       -70.64573
1011.11       -18.48313
1011.49        14.43362
1011.86        36.78401
1012.24        49.56029
1012.62        56.47504
1013.00        60.53353
1013.38        62.94407
1013.76        66.00873
1014.14         74.9111
1014.52        92.98998
1014.90        120.9744
1015.28        150.2442
1015.66          160.05
1016.04        139.1025
1016.41        92.88501
1016.79        46.63726
1017.17        25.61462
1017.55        26.17815
1017.93        34.88853
1018.31         44.4441
1018.69        51.29826
1019.06          55.921
1019.44        59.52618
1019.82        63.81618
1020.20        71.45603
1020.58        85.41179
1020.95        110.6832
1021.33        149.3165
1021.71       -113.6668
1022.09        120.5975
1022.46        141.8612
1022.84        153.9501
1023.22        166.8846
1023.60        194.0405
1023.97        444.6919
1024.35        24.43119
1024.73         73.4146
