SpectraSmart Spectrum 2.9.0.0
--------- Device Information -----------
Spectrum Name :  反射率_0
Saving Time :  2024/04/26 01:49:20
Spectro-Module Model Name : SE2030-DUVN
Spectro-Module Serial Number : OS361AC55029948
Wavelength Start : 200
Wavelength End : 1025
Wavelength Unit : Wavelength(nm)
Spectrum Unit : Reflectance(%)
-----------Spectrum Setting ------------
Integration Time : 20ms
Average : 10
Boxcar : 0
Background removal :  enabled
linearity correction :  enabled
SC :  disabled
Intensity correction :  disabled
DWT denoise :  enabled
savitzky-golay :  disabled
FFT :  disabled
Running average :  disabled
Kalman :  disabled
High pass :  disabled
---------------BEGIN--------------------
Wavelength(nm)             Reflectance(%)
200.29               0
200.75        85.39934
201.21        83.41554
201.67        80.38905
202.13        78.53822
202.58        78.21381
203.04        79.26959
203.50        80.26691
203.96        79.02488
204.42        75.66767
204.88        71.40623
205.34        68.06921
205.80        67.47484
206.26        70.33871
206.72        78.69426
207.18        96.31194
207.64        113.2018
208.10        105.2558
208.55        85.48949
209.01        72.40506
209.47        67.68236
209.93          67.831
210.39        71.01579
210.85          74.926
211.31        74.95811
211.77        69.89825
212.23        61.60822
212.69        54.15645
213.14        53.78736
213.60        61.21178
214.06        74.35679
214.52        88.34596
214.98        95.81822
215.44        95.00893
215.90        88.47491
216.36        79.63029
216.81        73.19958
217.27        70.77786
217.73        70.90178
218.19        71.48805
218.65         69.7687
219.11         64.6764
219.57        55.65916
220.02        44.44777
220.48        39.58325
220.94        45.01839
221.40         57.6954
221.86        68.21507
222.32        67.32829
222.77        56.82108
223.23        42.55202
223.69        30.32843
224.15        25.94401
224.61         28.7589
225.06        35.77625
225.52        43.26443
225.98        46.57419
226.44        44.82093
226.90        40.05331
227.36         34.5204
227.81        31.18217
228.27        31.02395
228.73        32.75385
229.19        35.48671
229.65        37.96512
230.10        39.67414
230.56        40.99914
231.02        42.03669
231.48        42.84652
231.93         43.4914
232.39        43.90974
232.85        44.19109
233.31        44.55901
233.77        45.05307
234.22         45.6616
234.68        46.24649
235.14        46.43193
235.60         46.1676
236.05        45.65092
236.51        45.19049
236.97        45.19743
237.43        45.85902
237.88        47.24203
238.34        49.38262
238.80        52.17603
239.26         55.2458
239.71        58.51018
240.17        61.33891
240.63        63.38208
241.08        64.66364
241.54        65.11308
242.00        65.22234
242.46        65.82042
242.91        67.70724
243.37        72.11575
243.83        86.04087
244.28        133.4301
244.74        190.8284
245.20        163.7423
245.66        136.6765
246.11        129.0136
246.57        132.8419
247.03        152.0605
247.48         207.177
247.94        166.9325
248.40        104.9533
248.85        87.34053
249.31        83.18489
249.77        84.57732
250.22        89.70588
250.68        99.30004
251.14        113.1668
251.59        122.3932
252.05        118.0644
252.51        104.3501
252.96        89.62232
253.42        81.83849
253.88        80.57571
254.33        82.97748
254.79        88.24258
255.25        94.55243
255.70        100.3181
256.16        105.8238
256.62         109.437
257.07        109.4663
257.53        106.8915
257.99         102.183
258.44         96.9464
258.90        94.19006
259.35        93.03282
259.81        92.72546
260.27        91.53667
260.72        87.76888
261.18        82.31913
261.63        75.87218
262.09        70.05046
262.55        65.93694
263.00        63.42986
263.46        62.07079
263.91        60.94877
264.37        59.49114
264.83        57.42984
265.28        54.88876
265.74        52.31234
266.19        50.10348
266.65        48.59849
267.11        47.58572
267.56         46.7238
268.02        45.60323
268.47        44.06602
268.93        42.25115
269.38        40.40091
269.84        39.16452
270.30        38.69561
270.75        38.79787
271.21        39.05468
271.66        38.83968
272.12        38.00414
272.57        36.74879
273.03        35.43042
273.48        34.49605
273.94        34.08665
274.39        33.99454
274.85        34.01266
275.31        33.82312
275.76        33.33052
276.22         32.6749
276.67        31.95388
277.13        31.40773
277.58        31.02851
278.04        30.77337
278.49        30.48767
278.95        30.03622
279.40        29.36717
279.86        28.60693
280.31         27.8324
280.77        27.27642
281.22        26.93658
281.68        26.76712
282.13        26.67062
282.59        26.55364
283.04        26.37583
283.50        26.21011
283.95        26.03296
284.41        25.83332
284.86        25.61357
285.32        25.38714
285.77        25.24092
286.22        25.37493
286.68        25.77874
287.13        26.34801
287.59        26.88548
288.04        27.08307
288.50        26.91378
288.95        26.46347
289.41         25.9312
289.86        25.50388
290.32        25.30774
290.77        25.27967
291.22        25.42452
291.68        25.70435
292.13        26.11129
292.59        26.67802
293.04        27.41164
293.50        28.31373
293.95        29.35513
294.40         30.4898
294.86        31.67273
295.31        32.85592
295.77        34.03288
296.22        35.21596
296.68        36.40211
297.13        37.55482
297.58        38.68861
298.04        39.83224
298.49        41.05424
298.95        42.51608
299.40        44.23356
299.85        46.15746
300.31        48.17298
300.76        50.08579
301.21        51.80992
301.67        53.42263
302.12        54.91432
302.58        56.39065
303.03        57.85775
303.48         59.3185
303.94         60.8699
304.39        62.59653
304.84        64.51091
305.30        66.56947
305.75        68.58546
306.20        70.30078
306.66        71.68469
307.11        72.77074
307.57         73.7408
308.02        74.74039
308.47        75.88124
308.93        77.12143
309.38        78.41428
309.83        79.74318
310.29         81.0678
310.74         82.3527
311.19        83.56418
311.65        84.64342
312.10        85.57076
312.55        86.38509
313.00        87.05808
313.46        87.56128
313.91        87.89662
314.36         88.0906
314.82        88.31945
315.27        88.79689
315.72        89.59412
316.18        90.65263
316.63        91.77337
317.08        92.57894
317.53        92.96339
317.99        93.00356
318.44        92.95648
318.89        93.25127
319.35         93.9614
319.80         94.9969
320.25        96.00655
320.70        96.40723
321.16        96.08527
321.61        95.24597
322.06        94.32356
322.51         93.9935
322.97        94.38612
323.42        95.32657
323.87        96.44753
324.32        97.11538
324.78        97.13152
325.23        96.74306
325.68        96.17997
326.13        95.84755
326.59         95.8597
327.04        96.10676
327.49        96.52518
327.94        97.05255
328.39        97.63032
328.85        98.27186
329.30        98.91457
329.75        99.25941
330.20        99.27193
330.66        99.01517
331.11        98.76769
331.56        98.91225
332.01        99.56597
332.46          100.61
332.92        101.8541
333.37        103.1345
333.82        104.2398
334.27        105.2174
334.72        105.9634
335.17        106.3291
335.63        106.3149
336.08         105.999
336.53        105.6013
336.98        105.5391
337.43        105.9217
337.88        106.6469
338.34        107.5375
338.79        108.3785
339.24        109.0334
339.69        109.5893
340.14        110.0025
340.59        110.2007
341.05          110.21
341.50        110.0302
341.95        109.8463
342.40        109.9673
342.85        110.4498
343.30        111.2115
343.75        112.0497
344.20        112.5933
344.66        112.7481
345.11        112.6104
345.56        112.3272
346.01        112.1247
346.46        112.0807
346.91        112.1232
347.36        112.2319
347.81        112.3817
348.26        112.5548
348.72        112.7877
349.17        113.0135
349.62        113.1605
350.07        113.2076
350.52        113.1586
350.97        113.0682
351.42        113.0332
351.87        113.0679
352.32         113.138
352.77        113.1714
353.22         113.056
353.67        112.7696
354.13        112.3673
354.58        111.8898
355.03        111.4621
355.48        111.1108
355.93        110.7946
356.38        110.4654
356.83         110.046
357.28         109.515
357.73        108.9083
358.18        108.2412
358.63        107.5343
359.08        106.8089
359.53        106.0664
359.98        105.3373
360.43        104.6693
360.88        104.0607
361.33        103.4873
361.78        102.9195
362.23        102.3084
362.68        101.6476
363.13        100.9724
363.58        100.2676
364.03         99.5047
364.48        98.69238
364.93        97.83295
365.38        97.02478
365.83         96.4319
366.28        96.06281
366.73        95.84361
367.18        95.62015
367.63        95.13982
368.08        94.36048
368.53        93.40614
368.98        92.37418
369.43        91.40441
369.88        90.55557
370.33        89.77126
370.78        89.14967
371.23        88.85528
371.68        88.88766
372.13        89.19935
372.58        89.52493
373.03        89.41112
373.48        88.76183
373.93        87.71702
374.38        86.57174
374.83        85.78489
375.28        85.46317
375.72        85.45113
376.17        85.57287
376.62        85.51447
377.07        85.17046
377.52        84.63132
377.97        83.98434
378.42        83.36432
378.87        82.82783
379.32        82.34438
379.77         81.8605
380.22        81.29854
380.67         80.6427
381.11         79.9241
381.56        79.24316
382.01        78.76365
382.46        78.52759
382.91        78.50024
383.36        78.51849
383.81        78.32417
384.26        77.86642
384.71        77.21273
385.15        76.54929
385.60        76.22841
386.05        76.25479
386.50        76.50323
386.95        76.72763
387.40         76.5247
387.85        75.85346
388.29         74.8864
388.74        73.95827
389.19        73.24617
389.64        72.78931
390.09        72.47234
390.54         72.3295
390.98        72.42049
391.43        72.70448
391.88        73.13321
392.33        73.46313
392.78        73.27921
393.23        72.57195
393.67        71.62193
394.12        70.78423
394.57        70.02741
395.02        69.57996
395.47        70.02349
395.91         71.1556
396.36        71.84103
396.81        71.89221
397.26        71.81728
397.71        71.67635
398.15        71.28224
398.60        70.76924
399.05        70.26947
399.50        69.81281
399.95        69.07777
400.39        68.47439
400.84        68.17532
401.29        68.24639
401.74        68.29144
402.18        68.28632
402.63        68.39686
403.08        68.63769
403.53        68.90526
403.97        69.17127
404.42        69.43424
404.87        69.56693
405.32        69.35896
405.76        68.79101
406.21        68.01794
406.66        67.26051
407.11        66.80534
407.55        66.75735
408.00        67.09131
408.45        67.62402
408.90         67.9151
409.34        67.79769
409.79        67.33557
410.24        66.73698
410.68        66.38897
411.13        66.37519
411.58        66.49021
412.03        66.70731
412.47        67.04929
412.92        67.42155
413.37        67.84405
413.81        68.16728
414.26        68.20261
414.71         67.9134
415.15        67.34886
415.60        66.71182
416.05        66.35654
416.49         66.3757
416.94        66.68896
417.39         67.0786
417.83        67.14911
418.28         66.8259
418.73        66.25602
419.17        65.68654
419.62        65.50848
420.07        65.75864
420.51        66.28617
420.96        66.88891
421.41        67.13703
421.85        66.89639
422.30         66.6791
422.74        66.47393
423.19        65.74889
423.64        64.81823
424.08        65.10211
424.53        66.41435
424.98        67.10009
425.42        66.98227
425.87        67.14336
426.31        67.58144
426.76         67.4747
427.21        67.02103
427.65        67.15439
428.10        67.83926
428.54        68.47483
428.99        69.02023
429.44        69.39681
429.88        69.53548
430.33        70.18089
430.77        70.78419
431.22         69.4941
431.66        66.93069
432.11         65.7422
432.56        66.12564
433.00        66.91531
433.45        68.04934
433.89        69.74573
434.34        70.53682
434.78        72.64482
435.23        69.07358
435.67        66.22192
436.12        68.55628
436.57        69.64719
437.01        70.83874
437.46        71.21893
437.90        70.89667
438.35        70.79707
438.79        70.93449
439.24        70.89423
439.68        70.71159
440.13        70.36072
440.57        70.14905
441.02        71.03454
441.46        72.59688
441.91        73.38749
442.35        73.16091
442.80        72.13811
443.24        70.82446
443.69        71.31052
444.13        73.16801
444.58         73.4155
445.02        71.60966
445.47        71.35661
445.91        72.44836
446.36        72.80093
446.80        72.32471
447.24        72.30659
447.69         72.8449
448.13        72.42294
448.58        73.01095
449.02        73.09146
449.47        73.24258
449.91        73.41824
450.36        73.62435
450.80        73.81392
451.25        73.93082
451.69        73.90624
452.13        73.75436
452.58        73.52306
453.02        73.29103
453.47        73.22032
453.91        73.31633
454.36        73.52074
454.80        73.77522
455.24        73.85796
455.69        73.72952
456.13        73.68497
456.58        73.72121
457.02        73.13985
457.46        72.28685
457.91        72.45752
458.35        73.40241
458.79        73.74417
459.24        73.45638
459.68        73.09619
460.13        72.69783
460.57        72.87632
461.01        72.51202
461.46        71.94731
461.90        71.68491
462.34        72.17381
462.79        71.94524
463.23        72.26144
463.68        72.54978
464.12        72.97375
464.56        73.36973
465.01        73.30808
465.45        72.78166
465.89        72.58847
466.34        72.57245
466.78        71.47784
467.22        69.97359
467.67        69.32264
468.11        71.34014
468.55        72.27337
468.99         72.2751
469.44        71.93295
469.88        71.45578
470.32         71.3267
470.77        71.52341
471.21        71.41587
471.65        71.00096
472.10        70.87952
472.54        71.04539
472.98        71.15076
473.42        71.15779
473.87        71.30441
474.31        71.48373
474.75        71.30353
475.20        70.89283
475.64        70.79623
476.08        71.00352
476.52        71.04674
476.97        70.92101
477.41        70.88534
477.85        70.95359
478.29        71.09486
478.74         71.4221
479.18        71.39226
479.62        70.39486
480.06        70.88652
480.50        71.16808
480.95        71.46927
481.39         71.3822
481.83         70.5245
482.27        70.78227
482.72        70.61482
483.16        69.53582
483.60        69.82352
484.04        71.18353
484.48        71.61938
484.93         71.5611
485.37        73.01109
485.81        73.08546
486.25        71.86228
486.69        97.09206
487.14        78.71306
487.58        49.12941
488.02        60.86554
488.46        68.97906
488.90        68.76245
489.34        70.15044
489.79        69.25673
490.23        71.63697
490.67         72.3056
491.11        70.86625
491.55        70.68215
491.99        71.34062
492.43        71.22169
492.88        70.40476
493.32        70.39809
493.76        70.68333
494.20        71.00873
494.64        71.10384
495.08        71.24001
495.52        71.45125
495.96        71.33646
496.41        70.94101
496.85        71.41549
497.29        72.40741
497.73        71.24644
498.17        68.97492
498.61        69.02122
499.05        71.46085
499.49        72.23466
499.93        72.71185
500.37        72.45399
500.82        71.46958
501.26        71.20679
501.70         71.9465
502.14        72.22417
502.58        72.01453
503.02        71.84692
503.46        71.72002
503.90        71.35223
504.34        70.89068
504.78        70.68661
505.22        70.77908
505.66        71.11379
506.10        71.55829
506.54        71.69169
506.98        71.40107
507.42        71.35436
507.86        71.05447
508.30        70.49151
508.74        70.90373
509.18        71.12164
509.62        71.42046
510.06        71.56187
510.50        71.50959
510.94         71.3151
511.38        71.08613
511.82        71.02297
512.26        71.16462
512.70        71.44025
513.14        71.74751
513.58         71.9231
514.02        71.91782
514.46        71.78822
514.90        71.60313
515.34        71.45341
515.78        71.36264
516.22        71.35754
516.66        71.42598
517.10        71.38595
517.54        71.22346
517.98         71.5408
518.42        71.49248
518.86        71.62868
519.30        71.69257
519.74        71.75392
520.18        71.81114
520.62        71.85606
521.06        71.89851
521.50        71.93945
521.93        71.96659
522.37        71.95672
522.81         71.9153
523.25        71.85415
523.69        71.81632
524.13        71.86729
524.57        72.01433
525.01        72.22974
525.45        72.45732
525.89        72.60772
526.32        72.64579
526.76        72.59467
527.20        72.48271
527.64        72.37463
528.08        72.31047
528.52        72.21854
528.96        72.06506
529.40        72.00045
529.83        72.06261
530.27        71.48125
530.71        71.70541
531.15        71.65434
531.59        71.75562
532.03        71.93796
532.46        72.18874
532.90         72.4524
533.34        72.68319
533.78        72.89326
534.22        73.02358
534.66        72.99678
535.09        72.80122
535.53        72.48933
535.97        72.14756
536.41        71.93704
536.85        71.90071
537.28        72.00106
537.72        72.15408
538.16        72.23114
538.60        72.19791
539.04         72.0416
539.47        71.82444
539.91        71.83286
540.35         72.0075
540.79        72.00917
541.22        71.84068
541.66        71.79787
542.10         71.8725
542.54        71.89615
542.97        71.86817
543.41        71.87212
543.85        71.91535
544.29        72.04973
544.72         72.1817
545.16        72.15181
545.60        71.93638
546.04        71.59037
546.47        71.28837
546.91         71.3149
547.35        71.69332
547.79        72.34514
548.22        72.97635
548.66        73.10915
549.10        72.67842
549.53        71.90419
549.97        71.11736
550.41        70.70009
550.84        70.74779
551.28         71.2001
551.72        71.87053
552.15        72.23604
552.59        72.15347
553.03        72.46332
553.46        71.99809
553.90        71.93482
554.34        71.95711
554.77        71.89314
555.21        71.74147
555.65        71.88232
556.08        72.29642
556.52        71.78665
556.96        72.03297
557.39        71.79927
557.83        71.67408
558.27        71.70053
558.70        71.89676
559.14        72.12566
559.57        72.33353
560.01        72.62493
560.45        72.89858
560.88         72.9577
561.32        72.78977
561.75        72.40482
562.19        71.96133
562.63        71.52351
563.06        71.23383
563.50        71.40094
563.93        71.88306
564.37        72.23176
564.80        72.30999
565.24        72.23013
565.68         72.0496
566.11         71.9279
566.55        71.93947
566.98        71.93306
567.42        71.92275
567.85        72.03057
568.29         72.2802
568.72        72.34336
569.16        72.37333
569.60        72.82047
570.03        73.25278
570.47        73.12411
570.90         72.7526
571.34        71.01618
571.77        72.12682
572.21        72.04305
572.64         71.6774
573.08        70.64577
573.51        67.64836
573.95        70.19962
574.38        74.46383
574.82        72.54382
575.25        72.11983
575.69        69.85359
576.12        68.61929
576.56          67.851
576.99         69.4678
577.42        72.62992
577.86        72.70028
578.29        71.53249
578.73        75.55021
579.16        69.52989
579.60        63.74649
580.03        66.64117
580.47        71.09534
580.90        72.60892
581.33        71.42314
581.77        70.57614
582.20        77.43031
582.64        77.00475
583.07        65.90572
583.51        64.66227
583.94        63.61051
584.37        66.45306
584.81         69.7941
585.24        73.49254
585.68        75.19408
586.11        73.90451
586.54        68.77201
586.98        66.34656
587.41        67.06526
587.85        70.99029
588.28        73.49088
588.71        69.98755
589.15         67.8119
589.58        69.13575
590.01          69.231
590.45        70.59789
590.88        71.47182
591.31         70.8861
591.75          70.358
592.18        70.39968
592.61        71.99809
593.05        72.43378
593.48        75.49526
593.91        76.06219
594.35        70.01279
594.78        68.23963
595.21        67.97694
595.65        71.00243
596.08         73.8405
596.51        70.92962
596.94        68.90313
597.38        69.64682
597.81        72.72243
598.24        73.96402
598.68        72.47932
599.11        71.58712
599.54        74.48138
599.97        75.66622
600.41        70.46806
600.84        70.56628
601.27        72.16971
601.70        71.16963
602.14        71.35247
602.57        70.30287
603.00        70.75081
603.43        72.32029
603.87         74.0425
604.30        73.58105
604.73        71.29689
605.16        69.74496
605.60        70.88342
606.03        71.94159
606.46        72.81035
606.89        72.47075
607.32        70.37941
607.76        70.67657
608.19        72.79686
608.62        71.95615
609.05        70.80849
609.48        71.35287
609.92        71.20331
610.35        70.80316
610.78        72.80193
611.21        73.64887
611.64        70.30692
612.07        71.14598
612.50        71.67383
612.94        72.15131
613.37        71.46338
613.80        71.78177
614.23        72.03313
614.66        71.96889
615.09        72.26496
615.52        72.29117
615.96        72.17981
616.39        72.24571
616.82        71.26639
617.25        71.16107
617.68        71.80608
618.11        72.45709
618.54        72.88741
618.97        72.35301
619.40        71.26259
619.84        71.25798
620.27        72.28207
620.70        72.96951
621.13        73.11624
621.56        72.59961
621.99        71.70396
622.42        72.44641
622.85        74.34071
623.28        73.71039
623.71        73.28748
624.14        73.14438
624.57        72.90261
625.00        72.89074
625.43        72.83444
625.86        72.17328
626.29        72.32998
626.72         72.6632
627.15        72.59646
627.58        72.84422
628.01        72.99828
628.44        73.31152
628.87        73.85938
629.30         73.1345
629.73        73.58051
630.16        73.95076
630.59        73.30781
631.02        73.03856
631.45        72.74096
631.88        72.54369
632.31        72.44494
632.74        72.46049
633.17        72.56486
633.60        72.65608
634.03        72.72836
634.46        72.78835
634.89        72.83433
635.32        72.85667
635.75        72.85728
636.18        72.82671
636.61        72.79464
637.04        72.81776
637.47         72.9037
637.89        73.04727
638.32        73.17755
638.75        73.22543
639.18        73.17138
639.61         73.0433
640.04        72.88311
640.47        72.75606
640.90         72.6889
641.33        72.66302
641.76        72.64349
642.18        72.67749
642.61        72.75514
643.04        72.69978
643.47        72.48563
643.90        73.01408
644.33         72.7772
644.76         72.9752
645.18        73.10828
645.61        73.11646
646.04        72.97443
646.47         72.7049
646.90        72.43543
647.33        72.34443
647.75        72.49883
648.18        72.81087
648.61        73.08691
649.04        73.23291
649.47        73.10725
649.89         72.2023
650.32         71.0248
650.75        70.92862
651.18        71.87212
651.61        72.76978
652.03          73.163
652.46        73.00565
652.89        72.71478
653.32        72.02398
653.74        71.29854
654.17        73.15243
654.60        73.66417
655.03        71.24007
655.46        72.05308
655.88        75.60726
656.31        80.89188
656.74         178.925
657.16        116.4266
657.59        41.10166
658.02        31.25931
658.45        54.73217
658.87        70.11939
659.30        73.37136
659.73         72.1601
660.15        69.55621
660.58        72.64286
661.01        74.59808
661.44        72.08709
661.86        71.24088
662.29        71.26781
662.72        72.04581
663.14        73.32053
663.57        73.27219
664.00        72.14959
664.42        71.93202
664.85        72.69033
665.27        73.12434
665.70        73.03912
666.13        72.87059
666.55        72.60661
666.98        72.11524
667.41        71.57414
667.83          71.334
668.26        71.46886
668.69        71.84247
669.11        72.22791
669.54        72.61572
669.96        72.25587
670.39        71.79588
670.82        71.25577
671.24        71.04795
671.67        71.27386
672.09        71.72646
672.52        72.13332
672.94        72.66141
673.37          72.046
673.80        71.84904
674.22        71.79099
674.65        71.74237
675.07         71.7019
675.50         71.6253
675.92        71.55361
676.35        71.60957
676.77        71.79811
677.20        72.00414
677.62        72.18705
678.05        72.28756
678.47        72.27706
678.90        72.18793
679.32        72.07551
679.75        71.89376
680.17         71.9494
680.60        71.99683
681.02        72.04793
681.45        71.96235
681.87        71.73285
682.30        71.39778
682.72        71.08963
683.15        71.03648
683.57        71.28981
684.00        71.68407
684.42        72.20136
684.85        72.44394
685.27         72.3793
685.70        72.10337
686.12        71.73514
686.54        71.51065
686.97        71.48034
687.39        71.59323
687.82        71.75811
688.24        71.87954
688.66         71.9026
689.09        71.86713
689.51        71.84438
689.94        71.91457
690.36        72.10111
690.78         72.3593
691.21        72.61064
691.63        72.73952
692.06        72.72533
692.48         72.6222
692.90        72.50072
693.33        72.45476
693.75        72.50844
694.17        72.63102
694.60        72.80184
695.02        72.94187
695.44        72.98239
695.87         73.1966
696.29        73.53031
696.71        73.12921
697.14        72.27931
697.56        72.69273
697.98        74.06433
698.41        73.89616
698.83        72.93831
699.25        72.33491
699.68        72.40229
700.10        72.34573
700.52        72.18574
700.94        72.33614
701.37        72.71247
701.79        73.06512
702.21        73.29942
702.64        73.48768
703.06        73.57197
703.48        73.45617
703.90        73.15849
704.33        72.71266
704.75        72.25185
705.17        72.07256
705.59        72.24181
706.01        72.57648
706.44        72.93295
706.86         73.5714
707.28        73.61371
707.70        73.78117
708.12        73.83219
708.55        73.64225
708.97        73.27359
709.39        73.02513
709.81        72.96011
710.23        72.91566
710.66         72.9085
711.08        73.11488
711.50        73.41222
711.92        73.53041
712.34        73.42313
712.76         73.1499
713.19          72.855
713.61        72.80662
714.03        73.04556
714.45        73.48728
714.87        73.92845
715.29        74.05111
715.71        73.79185
716.13        73.25867
716.56        72.66396
716.98        72.37937
717.40        72.49262
717.82        72.89246
718.24        73.39778
718.66        73.70048
719.08        73.70885
719.50         73.5178
719.92        73.23834
720.34        73.06585
720.76        73.06049
721.19        73.03579
721.61        73.17726
722.03         73.2774
722.45        73.37326
722.87        73.48075
723.29        73.59173
723.71        73.67742
724.13        73.72984
724.55        73.75008
724.97        73.74764
725.39         73.7476
725.81        73.75697
726.23        73.76809
726.65        73.78458
727.07        73.80847
727.49        73.84306
727.91        73.89998
728.33        73.95943
728.75        73.98798
729.17        73.97854
729.59        73.92446
730.01        73.87363
730.43         73.9482
730.85        74.17671
731.27        74.45741
731.69        74.63774
732.10        74.99766
732.52        74.63371
732.94        74.32288
733.36         74.0173
733.78        73.99704
734.20        74.20466
734.62        74.99578
735.04        76.01784
735.46         75.9848
735.88        75.12179
736.30        75.11947
736.72        76.04031
737.13        76.49313
737.55        76.22279
737.97        76.36716
738.39        76.83666
738.81        76.03464
739.23        74.47656
739.65        75.12171
740.06        77.50704
740.48        77.78832
740.90        76.07164
741.32        75.48751
741.74        76.24833
742.16        76.67641
742.57           76.77
742.99        77.41221
743.41        78.39913
743.83        78.93211
744.25        78.89444
744.67        78.49057
745.08        77.97957
745.50        77.78515
745.92        78.03158
746.34        78.57124
746.75        79.21503
747.17        79.60925
747.59        79.67117
748.01        79.60146
748.42        79.55412
748.84        79.51808
749.26        79.66705
749.68        80.42639
750.09        81.54202
750.51        82.12248
750.93        82.06227
751.35        81.72081
751.76        81.29189
752.18        81.13521
752.60        81.24802
753.01        81.20641
753.43        81.02488
753.85        81.13244
754.27        81.55531
754.68        82.08338
755.10        82.62363
755.52        83.18553
755.93        83.69007
756.35        84.05313
756.77        84.32244
757.18        84.41166
757.60        84.31258
758.02        84.54174
758.43        84.86086
758.85        83.80273
759.26        81.97993
759.68        81.85907
760.10        83.60674
760.51        84.18314
760.93        83.41391
761.34        82.53377
761.76        82.35789
762.18        81.97932
762.59        81.75247
763.01        82.08311
763.42        82.95353
763.84        83.60644
764.26         83.9374
764.67        84.24239
765.09        84.40504
765.50        84.16116
765.92        83.53311
766.33        82.31364
766.75        80.99064
767.16        80.65712
767.58        81.42574
768.00        82.92665
768.41        84.77247
768.83        85.96881
769.24        86.07273
769.66        85.42928
770.07        84.43249
770.49        82.93311
770.90        81.41816
771.32        82.13445
771.73        84.43235
772.15        83.90533
772.56        81.04835
772.97        80.57735
773.39        82.37843
773.80        83.04189
774.22        82.32512
774.63        82.26926
775.05        82.83696
775.46        83.12273
775.88        83.02721
776.29        82.79925
776.70        82.53928
777.12        82.44629
777.53        82.58051
777.95        82.82191
778.36        83.02352
778.77        82.93056
779.19        82.54224
779.60        81.94988
780.02        81.38143
780.43        81.28697
780.84        81.80354
781.26        82.29428
781.67        82.69005
782.09        83.93899
782.50        85.40705
782.91        84.35277
783.33        81.57557
783.74        80.64873
784.15        81.75986
784.57        82.70934
784.98        83.07078
785.39         83.0533
785.81        82.65559
786.22        82.16731
786.63        81.87294
787.04        81.87217
787.46        82.22921
787.87        83.05262
788.28        84.05423
788.70        84.58957
789.11         84.5242
789.52        84.07742
789.93        83.50127
790.35        83.13091
790.76        83.06688
791.17        83.25306
791.58        83.56141
792.00        83.69186
792.41        83.56167
792.82        83.39988
793.23        83.35117
793.65        83.05074
794.06        82.83573
794.47        84.08715
794.88        85.87933
795.29        86.16374
795.71        83.14902
796.12        80.90488
796.53        79.57174
796.94        79.13145
797.35         79.6897
797.76        81.04686
798.18        82.58661
798.59        83.62579
799.00        83.78751
799.41        82.99885
799.82        81.73087
800.23        80.98752
800.64        80.99082
801.06        81.34136
801.47        81.91269
801.88        82.39223
802.29        82.64574
802.70        82.82372
803.11        82.90513
803.52        82.81342
803.93        82.57006
804.34        82.15139
804.75        81.74558
805.17        81.71993
805.58        82.17437
805.99        82.85091
806.40        83.46757
806.81        83.92091
807.22         83.9051
807.63        82.71134
808.04        80.89017
808.45        80.03337
808.86        80.34464
809.27        81.11514
809.68        81.97684
810.09        82.50669
810.50        82.49805
810.91        82.10723
811.32        81.56135
811.73        81.22363
812.14        81.19725
812.55        81.31149
812.96        81.53673
813.37         81.8262
813.78        82.12273
814.19        82.50131
814.60        82.73173
815.01        82.44379
815.42        81.61037
815.83        80.30138
816.24        79.01251
816.65        78.61518
817.05        79.35992
817.46        80.97568
817.87        82.79306
818.28         83.6096
818.69        83.09864
819.10        81.54951
819.51        79.73713
819.92        78.98195
820.33        79.61564
820.74        81.22932
821.14        83.04179
821.55        83.67915
821.96         82.8543
822.37        81.06599
822.78        79.04494
823.19        77.85972
823.60            77.8
824.00        78.58105
824.41        79.74928
824.82         80.6306
825.23        80.91994
825.64        80.85501
826.04        80.58932
826.45        80.33949
826.86        80.18113
827.27        79.97162
827.68        79.75199
828.08        79.66766
828.49         79.6795
828.90        79.86561
829.31        80.05039
829.72        79.88261
830.12        79.34021
830.53        78.52769
830.94        77.82952
831.35        77.77732
831.75        78.49935
832.16        79.77043
832.57        81.25494
832.97         82.2571
833.38        82.45747
833.79        82.05587
834.20        81.36745
834.60        80.88081
835.01        80.76319
835.42        80.84932
835.82        80.99098
836.23        80.86375
836.64        80.43671
837.04        79.87994
837.45        79.34509
837.86        79.05096
838.26        79.06745
838.67        79.26174
839.08         79.6048
839.48        80.03659
839.89        80.45316
840.29        80.86707
840.70        81.13186
841.11        81.01276
841.51         80.5016
841.92        79.65203
842.33         78.7355
842.73        78.21634
843.14         78.1832
843.54        78.56364
843.95        79.07218
844.35        79.28696
844.76        79.07467
845.17        78.57907
845.57        78.02186
845.98        77.74655
846.38        77.83678
846.79        78.15788
847.19         78.5611
847.60        78.70193
848.00        78.53245
848.41        78.14667
848.81        77.74895
849.22        77.56286
849.62        77.69733
850.03        78.08012
850.43        78.63306
850.84        79.11585
851.24        79.47722
851.65         79.5943
852.05        79.69307
852.46        79.96986
852.86        80.46706
853.27        81.14653
853.67        81.50252
854.07        80.88863
854.48        79.33822
854.88          77.103
855.29        74.99546
855.69        74.17912
856.10        74.87138
856.50        76.91997
856.90        79.60554
857.31        81.25196
857.71        81.31755
858.12        80.20966
858.52        78.64819
858.92         77.5929
859.33        77.26728
859.73        77.40279
860.13        77.89133
860.54        78.51225
860.94        79.20933
861.34        80.02629
861.75        80.79768
862.15        81.33604
862.55        81.54878
862.96        81.42977
863.36        81.12676
863.76        80.88547
864.17        80.80316
864.57        80.88766
864.97        81.08022
865.38        81.27211
865.78         81.4742
866.18        81.63754
866.58         81.8457
866.99        82.21367
867.39        82.81097
867.79        83.63628
868.19        84.33678
868.60        84.26772
869.00        83.32291
869.40        81.68905
869.80        80.21829
870.21        80.23637
870.61        82.10011
871.01        85.41061
871.41        89.07533
871.81        91.22424
872.22        91.32575
872.62        89.89661
873.02        87.98193
873.42        87.33239
873.82        88.23139
874.22        90.00463
874.63        91.97591
875.03        92.68958
875.43        91.57533
875.83        89.87331
876.23        87.47979
876.63        86.73167
877.03        87.89135
877.44        91.33379
877.84        100.8659
878.24        100.8841
878.64        99.91062
879.04        97.08214
879.44        92.71172
879.84        90.23712
880.24        93.00233
880.64        95.16902
881.04        97.14904
881.44        98.46117
881.84        98.07411
882.24        96.46395
882.65        94.78716
883.05        94.33678
883.45          95.359
883.85          97.606
884.25        100.1808
884.65        101.3851
885.05        100.7322
885.45        98.85592
885.85        96.80671
886.25        96.00191
886.65        96.71514
887.05        98.46207
887.45         100.581
887.85        101.8852
888.25        101.9551
888.65        101.2157
889.04        100.0319
889.44        99.01311
889.84        98.36841
890.24        97.86239
890.64        97.56342
891.04         97.6078
891.44        97.96053
891.84        98.65556
892.24        99.34888
892.64        99.37366
893.04        98.65764
893.44        97.48684
893.83        96.37073
894.23        96.07228
894.63        96.71751
895.03        98.01748
895.43        99.73546
895.83        101.4027
896.23        102.7215
896.63        103.7738
897.02        104.2834
897.42        103.8379
897.82        102.4998
898.22        100.4795
898.62          98.398
899.01        97.16467
899.41        97.01068
899.81        97.64147
900.21        98.72655
900.61        99.68327
901.00         100.267
901.40        100.6444
901.80        100.7847
902.20        100.6485
902.59        100.2788
902.99        99.63666
903.39        98.91563
903.79        98.48924
904.18        98.46537
904.58        98.80386
904.98        99.32422
905.38        99.72374
905.77        99.88412
906.17        99.87131
906.57        99.77303
906.96        99.76921
907.36        99.83911
907.76        99.94267
908.15         99.9338
908.55        99.47696
908.95        98.59311
909.34        97.38425
909.74        96.25465
910.14        95.63789
910.53        95.68356
910.93        96.33946
911.33        97.35817
911.72          98.281
912.12        98.84295
912.52          99.062
912.91        99.21564
913.31        99.73249
913.70        100.7292
914.10        102.1088
914.49        103.3355
914.89        103.0272
915.29         100.914
915.68        97.63965
916.08        94.62532
916.47        93.14466
916.87        93.31821
917.26        94.73145
917.66        96.55633
918.05        97.45873
918.45        97.04586
918.84        95.75832
919.24        94.33884
919.64        93.86317
920.03        94.60822
920.42        96.18652
920.82        98.00834
921.21        99.23194
921.61        99.42284
922.00        98.94214
922.40        98.05644
922.79         97.0948
923.19        96.24437
923.58        95.36079
923.98        94.51714
924.37         94.0698
924.77        94.25466
925.16        93.86546
925.55        95.00841
925.95        96.04836
926.34        97.50204
926.74        99.02161
927.13        100.3703
927.52        100.9123
927.92        100.6217
928.31        99.73495
928.70        98.42496
929.10        97.01521
929.49        95.64111
929.89        94.27406
930.28        93.40717
930.67        93.85686
931.07        95.56761
931.46        98.30045
931.85        100.9691
932.24        101.9423
932.64         100.889
933.03        98.16938
933.42        94.51016
933.82        91.63801
934.21        90.21692
934.60        89.87569
934.99        90.14913
935.39        90.52185
935.78        90.88921
936.17        91.27731
936.56        91.45409
936.96        92.39459
937.35        91.47609
937.74        90.74249
938.13        90.13236
938.53        90.42073
938.92        91.63725
939.31        93.73066
939.70        96.02641
940.09        96.70008
940.49        95.21395
940.88        92.38309
941.27        89.56619
941.66        88.34593
942.05        88.91111
942.44        90.72454
942.84        93.14816
943.23        95.13167
943.62        96.12253
944.01        96.37302
944.40        96.07859
944.79        95.54647
945.18        94.88633
945.57         93.9312
945.97        92.58575
946.36         90.9671
946.75        89.42666
947.14         88.2365
947.53        87.59151
947.92        87.53305
948.31        87.97605
948.70        88.91297
949.09        90.09657
949.48        90.90652
949.87        91.05038
950.26        90.61063
950.65        89.97273
951.04        89.79784
951.43        90.22597
951.82        91.02567
952.21        91.81721
952.60        92.00415
952.99        91.42347
953.38        90.29082
953.77        88.94019
954.16        87.81308
954.55        87.05708
954.94        86.64158
955.33        86.32127
955.72        85.67618
956.11        84.65996
956.50        83.41261
956.89        82.52914
957.28        83.03797
957.66        85.18613
958.05        88.34177
958.44        91.55806
958.83        93.46031
959.22        93.70802
959.61        92.63866
960.00        90.83577
960.39        89.29165
960.78        88.35628
961.16        87.81323
961.55          87.388
961.94        86.63654
962.33        85.51059
962.72        84.32824
963.11        83.37115
963.49        82.92882
963.88        83.01637
964.27        83.50097
964.66        84.21369
965.04        84.82565
965.43        85.05416
965.82        85.02884
966.21        84.81748
966.60        84.53423
966.98        84.24249
967.37        83.82813
967.76        83.39602
968.15        83.14895
968.53        83.13813
968.92        83.29241
969.31        83.43217
969.69        83.24385
970.08        82.69618
970.47        81.89783
970.86        81.02197
971.24        80.39867
971.63        80.14748
972.02         80.1848
972.40        80.48292
972.79        80.93305
973.17        81.55579
973.56        82.25861
973.95        82.91962
974.33        83.24111
974.72        83.04696
975.11        82.37279
975.49        81.56515
975.88        81.22186
976.26        81.41692
976.65        82.07647
977.04        82.69872
977.42        82.10094
977.81        80.03142
978.19        77.06084
978.58        74.72169
978.96        74.50227
979.35        76.58876
979.74        80.68416
980.12         86.0002
980.51        89.49239
980.89        90.15341
981.28        88.70229
981.66        86.30724
982.05        84.51598
982.43        83.67303
982.82        83.29838
983.20        83.43799
983.59        84.27737
983.97        85.85428
984.35         88.2774
984.74         90.8403
985.12        92.16726
985.51        91.36012
985.89        88.66403
986.28        84.93697
986.66         81.6422
987.04        79.61985
987.43         78.6554
987.81        78.31407
988.20         77.9911
988.58         77.4326
988.96        76.61848
989.35        75.89549
989.73        76.63731
990.12        79.10027
990.50        82.44795
990.88        84.64166
991.27        84.38806
991.65        82.08143
992.03        78.11217
992.42        73.89518
992.80        71.90685
993.18        72.93475
993.56        75.57271
993.95        78.49574
994.33        80.67373
994.71          81.769
995.10        82.42192
995.48        82.49096
995.86        81.55449
996.24        79.58658
996.63        76.32613
997.01        72.78953
997.39        72.02174
997.77        75.17098
998.15        81.42928
998.54        87.66589
998.92        89.73357
999.30        86.47813
999.68        79.01711
1000.06        69.39693
1000.45        62.68027
1000.83        60.92398
1001.21        62.39143
1001.59        65.66903
1001.97        69.35957
1002.35        73.09336
1002.73        77.95271
1003.12        82.44929
1003.50        82.07466
1003.88        75.34691
1004.26        64.77425
1004.64        55.14143
1005.02        50.32739
1005.40        50.45684
1005.78        55.30219
1006.16        65.63234
1006.54        76.52016
1006.92        81.14104
1007.30        80.85298
1007.69         78.8581
1008.07        77.66061
1008.45        77.42146
1008.83        77.04538
1009.21        75.11922
1009.59         65.6124
1009.97        32.66555
1010.35       -17.93441
1010.73       -17.22775
1011.11        5.803286
1011.49        22.87284
1011.86        36.29468
1012.24        44.40476
1012.62        49.14824
1013.00         52.3708
1013.38        54.93914
1013.76        58.43181
1014.14        66.12931
1014.52        79.85016
1014.90        99.38368
1015.28        119.4615
1015.66        128.3125
1016.04        118.9568
1016.41        93.78519
1016.79        65.09991
1017.17         45.9607
1017.55        38.21149
1017.93        36.32348
1018.31        37.79678
1018.69        42.03971
1019.06        49.07119
1019.44        59.94279
1019.82        76.68687
1020.20        97.13344
1020.58        116.6551
1020.95        130.8904
1021.33        128.5858
1021.71        193.1053
1022.09        135.6966
1022.46        133.9842
1022.84        135.5611
1023.22        142.1398
1023.60        162.0203
1023.97        355.7811
1024.35        28.24121
1024.73        64.60835
