SpectraSmart Spectrum 2.9.0.0
--------- Device Information -----------
Spectrum Name :  反射率_0
Saving Time :  2024/04/26 01:42:39
Spectro-Module Model Name : SE2030-DUVN
Spectro-Module Serial Number : OS361AC55029948
Wavelength Start : 200
Wavelength End : 1025
Wavelength Unit : Wavelength(nm)
Spectrum Unit : Reflectance(%)
-----------Spectrum Setting ------------
Integration Time : 20ms
Average : 10
Boxcar : 0
Background removal :  enabled
linearity correction :  enabled
SC :  disabled
Intensity correction :  disabled
DWT denoise :  enabled
savitzky-golay :  disabled
FFT :  disabled
Running average :  disabled
Kalman :  disabled
High pass :  disabled
---------------BEGIN--------------------
Wavelength(nm)             Reflectance(%)
200.29               0
200.75        109.8682
201.21        95.52853
201.67        79.70441
202.13        71.25716
202.58        71.17447
203.04        77.12479
203.50        85.63799
203.96        90.51962
204.42        90.17404
204.88        87.14127
205.34        84.01192
205.80        83.41884
206.26         86.4129
206.72        94.39905
207.18        110.8407
207.64        126.9529
208.10        120.1977
208.55        102.2623
209.01         90.2182
209.47        85.34394
209.93        84.43923
210.39        85.73625
210.85        87.27729
211.31        85.47007
211.77         79.6724
212.23        71.66286
212.69        64.58294
213.14        63.22472
213.60        68.11807
214.06        77.69169
214.52         88.9586
214.98        97.32861
215.44        101.1419
215.90         101.591
216.36        99.50668
216.81        95.93352
217.27         92.1565
217.73        88.25829
218.19         84.3492
218.65        80.33054
219.11        75.81443
219.57        70.04485
220.02        64.14162
220.48        63.26233
220.94        69.09451
221.40        79.55899
221.86        87.79945
222.32        87.27798
222.77        79.46722
223.23        68.88209
223.69        59.88461
224.15         57.0113
224.61        59.79239
225.06        65.93173
225.52        72.69351
225.98        76.65258
226.44        77.04686
226.90        75.31265
227.36        72.76118
227.81        71.07942
228.27        71.01054
228.73        71.62389
229.19        72.64685
229.65        73.76132
230.10        74.66685
230.56        75.61459
231.02        76.27169
231.48        76.21193
231.93        75.46838
232.39        74.27959
232.85        73.08096
233.31        72.65705
233.77        73.16409
234.22        74.40472
234.68        75.90044
235.14        76.69218
235.60        76.46244
236.05        75.52266
236.51        74.33872
236.97        73.53642
237.43        73.28443
237.88        73.48868
238.34        73.92822
238.80        74.48383
239.26        74.99152
239.71        75.75525
240.17        76.35222
240.63        76.62038
241.08        76.71732
241.54        76.65998
242.00        76.98643
242.46        78.64281
242.91        82.95621
243.37        92.80883
243.83        121.5786
244.28        208.7952
244.74        296.0228
245.20        232.7292
245.66        181.8028
246.11        167.4236
246.57        173.0506
247.03        204.3168
247.48        297.1367
247.94        236.6378
248.40        133.7873
248.85        103.8709
249.31        95.82487
249.77        95.86705
250.22        100.6378
250.68        110.5599
251.14        125.2783
251.59        135.1241
252.05        130.4769
252.51        115.8141
252.96        100.3939
253.42        93.14068
253.88         93.4669
254.33        97.92638
254.79        104.9962
255.25        111.8441
255.70        116.8697
256.16          121.16
256.62        123.4832
257.07        122.4535
257.53        119.2183
257.99        114.1037
258.44        108.7489
258.90        106.3167
259.35        105.6667
259.81        105.8717
260.27        105.0489
260.72        101.3596
261.18        95.80154
261.63        89.13219
262.09        82.92755
262.55        78.12504
263.00        74.73132
263.46        72.46692
263.91        70.66176
264.37        69.08259
264.83        67.38017
265.28        65.50991
265.74        63.61879
266.19        61.60006
266.65        59.76761
267.11        58.12372
267.56        56.59327
268.02        55.09761
268.47        53.48571
268.93        51.79845
269.38        50.14337
269.84         48.9392
270.30        48.28632
270.75        48.08215
271.21        48.04124
271.66        47.72021
272.12        46.99928
272.57        45.97126
273.03        44.89939
273.48        44.08832
273.94        43.63924
274.39        43.39235
274.85        43.14544
275.31        42.56488
275.76        41.59465
276.22        40.42126
276.67        39.24421
277.13        38.47223
277.58        38.10554
278.04         38.0395
278.49        38.02126
278.95        37.79965
279.40        37.26789
279.86        36.58793
280.31        35.81207
280.77        35.16118
281.22        34.63807
281.68        34.21672
282.13        33.84995
282.59        33.54037
283.04        33.25473
283.50        33.04942
283.95        32.85286
284.41        32.58805
284.86        32.23668
285.32         31.8411
285.77        31.50805
286.22        31.47607
286.68        31.74518
287.13        32.18906
287.59        32.60566
288.04        32.67117
288.50        32.35928
288.95        31.75928
289.41        31.07085
289.86        30.46836
290.32        30.08475
290.77        29.85811
291.22        29.81099
291.68         29.9306
292.13        30.21072
292.59        30.67659
293.04        31.31819
293.50        32.11407
293.95        33.02529
294.40        34.00903
294.86        35.02956
295.31        36.05079
295.77        37.06997
296.22        38.09917
296.68        39.12324
297.13        40.08672
297.58        41.00979
298.04        41.93744
298.49        42.97051
298.95        44.31923
299.40        46.00246
299.85        47.94518
300.31        50.00454
300.76        51.94006
301.21        53.65024
301.67        55.23292
302.12        56.66495
302.58        58.03588
303.03        59.36099
303.48        60.65251
303.94        62.07063
304.39        63.79512
304.84        65.85116
305.30        68.16462
305.75        70.46436
306.20        72.36083
306.66        73.79234
307.11        74.82579
307.57        75.72164
308.02        76.74057
308.47        78.02209
308.93        79.49515
309.38        81.03906
309.83        82.52208
310.29        83.88575
310.74        85.13469
311.19        86.33006
311.65        87.55847
312.10         88.8189
312.55        90.08682
313.00        91.22298
313.46        92.01881
313.91        92.42348
314.36         92.5234
314.82        92.56391
315.27        92.86253
315.72        93.53395
316.18        94.49393
316.63        95.55615
317.08        96.36037
317.53        96.80276
317.99        96.97188
318.44        97.08725
318.89        97.51147
319.35        98.29763
319.80        99.35461
320.25        100.3764
320.70        100.8644
321.16        100.7125
321.61        100.0925
322.06        99.34666
322.51          99.011
322.97        99.19684
323.42        99.78663
323.87        100.5237
324.32        100.9651
324.78        100.9698
325.23        100.7261
325.68         100.391
326.13        100.2489
326.59        100.3595
327.04        100.6442
327.49        101.0272
327.94        101.4275
328.39        101.7973
328.85        102.1574
329.30        102.4981
329.75        102.6138
330.20        102.5104
330.66         102.241
331.11        102.0763
331.56        102.3733
332.01        103.2256
332.46        104.5049
332.92        105.9808
333.37        107.4287
333.82        108.6023
334.27        109.5523
334.72        110.1687
335.17          110.31
335.63        110.0048
336.08        109.3549
336.53        108.6534
336.98         108.427
337.43        108.8073
337.88        109.6635
338.34        110.7604
338.79        111.7789
339.24        112.5426
339.69        113.1658
340.14        113.5977
340.59        113.7621
341.05        113.6984
341.50        113.4006
341.95        113.1133
342.40        113.2406
342.85        113.8487
343.30        114.8268
343.75         115.892
344.20        116.5299
344.66        116.6067
345.11        116.2642
345.56        115.7156
346.01        115.2887
346.46        115.0934
346.91        115.0294
347.36        115.0579
347.81        115.1231
348.26        115.1982
348.72        115.3376
349.17        115.4783
349.62        115.5497
350.07        115.5312
350.52        115.4177
350.97        115.2716
351.42        115.2046
351.87        115.2306
352.32        115.3144
352.77        115.3557
353.22        115.1978
353.67        114.8143
354.13        114.2746
354.58        113.6704
355.03        113.2081
355.48        112.9286
355.93        112.7645
356.38        112.6028
356.83         112.265
357.28        111.7029
357.73         110.977
358.18        110.1615
358.63        109.3702
359.08        108.6467
359.53        107.9665
359.98        107.2991
360.43        106.5982
360.88         105.846
361.33        105.0517
361.78         104.262
362.23        103.5472
362.68        102.9262
363.13        102.3937
363.58        101.8532
364.03        101.1513
364.48         100.266
364.93        99.23919
365.38        98.23541
365.83        97.52364
366.28        97.14455
366.73        96.99516
367.18        96.87152
367.63        96.44292
368.08        95.64182
368.53        94.60911
368.98         93.4925
369.43          92.506
369.88        91.72197
370.33        91.06588
370.78        90.55522
371.23        90.22524
371.68        90.05171
372.13        90.02438
372.58        90.01141
373.03        89.78106
373.48        89.28832
373.93        88.60857
374.38        87.87166
374.83        87.28299
375.28        86.89455
375.72        86.62411
376.17        86.44843
376.62         86.3045
377.07        86.14386
377.52        85.96643
377.97        85.70767
378.42        85.26508
378.87         84.6403
379.32        83.89328
379.77        83.08808
380.22        82.31239
380.67        81.58994
381.11        80.89277
381.56        80.26849
382.01        79.79713
382.46        79.49764
382.91         79.3799
383.36        79.29424
383.81        78.99884
384.26        78.45326
384.71        77.70505
385.15        76.97672
385.60        76.67877
386.05        76.81642
386.50        77.25513
386.95         77.6556
387.40        77.45384
387.85        76.59461
388.29        75.32024
388.74        74.10427
389.19        73.30363
389.64        72.97108
390.09        72.91521
390.54        73.07111
390.98        73.32753
391.43        73.59707
391.88        73.90442
392.33        74.03905
392.78        73.66193
393.23        72.80447
393.67        71.64694
394.12         70.6243
394.57        69.99844
395.02        69.91474
395.47        70.52091
395.91        71.58347
396.36        72.28877
396.81        72.43741
397.26        72.29962
397.71        71.99155
398.15        71.50509
398.60        70.99279
399.05        70.61247
399.50        70.30351
399.95        69.47575
400.39        68.61694
400.84        68.22857
401.29        68.39929
401.74        68.64035
402.18        68.80896
402.63        68.74833
403.08        68.56353
403.53        68.66746
403.97        69.06059
404.42        69.41828
404.87         69.5875
405.32        69.42937
405.76        68.90337
406.21        68.25421
406.66        67.62939
407.11        66.98524
407.55        66.54282
408.00        66.79887
408.45        67.59588
408.90        68.15221
409.34        68.18859
409.79        67.71766
410.24        66.99425
410.68        66.62464
411.13        66.70299
411.58        66.86269
412.03        67.04313
412.47        67.31312
412.92        67.58156
413.37        67.85397
413.81        68.04402
414.26        68.06407
414.71        67.88535
415.15        67.51998
415.60        67.08813
416.05        66.80762
416.49        66.73971
416.94        66.85342
417.39        66.98758
417.83        66.84737
418.28        66.40057
418.73        65.76426
419.17        65.19556
419.62        65.09909
420.07        65.50542
420.51        66.26347
420.96        67.10082
421.41        67.49419
421.85         67.2844
422.30        66.91803
422.74        66.48797
423.19        65.80605
423.64        65.12061
424.08        65.38188
424.53        66.39877
424.98        66.93673
425.42        66.84151
425.87        66.91086
426.31        67.19325
426.76         67.1049
427.21         66.8537
427.65        67.25378
428.10        68.14054
428.54        68.84764
428.99        69.30972
429.44        69.26232
429.88        68.89315
430.33        69.72267
430.77        71.01333
431.22         70.0156
431.66        67.28471
432.11        65.80611
432.56        65.92771
433.00        66.68465
433.45        67.92666
433.89         69.7642
434.34        70.79495
434.78        72.14401
435.23        68.30275
435.67        66.60065
436.12        69.06743
436.57        70.20783
437.01        70.61561
437.46        70.81379
437.90        71.00266
438.35        70.45017
438.79        70.93362
439.24        70.82687
439.68        70.68606
440.13        70.41645
440.57        70.32046
441.02        71.23734
441.46        72.75732
441.91        73.63606
442.35        73.59856
442.80        72.65214
443.24        71.29086
443.69        71.79188
444.13        73.75233
444.58        73.74146
445.02        71.98299
445.47        71.71199
445.91        72.84254
446.36        73.19336
446.80        72.69471
447.24        72.47215
447.69        72.60365
448.13        72.75755
448.58         72.9485
449.02        73.20965
449.47        73.50281
449.91          73.783
450.36        74.02654
450.80        74.21568
451.25        74.32568
451.69        74.29193
452.13        74.13662
452.58        73.89102
453.02        73.64274
453.47        73.57178
453.91         73.6917
454.36        73.95377
454.80        74.26182
455.24        74.35291
455.69        74.18661
456.13         73.9819
456.58        73.84348
457.02        73.36221
457.46        72.97884
457.91        73.17822
458.35        73.82824
458.79        74.04469
459.24        73.78559
459.68        73.49044
460.13        73.25314
460.57        72.91978
461.01        72.56815
461.46        72.24347
461.90        71.99713
462.34         71.9568
462.79        72.10062
463.23        72.36904
463.68        72.68467
464.12        72.98225
464.56         73.1927
465.01        73.39158
465.45        73.38969
465.89        73.13363
466.34        72.60906
466.78        71.54019
467.22         70.5043
467.67        69.98906
468.11        71.61172
468.55        72.33455
468.99        72.33378
469.44        71.98781
469.88        71.51663
470.32        71.49979
470.77        71.86894
471.21        71.87112
471.65        71.48049
472.10         71.3304
472.54        71.44633
472.98         71.5512
473.42        71.62464
473.87        71.83001
474.31        72.05287
474.75        71.99739
475.20        71.72541
475.64         71.5626
476.08        71.57247
476.52        71.47534
476.97        71.27081
477.41        71.32103
477.85        71.65945
478.29        71.21654
478.74        71.86138
479.18        71.73175
479.62        71.00977
480.06        71.61789
480.50        71.88067
480.95        72.25581
481.39        72.33598
481.83        71.35423
482.27        71.36634
482.72        71.75023
483.16        70.14435
483.60        70.57365
484.04        72.16775
484.48        72.38852
484.93        71.75896
485.37        73.83492
485.81        74.33498
486.25        73.25298
486.69        98.01786
487.14        79.49732
487.58        49.66889
488.02        61.57907
488.46        69.73508
488.90        69.30582
489.34        71.07329
489.79        70.42887
490.23        72.47228
490.67        73.39272
491.11        72.45543
491.55        72.40559
491.99        72.82983
492.43        72.63951
492.88        71.95277
493.32         71.9991
493.76        72.23579
494.20        72.54801
494.64        72.67899
495.08        72.79923
495.52        72.97334
495.96        73.06297
496.41        73.02187
496.85        73.46548
497.29        74.12758
497.73        73.00372
498.17         71.0835
498.61        71.22669
499.05        73.47774
499.49        74.02625
499.93        74.40417
500.37        74.16393
500.82        73.26223
501.26        73.30151
501.70        73.98646
502.14        74.22618
502.58        73.87478
503.02         73.6175
503.46         73.4682
503.90        73.05349
504.34        72.53515
504.78        72.32964
505.22        72.48075
505.66        72.90558
506.10        73.46252
506.54        73.70647
506.98         73.5091
507.42        73.52031
507.86        73.36026
508.30        72.66879
508.74        73.11214
509.18        73.20998
509.62        73.39677
510.06        73.49556
510.50        73.48508
510.94        73.39365
511.38          73.273
511.82        73.24064
512.26        73.31853
512.70        73.47027
513.14        73.63465
513.58        73.71871
514.02        73.69308
514.46        73.57946
514.90        73.44505
515.34        73.37971
515.78        73.39608
516.22        73.52706
516.66        73.69328
517.10        73.61394
517.54        73.26538
517.98        73.24665
518.42        72.89971
518.86        72.94749
519.30        73.18317
519.74        73.60493
520.18        74.07243
520.62        74.35372
521.06        74.39738
521.50        74.27157
521.93        74.05946
522.37        73.89668
522.81        73.83897
523.25        73.84574
523.69        73.90993
524.13         74.0238
524.57        74.17254
525.01        74.35844
525.45        74.54787
525.89        74.68056
526.32        74.72874
526.76        74.69893
527.20        74.60303
527.64        74.48532
528.08        74.38287
528.52        74.23453
528.96        74.01782
529.40        73.90456
529.83         73.9391
530.27        73.32394
530.71        73.54723
531.15        73.50267
531.59        73.62669
532.03         73.8479
532.46        74.13593
532.90        74.40452
533.34        74.60284
533.78        74.75101
534.22        74.82006
534.66        74.77883
535.09        74.62328
535.53        74.39293
535.97        74.13873
536.41        73.96606
536.85        73.90559
537.28        73.93551
537.72        74.00832
538.16        74.05583
538.60        74.05517
539.04        73.96875
539.47        73.82146
539.91         73.8498
540.35        73.98283
540.79        73.89853
541.22        73.62897
541.66        73.52412
542.10        73.59347
542.54         73.6406
542.97         73.6621
543.41        73.77042
543.85        73.94964
544.29        74.17222
544.72        74.34321
545.16        74.38023
545.60        74.24015
546.04        73.88422
546.47        73.48682
546.91        73.40016
547.35        73.66893
547.79        74.20625
548.22        74.74692
548.66        74.86386
549.10        74.49162
549.53        73.81387
549.97        73.14304
550.41        72.84822
550.84        73.01364
551.28        73.56173
551.72        74.28471
552.15        74.66979
552.59        74.57613
553.03        74.70891
553.46        74.18166
553.90          74.035
554.34        74.03632
554.77        74.05797
555.21         74.0398
555.65        74.15048
556.08        74.41785
556.52        73.88343
556.96        74.28857
557.39        74.23901
557.83        74.27593
558.27        74.32931
558.70        74.40929
559.14        74.53747
559.57        74.67776
560.01        74.77437
560.45         74.7951
560.88        74.85451
561.32        74.89722
561.75        74.55766
562.19        74.01181
562.63         73.6517
563.06        73.56717
563.50         73.7719
563.93        74.12949
564.37        74.34425
564.80        74.33958
565.24        74.30927
565.68        74.27533
566.11        74.22545
566.55        74.22313
566.98        74.20909
567.42        74.21496
567.85         74.3708
568.29         74.6813
568.72        74.73685
569.16        74.70511
569.60        75.08966
570.03        75.52132
570.47        75.34375
570.90        74.95364
571.34        73.14893
571.77        74.08463
572.21        74.39536
572.64        74.06808
573.08        72.61782
573.51        69.91798
573.95        72.23618
574.38        76.53526
574.82        74.82969
575.25        74.16811
575.69        72.14433
576.12         70.6958
576.56        69.92134
576.99        71.73704
577.42        75.24426
577.86        74.86773
578.29        73.75182
578.73        77.57653
579.16        71.75161
579.60        66.07571
580.03        68.93656
580.47        73.32861
580.90        74.93921
581.33        73.22576
581.77        72.25393
582.20        79.41238
582.64        78.84535
583.07        67.42265
583.51        66.18707
583.94        65.43993
584.37        68.51641
584.81        71.60981
585.24        75.20602
585.68        76.88333
586.11        75.84214
586.54        70.48381
586.98        68.28752
587.41        69.15572
587.85          73.107
588.28        75.05483
588.71        71.75843
589.15        69.45793
589.58        70.87708
590.01        71.19602
590.45         72.6737
590.88        73.33236
591.31        72.58504
591.75        71.98493
592.18        71.99918
592.61        73.58241
593.05        74.33838
593.48          77.242
593.91         78.0114
594.35         71.5189
594.78        70.08842
595.21        69.90929
595.65        73.04994
596.08        75.71336
596.51        72.84947
596.94        70.91487
597.38        71.72898
597.81        74.69572
598.24        76.14642
598.68        74.63378
599.11        73.49483
599.54        76.63631
599.97        77.89923
600.41        72.56878
600.84        72.64137
601.27        74.32926
601.70        73.24837
602.14        73.37196
602.57        72.31894
603.00        72.87502
603.43        74.39816
603.87        75.96194
604.30        75.57761
604.73         73.4259
605.16        72.14189
605.60        73.21531
606.03        74.30095
606.46        75.03197
606.89        75.13522
607.32        72.63373
607.76        72.47384
608.19        75.10522
608.62        74.29813
609.05        73.15345
609.48        73.83631
609.92        73.91542
610.35        73.13251
610.78        75.43407
611.21        76.15654
611.64        72.67486
612.07        73.45734
612.50        73.92984
612.94        74.43179
613.37        73.81669
613.80        74.15131
614.23        74.66516
614.66         74.5369
615.09        74.65295
615.52         74.6228
615.96        74.56491
616.39        74.71239
616.82        73.84113
617.25         73.2032
617.68        74.30014
618.11        74.88139
618.54        75.22128
618.97        74.72179
619.40        73.80441
619.84        73.81163
620.27        74.91211
620.70        75.60664
621.13        75.76585
621.56        75.09482
621.99        74.20984
622.42        74.95209
622.85        76.82877
623.28        76.57857
623.71        75.83041
624.14        75.62638
624.57        75.31738
625.00        75.28165
625.43        75.37556
625.86        74.76637
626.29        74.87791
626.72        75.63308
627.15        75.16718
627.58         75.3265
628.01        75.43279
628.44        75.55214
628.87        75.69719
629.30        75.74469
629.73        76.05412
630.16        76.12139
630.59        75.85542
631.02        75.47235
631.45        75.04935
631.88        74.80799
632.31        74.79245
632.74        74.92458
633.17        75.12534
633.60        75.27163
634.03         75.3166
634.46        75.29732
634.89        75.23462
635.32        75.16416
635.75        75.10353
636.18         75.0325
636.61        74.96873
637.04        74.94812
637.47        74.97374
637.89        75.05212
638.32        75.12206
638.75        75.12991
639.18        75.06012
639.61        74.93211
640.04         74.7809
640.47        74.66264
640.90         74.5988
641.33        74.57204
641.76        74.54211
642.18        74.55048
642.61        74.58823
643.04        74.47935
643.47        74.20869
643.90        74.71445
644.33          74.461
644.76        74.67731
645.18        74.84621
645.61        74.89488
646.04        74.78511
646.47        74.53226
646.90        74.27641
647.33        74.18811
647.75           74.33
648.18        74.70386
648.61         75.0647
649.04        75.03806
649.47        74.58209
649.89        73.65833
650.32        72.75002
650.75        72.82486
651.18        73.80713
651.61        74.76842
652.03        75.27677
652.46        75.23622
652.89        75.03074
653.32        74.42374
653.74        73.78831
654.17        75.26189
654.60         75.9327
655.03          73.297
655.46        74.21181
655.88        78.13554
656.31         82.7027
656.74        183.0667
657.16        118.4153
657.59        41.96799
658.02        32.07631
658.45        56.06302
658.87        72.16426
659.30        75.40044
659.73         74.3372
660.15        71.83553
660.58        74.54633
661.01        76.47025
661.44        73.98555
661.86        73.28835
662.29         73.4833
662.72        74.29649
663.14        75.47189
663.57        75.32578
664.00        74.15764
664.42        73.91025
664.85        74.66949
665.27        75.16768
665.70        75.19142
666.13        75.12531
666.55        74.94269
666.98        74.52325
667.41        74.03951
667.83        73.83421
668.26        73.97939
668.69        74.33532
669.11        74.67986
669.54        75.02132
669.96        74.59265
670.39        74.08402
670.82        73.51246
671.24        73.23973
671.67        73.39163
672.09        73.88623
672.52         74.4201
672.94        74.98994
673.37        74.29945
673.80        74.12084
674.22        74.14819
674.65        74.10997
675.07        73.99712
675.50        73.82815
675.92        73.68126
676.35        73.71073
676.77        73.92159
677.20        74.21275
677.62        74.50859
678.05        74.59711
678.47         74.4179
678.90        74.40557
679.32        74.02362
679.75        73.79774
680.17         73.8692
680.60        73.97555
681.02        74.11806
681.45        74.12718
681.87        73.98085
682.30        73.77968
682.72        73.61665
683.15        73.49736
683.57        73.53876
684.00        73.95274
684.42         74.6803
684.85        74.96117
685.27        74.74677
685.70        74.35114
686.12        73.93639
686.54        73.71008
686.97         73.7298
687.39        73.94978
687.82        74.23382
688.24        74.41212
688.66        74.40826
689.09         74.2776
689.51        74.13163
689.94        74.12017
690.36        74.28556
690.78        74.55922
691.21         74.8305
691.63        74.93888
692.06        74.84875
692.48        74.62257
692.90        74.36541
693.33         74.2293
693.75        74.25702
694.17        74.40537
694.60        74.62048
695.02        74.79154
695.44        74.84319
695.87        74.99858
696.29        75.26102
696.71        75.01367
697.14        74.48504
697.56        75.02821
697.98        76.32531
698.41        76.18741
698.83         75.2693
699.25        74.65643
699.68        74.64822
700.10        74.53934
700.52        74.36185
700.94        74.51527
701.37        74.90626
701.79        75.26104
702.21        75.47992
702.64        75.65066
703.06        75.71932
703.48        75.59415
703.90        75.29249
704.33        74.83485
704.75        74.36079
705.17         74.1918
705.59         74.4014
706.01        74.78619
706.44        75.15253
706.86        75.82863
707.28        75.72802
707.70         75.7067
708.12        75.55898
708.55        75.44032
708.97        75.36835
709.39        75.30451
709.81        75.27187
710.23         75.2972
710.66        75.38092
711.08        75.55946
711.50        75.72677
711.92        75.72362
712.34        75.52735
712.76        75.16964
713.19         74.8195
713.61         74.7879
714.03        75.11593
714.45        75.70568
714.87        76.31274
715.29        76.54701
715.71        76.32452
716.13        75.77334
716.56         75.1162
716.98        74.74737
717.40        74.76829
717.82        75.05936
718.24         75.4685
718.66        75.73768
719.08        75.78168
719.50         75.6834
719.92        75.50262
720.34        75.35027
720.76        75.27053
721.19        75.10258
721.61        75.08612
722.03        75.08927
722.45        75.17763
722.87        75.34344
723.29        75.55769
723.71        75.75719
724.13         75.9134
724.55         76.0297
724.97        76.10918
725.39        76.16571
725.81        76.20428
726.23        76.22182
726.65        76.21442
727.07        76.17655
727.49        76.11812
727.91        76.05534
728.33        76.01561
728.75        76.04088
729.17          76.134
729.59        76.26891
730.01        76.42963
730.43        76.58047
730.85        76.71021
731.27        76.85728
731.69        76.96635
732.10        76.92716
732.52        76.72935
732.94        76.44922
733.36        76.24365
733.78        76.21844
734.20        76.39885
734.62        77.07573
735.04        77.98756
735.46        77.92723
735.88        77.15038
736.30         77.4184
736.72        78.67602
737.13        79.18089
737.55        78.68968
737.97        78.59772
738.39        78.94221
738.81        78.34146
739.23        77.20302
739.65        77.94938
740.06        80.08917
740.48        80.22449
740.90        78.48643
741.32        77.73251
741.74        78.22339
742.16        78.51847
742.57        78.65526
742.99        79.44965
743.41        80.64604
743.83        81.34999
744.25         81.4063
744.67        81.04898
745.08        80.54398
745.50        80.32507
745.92        80.53224
746.34        81.01033
746.75        81.59056
747.17        81.98921
747.59        82.14631
748.01        82.15562
748.42        82.15278
748.84        82.36688
749.26        82.85464
749.68        83.38397
750.09        83.85054
750.51        84.38589
750.93        84.81318
751.35        84.48051
751.76        83.59853
752.18        83.25594
752.60        83.45932
753.01        83.37733
753.43        83.07176
753.85        83.21848
754.27        83.84991
754.68        84.74015
755.10        85.64769
755.52         86.2075
755.93        86.36256
756.35        86.42545
756.77        86.54585
757.18        86.50976
757.60        86.37141
758.02        86.76456
758.43        87.32394
758.85        86.45148
759.26        84.80309
759.68        84.25284
760.10        86.03349
760.51        86.95126
760.93        86.86843
761.34        85.47406
761.76        84.09261
762.18        83.38612
762.59        83.75901
763.01        84.30992
763.42        84.91946
763.84        85.59769
764.26        86.23193
764.67        86.54075
765.09        86.47201
765.50        86.38252
765.92        86.15298
766.33        84.75953
766.75        82.83207
767.16        82.33246
767.58        83.43944
768.00        85.29739
768.41        87.39526
768.83         88.8148
769.24         88.9935
769.66        88.05054
770.07        86.56289
770.49        84.80981
770.90        83.34084
771.32        84.29713
771.73        86.92963
772.15        86.58601
772.56        83.71729
772.97        83.24164
773.39        85.06381
773.80        85.68427
774.22        84.87482
774.63        84.73779
775.05         85.2463
775.46        85.49376
775.88        85.38798
776.29        85.18391
776.70        84.98797
777.12        85.00192
777.53        85.27718
777.95        85.68354
778.36        86.03227
778.77        85.99874
779.19        85.56746
779.60        84.85328
780.02        84.13443
780.43        83.92023
780.84         84.3651
781.26        84.86667
781.67        85.34302
782.09        86.56991
782.50        87.97112
782.91         87.1333
783.33        84.74457
783.74        83.96756
784.15        84.96163
784.57        85.63725
784.98        85.69895
785.39        85.69241
785.81        85.57811
786.22         85.1758
786.63         84.7604
787.04        84.77671
787.46        85.27612
787.87        86.14664
788.28        87.09848
788.70        87.59324
789.11        87.50382
789.52        87.02499
789.93        86.39358
790.35        85.92339
790.76        85.71938
791.17        85.73867
791.58        85.91086
792.00        86.04038
792.41        86.06092
792.82        86.13258
793.23        86.34023
793.65        86.19363
794.06        85.91761
794.47        86.96639
794.88         88.6077
795.29        88.00837
795.71        85.45336
796.12        83.29979
796.53        82.19916
796.94        81.81794
797.35         82.2894
797.76        83.80025
798.18        85.64967
798.59        86.71677
799.00        86.58951
799.41        85.44269
799.82        83.86926
800.23        82.95514
800.64        82.96337
801.06          83.474
801.47        84.29747
801.88        84.99883
802.29        85.39442
802.70         85.6617
803.11        85.78322
803.52        85.69685
803.93        85.43289
804.34        84.94604
804.75        84.45123
805.17        84.37776
805.58        84.84107
805.99        85.55415
806.40        86.19148
806.81        86.63372
807.22        86.53339
807.63        85.06921
808.04        82.90158
808.45        81.91134
808.86        82.33606
809.27        83.33871
809.68        84.45941
810.09        85.14805
810.50        85.14186
810.91        84.63343
811.32        83.91151
811.73        83.44068
812.14        83.35815
812.55        83.46104
812.96        83.70573
813.37        84.02209
813.78        84.33982
814.19        84.75006
814.60        85.01256
815.01        84.73306
815.42        83.88605
815.83        82.55029
816.24        81.23859
816.65        80.85838
817.05        81.66626
817.46        83.36386
817.87        85.28297
818.28        86.22234
818.69        85.84238
819.10         84.4353
819.51        82.70792
819.92        81.86785
820.33        82.24256
820.74        83.47199
821.14        84.90933
821.55        85.40356
821.96         84.7167
822.37        83.26512
822.78        81.66707
823.19        80.82059
823.60        80.95901
824.00         81.8489
824.41        83.02129
824.82        83.79319
825.23        83.87923
825.64        83.51585
826.04        82.95486
826.45        82.56435
826.86        82.44997
827.27           82.45
827.68         82.4976
828.08        82.54042
828.49        82.47882
828.90        82.43235
829.31        82.34701
829.72        82.09943
830.12        81.72121
830.53        81.22963
830.94         80.8534
831.35        80.90423
831.75        81.46776
832.16        82.39066
832.57        83.45242
832.97        84.17707
833.38        84.32648
833.79        84.03158
834.20        83.53855
834.60         83.2281
835.01        83.23384
835.42        83.44125
835.82        83.68443
836.23        83.60108
836.64        83.15824
837.04        82.50655
837.45        81.88854
837.86        81.68136
838.26         81.9749
838.67        82.59687
839.08        83.34258
839.48        83.83818
839.89        83.91854
840.29        83.71971
840.70        83.32935
841.11        82.86354
841.51          82.394
841.92        81.85526
842.33        81.38152
842.73        81.20924
843.14        81.33846
843.54        81.76893
843.95        82.21693
844.35        82.26638
844.76        81.81525
845.17        81.00459
845.57         80.1437
845.98         79.7181
846.38        79.83881
846.79        80.34431
847.19        81.01043
847.60        81.33637
848.00        81.22156
848.41        80.79996
848.81        80.32492
849.22        80.10033
849.62        80.25976
850.03        80.69848
850.43        81.32102
850.84        81.85507
851.24        82.23673
851.65        82.35021
852.05        82.43312
852.46        82.68982
852.86        83.17139
853.27         83.8476
853.67        84.19496
854.07        83.54395
854.48        81.93031
854.88        79.60808
855.29        77.44553
855.69        76.69028
856.10        77.57494
856.50        79.94296
856.90        82.97372
857.31        84.76689
857.71        84.70749
858.12        83.26411
858.52        81.32843
858.92        80.09261
859.33        79.82091
859.73         80.2011
860.13        80.99913
860.54        81.72731
860.94         82.2525
861.34        82.70727
861.75         83.1112
862.15        83.56769
862.55        84.05586
862.96        84.46623
863.36        84.79459
863.76        85.02383
864.17        85.14268
864.57         85.2195
864.97        85.25833
865.38        85.24519
865.78        85.24055
866.18        85.19018
866.58        85.16294
866.99        85.25678
867.39        85.55132
867.79        86.04831
868.19        86.51605
868.60        86.50537
869.00        85.94208
869.40        84.95565
869.80        84.11594
870.21          84.299
870.61        85.76823
871.01        88.24091
871.41        90.96837
871.81        92.67136
872.22        92.98017
872.62        92.24435
873.02        91.17606
873.42        91.00309
873.82        91.91613
874.22        93.45426
874.63         95.1184
875.03        95.83228
875.43        95.13204
875.83         93.8688
876.23        92.18171
876.63        91.69978
877.03        92.67789
877.44        95.38184
877.84        100.0041
878.24        102.7133
878.64        102.2392
879.04        100.0568
879.44        97.67677
879.84        96.42556
880.24        97.79433
880.64        99.33163
881.04        101.1612
881.44        102.2293
881.84        101.6453
882.24        99.95474
882.65        98.22374
883.05        97.67365
883.45        98.51801
883.85         100.464
884.25        102.7981
884.65        104.1627
885.05        104.1082
885.45        103.1332
885.85        101.8928
886.25        101.2761
886.65        101.4945
887.05        102.2074
887.45        103.2052
887.85        104.1225
888.25        104.7551
888.65        105.2646
889.04        105.4777
889.44        105.1587
889.84        104.3198
890.24        103.0122
890.64        101.7125
891.04        101.1683
891.44        101.5031
891.84        102.5397
892.24        103.7311
892.64        104.0609
893.04        103.3444
893.44         102.036
893.83          100.71
894.23         100.205
894.63        100.6724
895.03        101.7378
895.43        103.2752
895.83        105.0342
896.23        106.7476
896.63        108.4748
897.02        109.6007
897.42        109.1404
897.82         107.072
898.22        103.7952
898.62        100.4675
899.01        98.78993
899.41        99.12663
899.81        100.9258
900.21        103.3334
900.61        104.9284
901.00        105.2654
901.40        104.7796
901.80        103.8961
902.20         103.281
902.59        103.1556
902.99        103.2617
903.39        103.4378
903.79        103.4508
904.18        103.2462
904.58        103.0174
904.98        102.8974
905.38        103.0551
905.77         103.469
906.17        103.9806
906.57        104.5042
906.96        104.9838
907.36        105.3162
907.76        105.5721
908.15         105.531
908.55        104.7194
908.95        103.1859
909.34        101.0722
909.74        99.08635
910.14        98.15737
910.53        98.52948
910.93        100.0152
911.33        102.0193
911.72        103.4157
912.12        103.7622
912.52        103.3365
912.91        102.7099
913.31        102.6605
913.70        103.3902
914.10        104.7014
914.49        106.0799
914.89        106.1522
915.29          104.56
915.68        101.8464
916.08        99.35223
916.47         98.2871
916.87        98.76897
917.26        100.3927
917.66        102.1989
918.05        102.6478
918.45        101.3773
918.84        98.97118
919.24         96.4927
919.64         95.4851
920.03        96.34373
920.42        98.56805
920.82         101.374
921.21        103.5089
921.61         104.309
922.00        104.1704
922.40        103.3931
922.79        102.3547
923.19         101.266
923.58        100.0436
923.98        98.75109
924.37        97.60873
924.77        96.96033
925.16        96.15715
925.55        96.68818
925.95        97.83469
926.34        99.91701
926.74        102.4811
927.13        104.9184
927.52         106.054
927.92        105.7439
928.31        104.3319
928.70        102.2599
929.10        100.3086
929.49         98.7517
929.89        97.44559
930.28        96.70412
930.67        97.03353
931.07        98.33038
931.46        100.5272
931.85         102.744
932.24        103.6372
932.64        102.9475
933.03        100.9214
933.42        98.18793
933.82        96.23578
934.21        95.53335
934.60        95.70571
934.99        96.28127
935.39        96.68262
935.78        96.80863
936.17        96.83899
936.56        96.61323
936.96        96.50475
937.35        95.55254
937.74        94.71295
938.13        94.16829
938.53         94.4679
938.92        95.59662
939.31        97.52728
939.70        99.65221
940.09        100.3368
940.49        99.08459
940.88        96.61185
941.27        94.07993
941.66        92.84778
942.05        93.09891
942.44        94.37901
942.84        96.24064
943.23        97.98986
943.62        99.18401
944.01        99.96846
944.40        100.3567
944.79        100.3883
945.18        100.0872
945.57        99.33891
945.97        98.07951
946.36        96.52563
946.75        95.04763
947.14         93.8889
947.53        93.21668
947.92        93.04249
948.31        93.29707
948.70        93.99832
949.09        95.00348
949.48        95.90945
949.87        96.47052
950.26        96.64893
950.65        96.65057
951.04        96.88747
951.43        97.42237
951.82        98.09462
952.21        98.51517
952.60        98.09522
952.99        96.76538
953.38        94.80434
953.77        92.75798
954.16        91.37229
954.55        90.83887
954.94        91.03291
955.33        91.52473
955.72        91.57217
956.11         90.9964
956.50        89.97995
956.89        89.12927
957.28        89.52739
957.66          91.463
958.05        94.29225
958.44        97.10722
958.83        98.59304
959.22        98.44643
959.61        97.03326
960.00         95.0088
960.39        93.45134
960.78        92.72787
961.16        92.60581
961.55         92.6946
961.94        92.34689
962.33        91.42316
962.72        90.24507
963.11        89.21725
963.49        88.82098
963.88        89.12734
964.27        90.00773
964.66        91.10188
965.04        91.69153
965.43        91.40501
965.82        90.51688
966.21        89.56642
966.60        89.27206
966.98        89.75112
967.37         90.7235
967.76        91.74001
968.15        91.94186
968.53        91.11588
968.92        89.61427
969.31          87.953
969.69        86.75403
970.08        86.18671
970.47        86.08514
970.86        86.27181
971.24        86.45691
971.63        86.49883
972.02        86.46442
972.40        86.53945
972.79        86.97112
973.17        87.92104
973.56        89.17552
973.95        90.31911
974.33        90.57555
974.72        89.71529
975.11        88.00869
975.49        86.30157
975.88        85.79786
976.26        86.66633
976.65        88.73514
977.04        91.07854
977.42        91.39658
977.81        88.92916
978.19        84.60354
978.58        80.73223
978.96        79.73777
979.35        81.96184
979.74        86.89077
980.12        93.30958
980.51        97.15268
980.89        97.09866
981.28        94.33294
981.66        90.65459
982.05        88.36535
982.43        87.87513
982.82        88.38529
983.20        89.62014
983.59        91.35938
983.97        93.52528
984.35         96.3609
984.74        99.19159
985.12        100.7476
985.51        100.1293
985.89        97.52822
986.28        93.74805
986.66        90.25452
987.04        87.95139
987.43        86.73442
987.81         86.2737
988.20        86.11101
988.58        86.06448
988.96        86.20644
989.35        86.93092
989.73         89.2747
990.12        92.65942
990.50        96.11709
990.88         97.8142
991.27        96.87153
991.65        93.72253
992.03        88.67931
992.42        83.31248
992.80        80.55272
993.18        81.32087
993.56        84.05094
993.95        87.18648
994.33        89.34452
994.71        90.15637
995.10        90.40415
995.48        89.97057
995.86        88.46187
996.24        85.90327
996.63        82.00502
997.01        78.00129
997.39        77.41589
997.77        81.54604
998.15        89.32683
998.54        97.28551
998.92        100.8802
999.30        98.79961
999.68        92.23823
1000.06        82.75681
1000.45         74.6269
1000.83        70.08655
1001.21        68.05847
1001.59        68.17087
1001.97          69.957
1002.35        73.08718
1002.73        78.51119
1003.12        84.64024
1003.50        86.15344
1003.88        80.80144
1004.26        71.05718
1004.64        61.99254
1005.02        58.12815
1005.40        59.93422
1005.78         67.3857
1006.16        81.03166
1006.54        93.53092
1006.92        96.74203
1007.30         93.7761
1007.69        89.78256
1008.07        88.16579
1008.45        89.30304
1008.83        93.09746
1009.21        101.6021
1009.59          115.26
1009.97        119.5898
1010.35        85.25513
1010.73        49.33735
1011.11        48.04145
1011.49        56.77491
1011.86          66.634
1012.24        73.04607
1012.62        75.91134
1013.00         76.5239
1013.38        75.51189
1013.76        74.83565
1014.14        80.34996
1014.52        96.67159
1014.90        125.2424
1015.28        158.1303
1015.66        174.0546
1016.04        160.2529
1016.41        120.4016
1016.79        76.85031
1017.17        53.72351
1017.55        50.11847
1017.93        54.75524
1018.31        61.28318
1018.69        66.55592
1019.06        70.91302
1019.44        75.52411
1019.82        83.17352
1020.20        99.09951
1020.58        130.8672
1020.95         193.292
1021.33        328.2606
1021.71       -1465.721
1022.09        -4.70602
1022.46        81.32728
1022.84        111.8587
1023.22        126.0542
1023.60        136.1541
1023.97        179.7977
1024.35        116.8115
1024.73        128.6838
