SpectraSmart Spectrum 2.9.0.0
--------- Device Information -----------
Spectrum Name :  反射率_0
Saving Time :  2024/04/26 01:11:33
Spectro-Module Model Name : SE2030-DUVN
Spectro-Module Serial Number : OS361AC55029948
Wavelength Start : 200
Wavelength End : 1025
Wavelength Unit : Wavelength(nm)
Spectrum Unit : Reflectance(%)
-----------Spectrum Setting ------------
Integration Time : 20ms
Average : 10
Boxcar : 0
Background removal :  enabled
linearity correction :  enabled
SC :  disabled
Intensity correction :  disabled
DWT denoise :  enabled
savitzky-golay :  disabled
FFT :  disabled
Running average :  disabled
Kalman :  disabled
High pass :  disabled
---------------BEGIN--------------------
Wavelength(nm)             Reflectance(%)
200.29               0
200.75        104.7232
201.21        96.33692
201.67        86.02945
202.13        79.30324
202.58        77.00024
203.04        78.05592
203.50        80.49973
203.96        81.15219
204.42         79.4287
204.88        76.59197
205.34        74.50179
205.80        75.21307
206.26          79.825
206.72        91.08092
207.18        113.1365
207.64        131.3273
208.10        116.6411
208.55        89.29751
209.01        72.67654
209.47        67.86407
209.93        69.99608
210.39        76.61649
210.85        84.63013
211.31        87.22906
211.77        82.12795
212.23        72.07588
212.69        61.59216
213.14        57.56654
213.60        61.20237
214.06        70.38144
214.52        81.45814
214.98        88.85453
215.44        90.83691
215.90         89.1476
216.36         85.4965
216.81        82.09855
217.27        80.06369
217.73        78.66687
218.19        77.01022
218.65        73.80414
219.11        68.27471
219.57        59.63287
220.02        48.78754
220.48        42.09664
220.94        43.21643
221.40        50.93961
221.86        58.52022
222.32        58.80967
222.77        52.54066
223.23        43.52525
223.69        36.11444
224.15        34.79367
224.61        38.96878
225.06        46.46956
225.52        53.59155
225.98        55.58466
226.44        51.82143
226.90        44.41061
227.36        36.66072
227.81        33.07196
228.27         34.7205
228.73        39.74826
229.19        45.77121
229.65        49.28503
230.10        49.56824
230.56         48.0775
231.02        46.18222
231.48        45.37222
231.93        45.81517
232.39        46.90092
232.85        48.04843
233.31        48.50235
233.77        48.05721
234.22        47.00573
234.68        45.74034
235.14        44.91676
235.60        44.81632
236.05         45.2657
236.51        45.94828
236.97        46.38742
237.43        46.50843
237.88        46.54871
238.34        46.79242
238.80        48.00076
239.26        50.42025
239.71        53.80045
240.17        57.42467
240.63        60.63875
241.08        63.18816
241.54        65.02848
242.00        66.41933
242.46        67.95913
242.91        70.54945
243.37        75.60947
243.83        90.27525
244.28        138.2091
244.74        193.7583
245.20        164.4361
245.66        137.7506
246.11        132.5388
246.57        141.9265
247.03        175.9177
247.48        278.6283
247.94        239.2047
248.40        132.8922
248.85        99.06016
249.31         88.4781
249.77        86.53689
250.22        89.09692
250.68        95.48557
251.14        105.8805
251.59        114.7943
252.05        115.5423
252.51        110.2439
252.96         102.207
253.42        95.48362
253.88        90.22907
254.33        85.13773
254.79        82.57105
255.25         85.2042
255.70        91.67665
256.16        99.88963
256.62        106.0072
257.07        106.2413
257.53        101.7488
257.99        94.26467
258.44        86.35794
258.90        82.00979
259.35        80.42484
259.81        80.16425
260.27        79.28201
260.72        75.92435
261.18        70.82465
261.63        64.79153
262.09        59.24671
262.55        55.09588
263.00        52.36151
263.46         50.6998
263.91        49.44039
264.37        48.18483
264.83        46.68504
265.28        44.94906
265.74        43.31086
266.19        42.00338
266.65        41.21011
267.11        40.74247
267.56         40.2507
268.02         39.3086
268.47         37.8061
268.93         35.8866
269.38         33.8523
269.84        32.46737
270.30        31.93298
270.75         32.0556
271.21        32.38175
271.66        32.21515
272.12        31.39356
272.57        30.14695
273.03        28.88154
273.48        28.12647
273.94        28.01162
274.39        28.27766
274.85        28.62708
275.31        28.62648
275.76        28.16148
276.22        27.41821
276.67        26.54913
277.13        25.86102
277.58        25.38736
278.04        25.06715
278.49        24.77439
278.95        24.39329
279.40        23.87488
279.86        23.32962
280.31        22.79849
280.77        22.44139
281.22        22.24219
281.68        22.16255
282.13        22.13512
282.59        22.10313
283.04        22.03749
283.50        21.98729
283.95        21.91501
284.41        21.78205
284.86        21.58773
285.32        21.35672
285.77        21.18438
286.22         21.2756
286.68        21.62561
287.13        22.13409
287.59        22.61519
288.04          22.785
288.50        22.61529
288.95        22.18972
289.41        21.68363
289.86        21.25652
290.32        21.02403
290.77        20.93183
291.22        20.99997
291.68        21.21677
292.13        21.57874
292.59        22.10358
293.04        22.77838
293.50        23.57268
293.95        24.45308
294.40        25.38775
294.86        26.35101
295.31        27.32292
295.77        28.30937
296.22        29.32588
296.68        30.36655
297.13        31.38865
297.58        32.40893
298.04        33.45697
298.49        34.62001
298.95         36.0829
299.40        37.85706
299.85         39.8731
300.31          41.971
300.76         43.8907
301.21         45.5331
301.67        46.99713
302.12        48.31696
302.58        49.65073
303.03        51.02821
303.48        52.43771
303.94        53.96882
304.39         55.6971
304.84        57.63285
305.30        59.74583
305.75        61.84788
306.20        63.67051
306.66         65.1733
307.11        66.37759
307.57        67.48109
308.02        68.66898
308.47         70.0478
308.93        71.56634
309.38        73.10789
309.83        74.54142
310.29        75.81517
310.74        76.93571
311.19        77.98436
311.65        79.08273
312.10        80.24292
312.55        81.43903
313.00        82.52369
313.46        83.26685
313.91         83.6162
314.36        83.66958
314.82        83.67918
315.27        83.97956
315.72        84.68018
316.18        85.67958
316.63        86.78469
317.08        87.62897
317.53        88.10094
317.99        88.29408
318.44        88.39974
318.89        88.73431
319.35        89.35535
319.80        90.18996
320.25        91.00494
320.70        91.42341
321.16        91.36567
321.61        90.96251
322.06        90.48315
322.51        90.34805
322.97        90.63599
323.42        91.25685
323.87        91.97729
324.32        92.39791
324.78        92.39676
325.23         92.1394
325.68        91.79546
326.13        91.66878
326.59        91.82762
327.04         92.2021
327.49         92.6899
327.94        93.15542
328.39        93.53892
328.85        93.86765
329.30          94.188
329.75        94.39627
330.20        94.50496
330.66        94.54536
331.11        94.68094
331.56         94.9798
332.01        95.69421
332.46        96.59882
332.92        97.62453
333.37        98.71373
333.82        99.70797
334.27        100.6152
334.72        101.3195
335.17        101.6603
335.63        101.6308
336.08        101.3317
336.53         100.969
336.98        100.9228
337.43        101.2995
337.88         102.004
338.34        102.8963
338.79        103.8255
339.24         104.667
339.69        105.4816
340.14        106.1771
340.59        106.5944
341.05        106.7243
341.50        106.5855
341.95        106.3887
342.40        106.4851
342.85        106.9507
343.30        107.6978
343.75        108.5243
344.20        109.0614
344.66        109.2144
345.11        109.0797
345.56        108.8184
346.01         108.672
346.46        108.7172
346.91        108.8813
347.36        109.0969
347.81        109.2663
348.26        109.3644
348.72        109.4464
349.17         109.528
349.62        109.6765
350.07         109.891
350.52         110.121
350.97        110.3141
351.42        110.4031
351.87        110.3705
352.32        110.2465
352.77        110.0336
353.22         109.738
353.67        109.3786
354.13        108.9704
354.58        108.5527
355.03        108.2463
355.48        108.0625
355.93        107.9664
356.38        107.8488
356.83        107.5325
357.28        106.9782
357.73        106.2416
358.18        105.4252
358.63         104.692
359.08        104.0943
359.53        103.5948
359.98        103.1267
360.43        102.5851
360.88        101.9345
361.33        101.1923
361.78        100.4331
362.23        99.77479
362.68        99.24564
363.13        98.82775
363.58        98.38361
364.03        97.69553
364.48        96.73778
364.93        95.58202
365.38        94.45914
365.83        93.74175
366.28        93.49277
366.73        93.57233
367.18        93.71398
367.63        93.48379
368.08        92.77648
368.53        91.75636
368.98        90.59653
369.43        89.55373
369.88         88.7169
370.33        88.00023
370.78         87.4173
371.23        86.99912
371.68        86.72678
372.13        86.60522
372.58        86.52091
373.03         86.2654
373.48        85.79701
373.93        85.17676
374.38        84.51996
374.83        84.01092
375.28        83.69112
375.72         83.4828
376.17        83.34635
376.62        83.19445
377.07         82.9795
377.52        82.70972
377.97        82.36425
378.42         81.9098
378.87        81.36205
379.32        80.76279
379.77        80.12733
380.22        79.47053
380.67        78.80361
381.11        78.12011
381.56        77.51061
382.01        77.12607
382.46        76.99519
382.91        77.09298
383.36        77.22089
383.81        77.06112
384.26        76.55392
384.71        75.77748
385.15        74.97905
385.60         74.6034
386.05        74.67154
386.50        75.03364
386.95        75.37344
387.40        75.16849
387.85        74.35892
388.29        73.17104
388.74        72.02103
389.19        71.18957
389.64        70.73013
390.09        70.49632
390.54        70.46509
390.98        70.60172
391.43        70.84414
391.88        71.17594
392.33        71.41439
392.78        71.24508
393.23          70.668
393.67        69.88303
394.12        69.18783
394.57        68.56337
395.02        68.18537
395.47         68.4754
395.91        69.30757
396.36         69.8643
396.81        70.00353
397.26        70.07026
397.71        70.06757
398.15        69.76672
398.60        69.27602
399.05        68.78074
399.50        68.30854
399.95        67.47334
400.39        66.72325
400.84        66.36414
401.29        66.46461
401.74         66.5675
402.18        66.60652
402.63         66.6676
403.08        66.79238
403.53        67.02333
403.97        67.34191
404.42        67.65503
404.87        67.81231
405.32        67.61774
405.76        67.04694
406.21        66.24001
406.66        65.44744
407.11         65.0127
407.55        65.03629
408.00        65.46482
408.45        66.09246
408.90        66.40971
409.34        66.26882
409.79        65.87202
410.24        65.41295
410.68        65.13484
411.13        65.11799
411.58        65.25166
412.03        65.48291
412.47        65.74379
412.92        65.94259
413.37          66.136
413.81         66.2577
414.26        66.24197
414.71        66.06876
415.15        65.74067
415.60        65.37227
416.05        65.17318
416.49        65.19891
416.94        65.42116
417.39        65.66593
417.83        65.61781
418.28        65.23636
418.73        64.63326
419.17        64.08624
419.62        64.03593
420.07        64.51436
420.51        65.35985
420.96        66.26353
421.41        66.62639
421.85        66.29074
422.30        65.78003
422.74        65.22675
423.19        64.43203
423.64        63.67638
424.08         64.0089
424.53        65.24295
424.98        65.96715
425.42        65.98814
425.87        66.34155
426.31        66.93143
426.76        66.64681
427.21        65.84492
427.65        66.02827
428.10        67.02113
428.54        68.28898
428.99        68.23341
429.44        68.42054
429.88        68.44619
430.33        69.17568
430.77        70.00985
431.22        68.85208
431.66        66.30711
432.11        65.18531
432.56        65.74095
433.00        66.53944
433.45        67.38364
433.89        69.15583
434.34         70.6161
434.78        71.10625
435.23        67.90823
435.67        65.87148
436.12         68.2989
436.57        69.35605
437.01        69.80087
437.46        70.11395
437.90        70.48093
438.35        69.86959
438.79        70.63538
439.24        70.53421
439.68        70.30743
440.13        69.86254
440.57        69.58828
441.02        70.49583
441.46        72.19145
441.91        73.25539
442.35         73.3261
442.80        72.59198
443.24        71.49953
443.69        71.84743
444.13        73.23822
444.58        73.63527
445.02        71.51162
445.47        71.35167
445.91        72.55256
446.36         72.9613
446.80        72.46642
447.24        72.39172
447.69        72.85381
448.13        72.57236
448.58        73.08765
449.02         73.2159
449.47        73.40105
449.91        73.60821
450.36        73.83817
450.80        74.05047
451.25        74.17893
451.69        74.13229
452.13        73.92311
452.58        73.59652
453.02        73.27505
453.47        73.18871
453.91        73.35535
454.36        73.70695
454.80        74.10453
455.24        74.20058
455.69        73.93834
456.13        73.61833
456.58        73.37701
457.02        72.76791
457.46        72.22797
457.91        72.59152
458.35        73.60978
458.79        73.99729
459.24        73.68066
459.68        73.29903
460.13        72.95837
460.57        72.58197
461.01         72.2821
461.46        71.83247
461.90        71.23758
462.34        71.81541
462.79        71.53008
463.23        71.97063
463.68        72.37695
464.12        72.64344
464.56        72.67619
465.01        72.46535
465.45        72.07583
465.89        71.93275
466.34        71.85496
466.78         71.1108
467.22        70.22404
467.67        68.93548
468.11        70.47966
468.55         71.1112
468.99        71.42506
469.44        71.14378
469.88        70.47696
470.32         70.3981
470.77        70.83431
471.21         70.8539
471.65        70.41642
472.10        70.20406
472.54        70.26159
472.98        70.31946
473.42         70.3622
473.87        70.59952
474.31         70.8654
474.75        70.67628
475.20        70.15814
475.64        69.86492
476.08         70.0154
476.52        69.95222
476.97        69.72233
477.41        69.83169
477.85        70.24755
478.29        69.85381
478.74        70.29333
479.18        69.89322
479.62        69.32702
480.06        69.88065
480.50        70.12404
480.95         70.5314
481.39        70.66682
481.83        69.83593
482.27        69.74382
482.72        69.92812
483.16        68.37218
483.60        68.66017
484.04        70.13086
484.48        70.53918
484.93        70.41816
485.37        71.88988
485.81        72.39522
486.25        71.78323
486.69        97.15998
487.14        78.81301
487.58         48.9282
488.02        59.57163
488.46        68.36441
488.90        67.66048
489.34        68.41143
489.79        68.19337
490.23        70.29616
490.67        71.21546
491.11        69.79379
491.55        69.54925
491.99        70.08378
492.43        69.88499
492.88        69.07719
493.32        69.07292
493.76        69.37148
494.20        69.73901
494.64         69.9128
495.08        70.18858
495.52        70.54113
495.96        70.47017
496.41        70.00942
496.85        70.29727
497.29        71.10461
497.73        70.00826
498.17        67.96686
498.61        68.26462
499.05        70.84675
499.49         71.1709
499.93        70.84383
500.37        70.61547
500.82        70.35592
501.26        70.43761
501.70        70.58616
502.14        70.85626
502.58        70.63486
503.02        70.48238
503.46        70.24977
503.90        69.85318
504.34        69.42422
504.78        69.13711
505.22        69.07916
505.66         69.4835
506.10        70.18906
506.54        70.41044
506.98        69.97305
507.42        70.07507
507.86        69.52261
508.30        68.99895
508.74        69.51836
509.18        69.88505
509.62        70.32564
510.06        70.56609
510.50        70.55521
510.94        70.34997
511.38        70.05908
511.82        69.88305
512.26        69.87502
512.70        69.97285
513.14        70.11609
513.58        70.21243
514.02        70.22584
514.46        70.18562
514.90        70.12774
515.34        70.08616
515.78        70.06194
516.22        70.10377
516.66        70.17664
517.10        70.05656
517.54        69.73717
517.98        69.86775
518.42        69.63614
518.86        69.75025
519.30        69.95632
519.74        70.28565
520.18        70.65029
520.62        70.90016
521.06        71.00287
521.50        70.99767
521.93        70.91134
522.37        70.79048
522.81        70.66837
523.25        70.53393
523.69        70.43463
524.13        70.44363
524.57        70.56805
525.01        70.79053
525.45        71.03409
525.89        71.16902
526.32        71.15292
526.76        71.01479
527.20        70.81992
527.64        70.69368
528.08        70.68351
528.52        70.69807
528.96        70.65044
529.40         70.6037
529.83        70.58208
530.27        69.86567
530.71        69.92911
531.15        69.80357
531.59        69.92742
532.03        70.19962
532.46        70.57376
532.90        70.93882
533.34        71.22587
533.78        71.46272
534.22        71.59142
534.66        71.53624
535.09        71.29182
535.53         70.9086
535.97        70.49148
536.41        70.23207
536.85        70.18299
537.28        70.30525
537.72        70.49841
538.16        70.60417
538.60        70.57823
539.04        70.41055
539.47        70.18527
539.91        70.21818
540.35        70.45576
540.79        70.55664
541.22        70.47652
541.66        70.43639
542.10        70.42142
542.54        70.28185
542.97         70.0893
543.41        70.06345
543.85        70.21616
544.29        70.49896
544.72        70.76302
545.16        70.80463
545.60        70.57835
546.04        70.16077
546.47        69.74229
546.91        69.62553
547.35        69.88005
547.79         70.4431
548.22        71.03426
548.66        71.27093
549.10        71.00677
549.53        70.16203
549.97        69.12768
550.41        68.65112
550.84        68.85123
551.28        69.44814
551.72        70.19701
552.15        70.61796
552.59        70.55615
553.03        70.68223
553.46        70.18393
553.90        70.05564
554.34        70.08068
554.77        70.15579
555.21        70.22692
555.65        70.28918
556.08        70.63108
556.52        70.12762
556.96        70.50042
557.39           70.38
557.83        70.28622
558.27        70.22601
558.70        70.22388
559.14        70.21773
559.57        70.23922
560.01        70.46066
560.45        70.80788
560.88        71.10748
561.32        71.24486
561.75         71.0229
562.19        70.59061
562.63        70.11361
563.06        69.74662
563.50         69.9824
563.93         70.3726
564.37        70.59185
564.80        70.47541
565.24          70.403
565.68        70.38368
566.11        70.31551
566.55        70.26641
566.98        70.17129
567.42        70.08708
567.85        70.32494
568.29        70.87404
568.72        71.01143
569.16        70.85783
569.60        71.67133
570.03        71.96403
570.47        71.92439
570.90        71.60854
571.34        69.92303
571.77        70.68019
572.21        71.19759
572.64        70.83086
573.08        69.38047
573.51        66.32769
573.95        68.83404
574.38        73.52363
574.82        71.46068
575.25        70.96501
575.69        68.68332
576.12        67.45654
576.56        66.68068
576.99        68.08778
577.42        71.54346
577.86        71.11911
578.29         70.6339
578.73        74.85645
579.16        68.89797
579.60        62.82064
580.03        65.57157
580.47        69.98315
580.90        71.40486
581.33        70.39021
581.77        69.14511
582.20         76.2203
582.64        76.20161
583.07        64.94389
583.51        63.61367
583.94        62.21047
584.37        64.92356
584.81        68.40965
585.24        72.30311
585.68        74.19109
586.11        72.99331
586.54        67.67428
586.98        65.58953
587.41        65.95279
587.85        69.64286
588.28        72.12337
588.71        68.59634
589.15        66.39101
589.58        67.71832
590.01        68.05142
590.45        69.15907
590.88        69.91973
591.31        69.19927
591.75         68.6757
592.18        68.65389
592.61        70.14509
593.05        70.67357
593.48        74.02573
593.91        74.76266
594.35        68.38491
594.78        66.88422
595.21        66.51687
595.65        69.60661
596.08        72.41676
596.51        69.59585
596.94        67.46235
597.38        68.14013
597.81        71.12988
598.24        72.47883
598.68        71.10956
599.11        70.03045
599.54        72.86578
599.97        74.28485
600.41        68.99621
600.84        69.18347
601.27        70.94016
601.70        69.45062
602.14        69.85175
602.57        68.78623
603.00        69.36996
603.43        70.90831
603.87        72.29838
604.30        72.00322
604.73        70.13904
605.16        68.47124
605.60        69.39021
606.03        70.42239
606.46        71.46709
606.89        71.56088
607.32        69.10715
607.76        68.86783
608.19        71.31722
608.62        70.38611
609.05         69.0629
609.48        69.55014
609.92        69.60316
610.35         68.8588
610.78        71.39268
611.21        71.98956
611.64        68.86325
612.07        69.57838
612.50        69.97649
612.94        70.43202
613.37        69.88971
613.80        69.85668
614.23        70.38575
614.66        70.20679
615.09        70.35528
615.52        70.45567
615.96         70.5846
616.39         70.6909
616.82        69.55284
617.25        69.38176
617.68        69.78043
618.11        70.53582
618.54        71.22878
618.97        70.71697
619.40        69.46724
619.84        69.16188
620.27        70.49184
620.70        71.27017
621.13        71.44299
621.56        70.74506
621.99         69.5532
622.42        70.26635
622.85        72.37629
623.28        71.94333
623.71        71.29867
624.14        71.19444
624.57        70.98208
625.00        70.92567
625.43        71.04443
625.86        70.49969
626.29        70.72742
626.72        71.12188
627.15        70.87064
627.58        70.92788
628.01        70.94633
628.44        71.07628
628.87         71.3573
629.30        71.30589
629.73         71.8746
630.16        71.87105
630.59        71.57754
631.02        71.13748
631.45        70.70586
631.88        70.41637
632.31        70.30383
632.74        70.51125
633.17        70.62838
633.60        70.77176
634.03        70.80797
634.46        70.76563
634.89         70.6496
635.32        70.58914
635.75        70.63401
636.18        70.28968
636.61        70.41475
637.04         70.4442
637.47        70.62179
637.89        70.90668
638.32         71.1921
638.75        71.32661
639.18        71.26173
639.61        71.05845
640.04        70.77901
640.47        70.52582
640.90        70.34428
641.33        70.20474
641.76        70.10081
642.18        70.12154
642.61        70.26037
643.04        70.33818
643.47        70.26978
643.90        70.82872
644.33        70.53229
644.76        70.57202
645.18        70.52811
645.61        70.45503
646.04        70.35473
646.47         70.2086
646.90        70.09101
647.33        70.09389
647.75         70.2601
648.18        70.54321
648.61        70.76672
649.04        70.85999
649.47        70.71725
649.89        69.80883
650.32        68.64662
650.75        68.71796
651.18        69.90276
651.61        70.74994
652.03        70.88087
652.46        70.72283
652.89        70.67654
653.32        70.24397
653.74         69.6965
654.17        71.37662
654.60          71.393
655.03        69.18925
655.46        70.07479
655.88        74.01637
656.31        79.13726
656.74         179.407
657.16        116.8853
657.59        41.11861
658.02        30.84726
658.45        52.84997
658.87        67.65271
659.30         70.9473
659.73        70.01598
660.15        67.91405
660.58        70.07259
661.01        71.75168
661.44        69.42503
661.86        68.75262
662.29        68.90034
662.72        69.75334
663.14        71.02789
663.57        70.89712
664.00        69.65681
664.42        69.36749
664.85        70.11048
665.27        70.54167
665.70        70.46828
666.13        70.35049
666.55        70.17102
666.98        69.78664
667.41        69.34937
667.83        69.17098
668.26        69.31377
668.69        69.64767
669.11        69.97501
669.54        70.32191
669.96        69.97435
670.39        69.56425
670.82        69.08231
671.24        68.87203
671.67        69.03822
672.09        69.40464
672.52          69.742
672.94        70.31971
673.37        69.84653
673.80         69.7027
674.22        69.59448
674.65        69.51569
675.07         69.4655
675.50        69.31838
675.92        69.14114
676.35         69.1393
676.77        69.32993
677.20        69.57881
677.62        69.82106
678.05         69.9558
678.47        69.94268
678.90        69.82906
679.32        69.69045
679.75        69.51119
680.17        69.59354
680.60        69.69839
681.02        69.81884
681.45         69.7588
681.87         69.5149
682.30        69.20963
682.72        68.96381
683.15        68.89696
683.57        69.07515
684.00        69.44953
684.42        70.00909
684.85        70.25415
685.27        70.15533
685.70        69.86002
686.12        69.50177
686.54        69.31734
686.97        69.35673
687.39        69.55207
687.82          69.789
688.24        69.95473
688.66        69.98667
689.09        69.84872
689.51        69.76186
689.94        69.69052
690.36        69.71516
690.78        69.79526
691.21        69.88696
691.63        69.92731
692.06        69.90243
692.48        69.84647
692.90        69.80251
693.33        69.81919
693.75        69.90845
694.17        70.05573
694.60        70.22393
695.02        70.33757
695.44         70.3401
695.87        70.41632
696.29        70.58257
696.71        70.31975
697.14        69.82855
697.56        70.30293
697.98        71.46394
698.41        71.29558
698.83        70.52645
699.25        70.02172
699.68        70.08696
700.10        70.06586
700.52        69.98082
700.94        70.20068
701.37        70.62218
701.79        70.97044
702.21         71.1477
702.64        71.23918
703.06        71.22386
703.48        71.06218
703.90        70.78127
704.33        70.39376
704.75        69.99277
705.17        69.81701
705.59        69.92536
706.01        70.14806
706.44        70.35686
706.86        70.94764
707.28        70.92117
707.70        71.04258
708.12        71.06225
708.55          71.043
708.97        70.97956
709.39        70.86112
709.81        70.73485
710.23        70.67062
710.66        70.68968
711.08        70.81521
711.50        70.94606
711.92        70.93147
712.34        70.74608
712.76        70.41975
713.19        70.11028
713.61        70.10323
714.03        70.43277
714.45        71.00853
714.87        71.58353
715.29        71.76568
715.71        71.47748
716.13        70.85023
716.56        70.13322
716.98        69.76216
717.40        69.84516
717.82        70.24821
718.24        70.78866
718.66        71.15241
719.08        71.23824
719.50        71.15014
719.92        70.95792
720.34        70.78986
720.76        70.69898
721.19        70.51694
721.61        70.49734
722.03        70.56648
722.45        70.78549
722.87        71.13254
723.29        71.50285
723.71        71.70705
724.13        71.69525
724.55        71.51543
724.97        71.26603
725.39        71.11802
725.81         71.1198
726.23        71.22049
726.65        71.35802
727.07        71.43091
727.49        71.41605
727.91        71.36261
728.33        71.30244
728.75        71.28349
729.17        71.31924
729.59        71.37468
730.01        71.46589
730.43        71.61522
730.85        71.81941
731.27        72.10101
731.69        72.35908
732.10        72.40665
732.52        72.21449
732.94        71.87707
733.36         71.5858
733.78        71.51768
734.20        71.71471
734.62        72.41632
735.04        73.34692
735.46        73.33337
735.88        72.60587
736.30        72.81713
736.72        73.90835
737.13        74.31863
737.55        73.80068
737.97        73.45912
738.39        73.43594
738.81        72.84785
739.23        72.07278
739.65        73.05034
740.06        75.22723
740.48        75.46956
740.90        73.86108
741.32        73.01738
741.74        73.24327
742.16        73.35023
742.57        73.42278
742.99        74.18177
743.41        75.35649
743.83        76.05737
744.25        76.11961
744.67        75.78277
745.08        75.31739
745.50        75.15566
745.92        75.43165
746.34        75.98768
746.75        76.62181
747.17        77.00149
747.59        77.05356
748.01         76.8847
748.42         76.6902
748.84         76.7573
749.26        77.15942
749.68        77.77683
750.09        78.42696
750.51        78.81551
750.93        78.87815
751.35        78.65123
751.76        78.26978
752.18        78.13538
752.60        78.23005
753.01        78.12509
753.43        77.87595
753.85        77.96746
754.27        78.43383
754.68        79.04696
755.10        79.65891
755.52        80.18542
755.93        80.54459
756.35        80.69833
756.77        80.73021
757.18        80.71516
757.60        80.68706
758.02        80.88245
758.43        81.06625
758.85        80.66209
759.26         79.1517
759.68        79.23212
760.10        80.38482
760.51        80.96146
760.93        80.75972
761.34        79.12867
761.76        79.14786
762.18        78.67519
762.59        78.65599
763.01        78.91475
763.42        79.48428
763.84        80.07841
764.26        80.59902
764.67        81.11989
765.09        81.43565
765.50        81.20964
765.92        80.47423
766.33        79.16226
766.75        77.78507
767.16          77.368
767.58        78.03802
768.00        79.46766
768.41        81.27351
768.83        82.47981
769.24        82.62337
769.66        81.96958
770.07        80.91245
770.49        79.40149
770.90          77.913
771.32         78.5466
771.73        80.69645
772.15        80.20223
772.56        77.54089
772.97        77.19614
773.39        79.04196
773.80        79.78892
774.22        79.18784
774.63        79.11652
775.05         79.6982
775.46        79.92098
775.88        79.74769
776.29        79.41939
776.70        79.07527
777.12        78.97351
777.53        79.18044
777.95        79.55883
778.36        79.92261
778.77        79.94843
779.19         79.6144
779.60        79.03619
780.02        78.44308
780.43        78.30581
780.84        78.77417
781.26        79.15977
781.67        79.44101
782.09        80.76212
782.50        82.44731
782.91        81.49084
783.33        78.66742
783.74        77.71626
784.15        78.82617
784.57        79.68587
784.98        79.88648
785.39        79.78071
785.81        79.36082
786.22           78.77
786.63         78.3418
787.04        78.35048
787.46        78.86037
787.87        79.89139
788.28        81.07732
788.70        81.67303
789.11         81.5185
789.52        80.87286
789.93        80.06075
790.35        79.53065
790.76        79.41393
791.17        79.61582
791.58        79.99062
792.00        80.20795
792.41        80.15889
792.82        80.08408
793.23        80.11234
793.65         79.7859
794.06         79.4174
794.47        80.51958
794.88        82.28549
795.29        82.07627
795.71         79.5122
796.12        77.34976
796.53        76.10131
796.94        75.86712
797.35        76.69737
797.76        77.95158
798.18        79.03012
798.59        79.92651
799.00        80.37946
799.41        79.01761
799.82        78.11964
800.23         77.2413
800.64        77.14395
801.06        77.39098
801.47        77.89202
801.88        78.35408
802.29        78.63411
802.70        78.88882
803.11        79.08241
803.52        79.11648
803.93        78.99705
804.34        78.70086
804.75        78.39188
805.17        78.39285
805.58        78.79419
805.99        79.37626
806.40         79.8915
806.81        80.22694
807.22        80.13165
807.63        79.04507
808.04        77.44627
808.45        76.67635
808.86         76.9128
809.27        77.56443
809.68        78.32088
810.09        78.81855
810.50        78.87327
810.91        78.60844
811.32        78.19872
811.73        77.92626
812.14        77.87127
812.55        77.89798
812.96        77.98191
813.37        78.09061
813.78        78.19435
814.19        78.36754
814.60        78.45215
815.01        78.18552
815.42        77.54771
815.83        76.57737
816.24        75.65312
816.65        75.43868
817.05        76.12068
817.46        77.47789
817.87         78.9545
818.28        79.54895
818.69        79.00453
819.10        77.57294
819.51        75.94392
819.92        75.28963
820.33        75.90513
820.74        77.42877
821.14        79.18265
821.55        79.95924
821.96        79.48539
822.37         78.1706
822.78        76.60569
823.19        75.66056
823.60        75.57854
824.00         76.1404
824.41        76.96272
824.82        77.51151
825.23         77.5612
825.64        77.31541
826.04        76.96853
826.45        76.78763
826.86        76.83886
827.27        76.97979
827.68        77.12459
828.08         77.1894
828.49        77.07502
828.90        76.89301
829.31         76.6241
829.72        76.22421
830.12        75.75681
830.53        75.23072
830.94        74.85014
831.35        74.87965
831.75        75.38928
832.16        76.24482
832.57        77.23666
832.97        77.90765
833.38        78.03498
833.79        77.73678
834.20         77.2485
834.60         76.9417
835.01        76.93765
835.42        77.11096
835.82        77.30407
836.23        77.17278
836.64        76.69046
837.04        76.02647
837.45        75.37371
837.86        75.02634
838.26        75.07098
838.67        75.35925
839.08        75.83787
839.48         76.3933
839.89        76.90323
840.29        77.40221
840.70        77.73241
841.11        77.64397
841.51        77.13699
841.92        76.26437
842.33        75.34906
842.73        74.94685
843.14        75.14985
843.54        75.83714
843.95          76.643
844.35        77.00443
844.76        76.75565
845.17        76.10764
845.57        75.30923
845.98        74.74314
846.38        74.52311
846.79        74.48974
847.19        74.61652
847.60        74.77784
848.00         74.9476
848.41        75.15469
848.81        75.34289
849.22        75.33527
849.62        75.16627
850.03        74.87003
850.43        74.63461
850.84        74.73281
851.24         75.2759
851.65        75.99922
852.05        76.87975
852.46        77.69337
852.86         78.3418
853.27        78.91713
853.67        79.02798
854.07        78.20068
854.48        76.52386
854.88        74.17435
855.29        71.95518
855.69        71.02712
856.10        71.60303
856.50        73.56446
856.90        76.15618
857.31        77.61906
857.71        77.41451
858.12        75.98811
858.52        74.19636
858.92        73.17034
859.33        73.15311
859.73        73.83484
860.13        74.94736
860.54        75.92246
860.94        76.56145
861.34        76.99239
861.75        77.25972
862.15        77.52573
862.55        77.80254
862.96        77.99661
863.36        78.10655
863.76        78.12092
864.17        78.05846
864.57        78.02134
864.97        78.07042
865.38        78.26877
865.78        78.67161
866.18        79.16279
866.58        79.73432
866.99        80.36486
867.39         81.0622
867.79        81.83819
868.19        82.40141
868.60        82.22075
869.00         81.2262
869.40        79.59618
869.80        78.05485
870.21          77.725
870.61        78.93655
871.01        81.35192
871.41        84.16468
871.81        85.96971
872.22        86.34535
872.62        85.67928
873.02         84.5976
873.42         84.2587
873.82        84.79671
874.22        85.56926
874.63        86.32588
875.03        86.65781
875.43        86.31295
875.83        86.26185
876.23        85.13418
876.63        84.95621
877.03         85.7159
877.44         87.7174
877.84        102.6993
878.24        94.54011
878.64        93.92297
879.04        92.65968
879.44        87.99513
879.84        85.44093
880.24        89.21885
880.64        91.30672
881.04        92.42034
881.44        93.13357
881.84        92.79073
882.24        91.61065
882.65        90.40603
883.05          89.969
883.45        90.45357
883.85         91.8108
884.25        93.45827
884.65        94.18932
885.05        93.68011
885.45        92.39005
885.85        91.01589
886.25        90.49323
886.65        91.00683
887.05        92.22793
887.45        93.73595
887.85         94.7787
888.25        95.06324
888.65        94.83729
889.04         94.2831
889.44        93.73222
889.84        93.30562
890.24        92.88155
890.64        92.53426
891.04        92.40234
891.44        92.48135
891.84        92.77308
892.24        93.10438
892.64        93.11642
893.04        92.78206
893.44        92.29872
893.83        91.86376
894.23        91.78281
894.63        92.10538
895.03        92.64726
895.43        93.49114
895.83         94.7626
896.23        96.34688
896.63        98.17249
897.02        99.57418
897.42        99.48816
897.82        97.81973
898.22        95.00452
898.62        92.06004
899.01        90.47839
899.41        90.59567
899.81         91.8989
900.21        93.75712
900.61        95.11817
901.00        95.62257
901.40        95.62601
901.80        95.28024
902.20          94.814
902.59        94.35907
902.99        93.77064
903.39        93.23825
903.79        93.13791
904.18        93.52995
904.58        94.37507
904.98        95.33338
905.38        95.84593
905.77        95.77225
906.17        95.26686
906.57          94.617
906.96        94.31538
907.36        94.39905
907.76        94.71259
908.15        95.00027
908.55        94.74056
908.95        93.88229
909.34         92.6038
909.74        91.27419
910.14        90.26254
910.53        89.73306
910.93        89.63818
911.33         89.9373
911.72        90.56833
912.12        91.33605
912.52        92.11748
912.91        92.88889
913.31        93.66863
913.70        94.51813
914.10        95.46822
914.49        96.14298
914.89        95.63062
915.29        93.83555
915.68        91.17048
916.08        88.89835
916.47        88.19959
916.87        89.13957
917.26        91.35159
917.66        93.81579
918.05        94.83643
918.45        93.96781
918.84        91.78244
919.24        89.35517
919.64        88.27548
920.03        88.96019
920.42        90.91627
920.82        93.35294
921.21        95.01021
921.61        95.29172
922.00        94.66582
922.40         93.5444
922.79        92.47507
923.19        91.70678
923.58        90.96658
923.98         90.1603
924.37        89.55816
924.77        89.42572
925.16        87.60287
925.55        88.43047
925.95        89.03337
926.34         90.6563
926.74        92.77142
927.13        94.81293
927.52        95.59082
927.92         94.9515
928.31        93.31451
928.70        91.16272
929.10        89.33447
929.49        88.09125
929.89         87.2343
930.28        87.00645
930.67        87.80202
931.07        89.46717
931.46        91.96148
931.85        94.34585
932.24        95.20825
932.64        94.29434
933.03        91.81187
933.42          88.604
933.82        86.56919
934.21        86.25154
934.60        87.13628
934.99        88.30546
935.39         88.7479
935.78        88.29245
936.17        86.85387
936.56         84.3565
936.96        84.62546
937.35        83.43921
937.74        84.23845
938.13        85.15853
938.53        86.13152
938.92        87.16787
939.31        88.44901
939.70        89.72327
940.09        90.11897
940.49        89.41359
940.88        87.97523
941.27        86.45525
941.66         85.6389
942.05        85.64177
942.44        86.21037
942.84        87.16269
943.23        88.26631
943.62        89.25256
944.01         90.1182
944.40        90.68222
944.79        90.67331
945.18        90.01467
945.57        88.70197
945.97        86.80637
946.36        84.80643
946.75        83.25391
947.14        82.25867
947.53        81.87811
947.92        82.05147
948.31        82.67669
948.70        83.78505
949.09        85.17135
949.48        86.25008
949.87        86.69897
950.26        86.55502
950.65        86.07407
951.04        85.74374
951.43        85.69964
951.82        85.79382
952.21        85.84455
952.60        85.58707
952.99        84.95306
953.38        84.04668
953.77        83.08619
954.16        82.33587
954.55         81.8679
954.94         81.6961
955.33        81.52239
955.72        80.83973
956.11        79.59163
956.50        77.91923
956.89         76.5369
957.28        76.71915
957.66        78.80647
958.05        82.13424
958.44        85.63507
958.83         87.7384
959.22        88.04666
959.61        86.93478
960.00        85.08698
960.39        83.65395
960.78         83.0277
961.16        82.96647
961.55        83.02347
961.94        82.44876
962.33        81.14101
962.72        79.51163
963.11        78.17136
963.49        77.87701
963.88        78.73225
964.27         80.5238
964.66        82.69947
965.04        84.05154
965.43        83.97955
965.82        82.90285
966.21        81.47558
966.60        80.56476
966.98        80.36832
967.37        80.55976
967.76        80.91853
968.15        81.03314
968.53        80.76305
968.92         80.2747
969.31        79.69832
969.69        79.12162
970.08        78.59486
970.47        78.09172
970.86        77.60327
971.24        77.15055
971.63        76.76006
972.02        76.45067
972.40        76.36519
972.79         76.7013
973.17        77.58149
973.56        78.82956
973.95        80.16497
974.33        81.00466
974.72        81.03709
975.11        80.34739
975.49        79.39777
975.88        78.93062
976.26        79.04632
976.65        79.63549
977.04        80.05831
977.42        78.91056
977.81        75.95975
978.19        71.94258
978.58        68.67492
978.96        67.89624
979.35        69.80787
979.74        74.11022
980.12        79.80081
980.51        83.38595
980.89        83.71206
981.28        81.63396
981.66        78.77429
982.05        77.24776
982.43        77.40742
982.82        78.51015
983.20        80.11673
983.59        81.70279
983.97        83.14041
984.35        84.66589
984.74        85.98151
985.12        86.69534
985.51        86.37873
985.89        85.00654
986.28        82.83878
986.66        80.26415
987.04        77.91318
987.43        76.07084
987.81        74.74788
988.20        73.79385
988.58        73.02496
988.96        72.16801
989.35        71.80965
989.73        73.72828
990.12        78.01645
990.50        83.41623
990.88         86.7843
991.27        86.05626
991.65         81.8313
992.03        74.70955
992.42        67.26539
992.80        64.33194
993.18        67.09393
993.56        72.93297
993.95        79.05134
994.33        82.79035
994.71        83.67278
995.10        82.97698
995.48        81.15252
995.86        78.64279
996.24        75.72102
996.63        71.87735
997.01        68.02277
997.39        67.07121
997.77        70.13211
998.15        76.57563
998.54        83.34234
998.92        86.31563
999.30        84.30691
999.68        78.32047
1000.06        70.04095
1000.45        63.81465
1000.83        61.48936
1001.21        61.67397
1001.59        63.44133
1001.97        65.82662
1002.35         68.5023
1002.73         72.4099
1003.12        76.17303
1003.50        75.62389
1003.88        69.46001
1004.26        59.97416
1004.64        51.58139
1005.02        47.96278
1005.40        49.38318
1005.78        55.94308
1006.16        68.18156
1006.54        79.54401
1006.92        82.60064
1007.30        79.91886
1007.69        76.13177
1008.07        74.43127
1008.45        74.98065
1008.83        77.47198
1009.21          82.522
1009.59        86.05137
1009.97        66.25237
1010.35        2.896403
1010.73       -21.97459
1011.11       0.2397818
1011.49        24.88673
1011.86        45.33547
1012.24        57.38944
1012.62         62.0603
1013.00        61.99721
1013.38        58.37287
1013.76        53.75803
1014.14        57.04924
1014.52        75.81428
1014.90        112.4028
1015.28        157.5469
1015.66           183.5
1016.04         172.919
1016.41        130.0837
1016.79        79.13538
1017.17        48.35407
1017.55        39.34621
1017.93        39.97758
1018.31        44.44881
1018.69        50.31739
1019.06        57.63986
1019.44        68.29642
1019.82        84.91637
1020.20        107.2231
1020.58        133.5107
1020.95        163.0527
1021.33        198.0104
1021.71       -271.1081
1022.09        103.6499
1022.46        125.5156
1022.84        135.2776
1023.22        146.5363
1023.60        172.2489
1023.97        412.5798
1024.35        9.333713
1024.73        58.02458
