SpectraSmart Spectrum 2.9.0.0
--------- Device Information -----------
Spectrum Name :  反射率_0
Saving Time :  2024/04/26 01:51:58
Spectro-Module Model Name : SE2030-DUVN
Spectro-Module Serial Number : OS361AC55029948
Wavelength Start : 200
Wavelength End : 1025
Wavelength Unit : Wavelength(nm)
Spectrum Unit : Reflectance(%)
-----------Spectrum Setting ------------
Integration Time : 20ms
Average : 10
Boxcar : 0
Background removal :  enabled
linearity correction :  enabled
SC :  disabled
Intensity correction :  disabled
DWT denoise :  enabled
savitzky-golay :  disabled
FFT :  disabled
Running average :  disabled
Kalman :  disabled
High pass :  disabled
---------------BEGIN--------------------
Wavelength(nm)             Reflectance(%)
200.29               0
200.75        94.75494
201.21         85.0196
201.67        73.99686
202.13        68.09333
202.58        68.06272
203.04        72.21622
203.50        78.26217
203.96        82.10234
204.42        82.54899
204.88        81.26253
205.34        79.75747
205.80        79.57994
206.26        81.37947
206.72        85.79486
207.18        94.61388
207.64        103.1257
208.10        99.07114
208.55        88.86606
209.01         81.7014
209.47        77.92327
209.93        75.73512
210.39        74.39965
210.85        72.66996
211.31        68.77628
211.77        62.88953
212.23        55.81708
212.69        50.36539
213.14        50.91809
213.60        57.69323
214.06        69.47066
214.52        82.10825
214.98        89.17676
215.44        89.22834
215.90        84.38254
216.36        77.77663
216.81        73.85423
217.27        73.84795
217.73        76.03812
218.19        78.54416
218.65        79.05189
219.11        76.73172
219.57        71.34948
220.02        63.49768
220.48        57.95444
220.94        57.30392
221.40        60.58532
221.86        63.06775
222.32        59.62717
222.77        51.24704
223.23        41.48659
223.69        33.66304
224.15        31.12142
224.61        33.28997
225.06        38.26922
225.52        43.52271
225.98        46.07307
226.44        45.33822
226.90        42.65135
227.36        39.39598
227.81        37.38153
228.27        37.32895
228.73        38.32922
229.19        40.01941
229.65        41.89385
230.10        43.54866
230.56        45.05486
231.02        46.11841
231.48        46.34698
231.93         45.7991
232.39        44.66516
232.85        43.31044
233.31        42.36589
233.77        41.97894
234.22        41.97158
234.68        42.15761
235.14        42.08209
235.60        41.64831
236.05        41.14071
236.51        40.67748
236.97        40.33715
237.43        40.20753
237.88        40.27315
238.34        40.89047
238.80        42.91003
239.26        46.48753
239.71        51.41368
240.17         56.4062
240.63        59.77382
241.08        61.11478
241.54        60.69569
242.00        59.63437
242.46        59.68719
242.91        62.03259
243.37        68.38384
243.83        88.19677
244.28        150.5101
244.74        217.2283
245.20        176.5281
245.66        140.7065
246.11        129.6682
246.57        131.7215
247.03        147.9296
247.48        195.0558
247.94        156.4515
248.40        102.1035
248.85        87.50668
249.31        84.19993
249.77        84.95924
250.22        88.29601
250.68        94.58582
251.14         103.825
251.59        110.4814
252.05        108.6213
252.51        100.5119
252.96        90.92878
253.42        84.90849
253.88        82.13627
254.33        80.95335
254.79        81.56863
255.25        83.69378
255.70        86.48056
256.16        89.77396
256.62        91.94763
257.07        91.31663
257.53        88.58565
257.99        84.20125
258.44         79.5171
258.90        77.10118
259.35        76.13133
259.81        75.83772
260.27         74.6981
260.72        71.23207
261.18        66.19331
261.63        60.23248
262.09        54.77901
262.55        50.80669
263.00        48.29727
263.46         46.8624
263.91        45.73302
264.37        44.35238
264.83        42.50677
265.28        40.29149
265.74        38.16867
266.19         36.6051
266.65        35.81308
267.11        35.51059
267.56        35.26131
268.02        34.52451
268.47        33.18464
268.93        31.42333
269.38        29.54116
269.84        28.28921
270.30        27.85783
270.75        28.02995
271.21        28.38763
271.66        28.30618
272.12        27.62323
272.57         26.5485
273.03        25.40401
273.48        24.59378
273.94        24.24287
274.39        24.16509
274.85        24.17069
275.31         23.9883
275.76        23.53889
276.22        22.94216
276.67        22.29869
277.13        21.82526
277.58        21.52526
278.04         21.3567
278.49        21.17705
278.95        20.83639
279.40         20.2957
279.86        19.66503
280.31        19.04598
280.77        18.68585
281.22        18.58253
281.68        18.66368
282.13        18.79803
282.59        18.82452
283.04        18.70608
283.50        18.53017
283.95        18.32364
284.41        18.13842
284.86        17.99648
285.32        17.88371
285.77        17.85827
286.22        18.06606
286.68        18.48208
287.13         19.0265
287.59        19.51866
288.04        19.68729
288.50        19.50809
288.95        19.06274
289.41        18.53015
289.86        18.08429
290.32        17.84009
290.77        17.74269
291.22        17.80586
291.68        18.00761
292.13        18.34114
292.59        18.82331
293.04        19.43918
293.50        20.15398
293.95        20.93541
294.40        21.75209
294.86         22.5785
295.31        23.39898
295.77        24.21578
296.22        25.03667
296.68        25.86269
297.13        26.66266
297.58        27.46044
298.04        28.29761
298.49        29.23606
298.95        30.41219
299.40        31.84157
299.85        33.47404
300.31         35.2327
300.76        36.99112
301.21        38.66609
301.67        40.29836
302.12        41.81659
302.58        43.21077
303.03         44.4832
303.48        45.67561
303.94          46.952
304.39         48.5091
304.84        50.39195
305.30        52.53581
305.75        54.73066
306.20         56.6667
306.66         58.2888
307.11        59.64278
307.57        60.92756
308.02        62.33841
308.47        63.97905
308.93        65.78511
309.38        67.63917
309.83        69.40682
310.29         71.0274
310.74        72.50526
311.19        73.90566
311.65         75.3319
312.10        76.79673
312.55        78.27833
313.00        79.64724
313.46        80.69913
313.91        81.38194
314.36         81.7813
314.82        82.12824
315.27         82.7305
315.72        83.69634
316.18        84.93847
316.63        86.27814
317.08        87.36984
317.53        88.10291
317.99        88.55283
318.44        88.90881
318.89        89.48919
319.35        90.34514
319.80        91.40345
320.25          92.394
320.70        92.87698
321.16        92.76774
321.61        92.22611
322.06        91.58837
322.51        91.37675
322.97        91.69885
323.42        92.44335
323.87        93.33951
324.32        93.91615
324.78        94.02322
325.23        93.84395
325.68        93.56232
326.13          93.508
326.59        93.75497
327.04        94.21716
327.49        94.77869
327.94        95.28905
328.39        95.68501
328.85        96.00173
329.30        96.29613
329.75        96.48729
330.20        96.60085
330.66        96.64715
331.11        96.78369
331.56        97.19012
332.01        97.92133
332.46         98.9076
332.92        100.0283
333.37        101.2473
333.82        102.3977
334.27        103.4789
334.72        104.3345
335.17        104.7325
335.63        104.6545
336.08        104.2271
336.53        103.7105
336.98        103.5751
337.43        103.9502
337.88        104.7084
338.34        105.6825
338.79        106.6766
339.24        107.5415
339.69        108.3516
340.14        108.9877
340.59        109.2473
341.05        109.1316
341.50         108.688
341.95        108.1956
342.40        108.0987
342.85        108.4945
343.30        109.2752
343.75        110.2059
344.20        110.8553
344.66         111.098
345.11        111.0332
345.56        110.8256
346.01        110.7283
346.46        110.8152
346.91             111
347.36        111.1919
347.81        111.2636
348.26        111.1906
348.72        111.0473
349.17        110.8919
349.62        110.8591
350.07          110.97
350.52        111.1589
350.97        111.3472
351.42        111.4221
351.87        111.3502
352.32        111.1739
352.77        110.9007
353.22        110.5448
353.67          110.13
354.13        109.6673
354.58        109.1975
355.03        108.8466
355.48        108.6272
355.93        108.5028
356.38        108.3688
356.83        108.0538
357.28        107.5159
357.73        106.8051
358.18         106.005
358.63        105.2521
359.08        104.5914
359.53        103.9919
359.98        103.4106
360.43        102.7759
360.88        102.0699
361.33        101.3215
361.78        100.5783
362.23        99.91473
362.68        99.34916
363.13        98.85483
363.58        98.37386
364.03        97.81505
364.48        97.15373
364.93        96.41523
365.38        95.64529
365.83        94.92165
366.28        94.25941
366.73        93.62041
367.18         92.9812
367.63        92.31062
368.08        91.60831
368.53        90.91471
368.98        90.21072
369.43        89.44719
369.88        88.62737
370.33        87.76609
370.78        86.96071
371.23         86.3792
371.68        86.05145
372.13         85.9166
372.58        85.85617
373.03        85.66679
373.48        85.29185
373.93        84.80505
374.38        84.25783
374.83        83.72623
375.28        83.24058
375.72        82.75301
376.17        82.32514
376.62        82.04039
377.07        81.89011
377.52        81.82951
377.97        81.73544
378.42        81.40783
378.87        80.81967
379.32        80.06861
379.77        79.24254
380.22        78.46041
380.67        77.75956
381.11        77.09764
381.56        76.52898
382.01        76.14939
382.46        75.97275
382.91        75.99878
383.36        76.05539
383.81         75.8617
384.26          75.367
384.71        74.63211
385.15         73.8845
385.60        73.54252
386.05        73.61872
386.50        73.96957
386.95        74.28724
387.40        74.06213
387.85        73.24262
388.29        72.05723
388.74        70.90979
389.19        70.07136
389.64         69.5914
390.09        69.31615
390.54          69.253
390.98        69.41746
391.43        69.75523
391.88        70.23745
392.33        70.59955
392.78        70.43667
393.23        69.74759
393.67        68.69207
394.12        67.69558
394.57        67.09522
395.02        67.00127
395.47        67.38091
395.91        68.06949
396.36        68.55794
396.81        68.70347
397.26        68.65057
397.71        68.44592
398.15        68.03278
398.60        67.53522
399.05        67.08881
399.50        66.70098
399.95        65.95409
400.39        65.28518
400.84        65.04069
401.29        65.26228
401.74         65.4311
402.18        65.45538
402.63        65.40156
403.08        65.35789
403.53        65.48268
403.97        65.77523
404.42        66.09287
404.87         66.2719
405.32        66.08799
405.76        65.50923
406.21        64.74363
406.66        64.01578
407.11        63.53753
407.55        63.47187
408.00        63.94791
408.45        64.75692
408.90        65.35784
409.34        65.45448
409.79         64.8602
410.24        63.89734
410.68        63.38916
411.13        63.45329
411.58        63.64977
412.03        63.89793
412.47        64.23681
412.92        64.55566
413.37        64.87734
413.81        65.09423
414.26        65.07629
414.71         64.8007
415.15            64.3
415.60        63.74701
416.05        63.44731
416.49        63.48114
416.94        63.78392
417.39        64.15902
417.83        64.25093
418.28        63.98654
418.73        63.48088
419.17        62.97035
419.62        62.83359
420.07        63.11548
420.51        63.68756
420.96        64.30863
421.41        64.54871
421.85        64.29007
422.30        63.86031
422.74        63.40924
423.19        62.98704
423.64        62.68178
424.08        63.01019
424.53        63.90199
424.98        63.85439
425.42        64.28549
425.87        64.55209
426.31         65.0248
426.76        64.66018
427.21        63.81817
427.65        64.18634
428.10        65.58274
428.54        66.48052
428.99        66.77048
429.44        66.85593
429.88        66.83136
430.33         67.5174
430.77         68.3575
431.22         67.3811
431.66        65.07932
432.11        63.92643
432.56        64.18159
433.00        64.85335
433.45        65.87118
433.89        67.67997
434.34        68.91454
434.78        70.35595
435.23        66.85915
435.67        64.75964
436.12        66.36805
436.57         67.4131
437.01        68.48521
437.46        68.83077
437.90        68.54458
438.35        68.48636
438.79        68.66618
439.24          68.944
439.68        68.80654
440.13        68.67101
440.57         68.6339
441.02         69.6392
441.46        71.26154
441.91        71.93074
442.35        71.52968
442.80        70.67529
443.24        69.74526
443.69        70.25951
444.13         71.8406
444.58        71.72401
445.02         70.1442
445.47        69.93208
445.91        71.00739
446.36        71.37385
446.80        70.96014
447.24        70.86521
447.69         71.1452
448.13        71.33828
448.58        71.49837
449.02        71.90714
449.47        72.47028
449.91        72.83251
450.36        72.94942
450.80         72.9832
451.25        72.97182
451.69         72.8448
452.13        72.66557
452.58        72.54311
453.02        72.49142
453.47        72.49728
453.91        72.54449
454.36        72.66544
454.80        72.82195
455.24        72.80495
455.69         72.5962
456.13        72.44668
456.58        72.41088
457.02        71.85571
457.46        71.35519
457.91        71.52845
458.35        72.26388
458.79        72.49823
459.24        72.21076
459.68        71.87811
460.13        71.53806
460.57        71.22189
461.01        71.06185
461.46         70.0798
461.90        69.78228
462.34        70.11508
462.79         69.9708
463.23        70.45105
463.68        70.93465
464.12        71.31399
464.56        71.44993
465.01        71.24816
465.45         70.7486
465.89        70.53963
466.34        70.47984
466.78        69.55721
467.22        68.34315
467.67        67.61685
468.11        69.38141
468.55        70.13911
468.99          70.147
469.44        69.77249
469.88        69.23138
470.32         69.1228
470.77        69.39825
471.21        69.33697
471.65        68.91689
472.10        68.75072
472.54          68.859
472.98         68.9362
473.42        68.95003
473.87        69.14433
474.31        69.37769
474.75        69.13693
475.20        68.56749
475.64        68.41212
476.08        68.68727
476.52        68.67184
476.97        68.33079
477.41        68.46529
477.85        68.67638
478.29        68.34999
478.74        69.09399
479.18        68.98612
479.62        67.90568
480.06        68.38189
480.50        68.74162
480.95         69.1549
481.39        69.18611
481.83         68.4055
482.27        68.26044
482.72        68.56664
483.16        67.13253
483.60        67.21793
484.04        68.77708
484.48        69.06449
484.93        68.82622
485.37        70.02068
485.81         70.9762
486.25        69.24789
486.69        93.77995
487.14         75.5239
487.58        47.45684
488.02        58.60489
488.46        66.44841
488.90        65.88791
489.34        67.80297
489.79        66.92445
490.23        68.67389
490.67         69.3771
491.11        68.49548
491.55        68.52353
491.99        69.02058
492.43        68.88956
492.88        68.20984
493.32        68.18224
493.76        68.33509
494.20        68.57855
494.64        68.67365
495.08         68.8689
495.52         69.1514
495.96        69.03297
496.41          68.536
496.85        68.84261
497.29        69.70141
497.73        68.52286
498.17        66.34121
498.61         66.7663
499.05        69.67643
499.49        70.19732
499.93        69.82549
500.37         69.2965
500.82        68.63824
501.26        68.72858
501.70        69.29063
502.14        69.60132
502.58        69.48886
503.02        69.41958
503.46        69.37621
503.90        69.02908
504.34        68.52787
504.78        68.28674
505.22        68.36172
505.66        68.64365
506.10        69.01378
506.54        69.17889
506.98        69.05122
507.42        68.98399
507.86        68.82826
508.30        68.44145
508.74        68.68091
509.18        68.78088
509.62        68.93369
510.06        69.00749
510.50        68.98413
510.94        68.89743
511.38        68.80092
511.82          68.795
512.26        68.89803
512.70        69.06962
513.14        69.26152
513.58        69.40005
514.02        69.45419
514.46        69.44171
514.90        69.38168
515.34        69.28876
515.78        69.16666
516.22        69.07963
516.66        69.03592
517.10        68.87103
517.54        68.59107
517.98        68.84613
518.42        68.74233
518.86        68.92899
519.30        69.12424
519.74        69.38627
520.18        69.65678
520.62         69.8343
521.06        69.90386
521.50        69.88856
521.93        69.81099
522.37        69.71178
522.81        69.61889
523.25        69.52612
523.69         69.4697
524.13        69.50341
524.57        69.63026
525.01        69.83394
525.45        70.05256
525.89        70.18282
526.32        70.18862
526.76        70.09329
527.20        69.94049
527.64        69.82298
528.08        69.78165
528.52        69.73038
528.96        69.61295
529.40         69.5466
529.83        69.55709
530.27        68.89939
530.71         68.9943
531.15        68.85022
531.59        68.89371
532.03        69.04092
532.46        69.28067
532.90        69.56641
533.34        69.84734
533.78        70.12436
534.22        70.33378
534.66        70.39069
535.09         70.2774
535.53        70.04801
535.97        69.76234
536.41        69.54106
536.85        69.42652
537.28        69.39384
537.72        69.41883
538.16        69.46973
538.60        69.52693
539.04        69.54422
539.47        69.51151
539.91        69.59851
540.35        69.72668
540.79        69.60714
541.22        69.29044
541.66        69.14069
542.10        69.17641
542.54         69.1991
542.97        69.20154
543.41        69.28162
543.85        69.41895
544.29         69.6039
544.72        69.73895
545.16        69.70354
545.60        69.47837
546.04        69.09792
546.47        68.72072
546.91        68.65242
547.35        68.93293
547.79        69.39804
548.22        69.83183
548.66        70.08672
549.10        70.00545
549.53        69.29867
549.97        68.31771
550.41        67.88851
550.84        68.13066
551.28         68.6712
551.72        69.28658
552.15        69.69986
552.59        69.79696
553.03        69.69489
553.46        69.44057
553.90        69.29147
554.34        69.28516
554.77        69.28365
555.21         69.2363
555.65        69.29158
556.08        69.47277
556.52        68.90489
556.96        69.21935
557.39        69.12312
557.83        69.12663
558.27        69.16629
558.70         69.2576
559.14        69.42386
559.57        69.62294
560.01        69.80347
560.45        69.92063
560.88        70.01727
561.32        70.05087
561.75        69.79192
562.19        69.36864
562.63        68.97939
563.06        68.75132
563.50        68.85117
563.93        69.16434
564.37        69.44382
564.80        69.53422
565.24        69.31205
565.68        68.89501
566.11        68.73692
566.55        68.92793
566.98        69.10143
567.42        69.21729
567.85        69.54208
568.29        69.98589
568.72        69.83669
569.16        69.37217
569.60        69.62979
570.03        70.11407
570.47          70.127
570.90        69.83967
571.34        68.24215
571.77        69.25792
572.21        68.98849
572.64        68.64579
573.08        67.70945
573.51        64.79708
573.95        67.17773
574.38        71.07085
574.82        69.45589
575.25         69.0282
575.69        66.70367
576.12        65.63288
576.56        65.14436
576.99        65.97749
577.42        69.45701
577.86        69.68754
578.29        68.53993
578.73        72.18222
579.16        66.83394
579.60        61.15954
580.03        63.58643
580.47        67.91727
580.90        69.82283
581.33        68.56964
581.77        67.47049
582.20        74.17762
582.64         73.4854
583.07        62.90435
583.51         61.7733
583.94        60.72514
584.37        63.74019
584.81        66.86684
585.24        70.26616
585.68        71.60867
586.11        70.48286
586.54        65.53239
586.98        63.47115
587.41          64.481
587.85         67.5405
588.28        70.31615
588.71        66.56845
589.15        64.70175
589.58        66.17078
590.01        66.53938
590.45        67.47638
590.88        68.26511
591.31        67.58103
591.75        67.13963
592.18        67.07539
592.61        68.38203
593.05         68.8147
593.48        71.56239
593.91        72.74281
594.35        66.69464
594.78        65.15141
595.21        65.12022
595.65        67.94599
596.08        70.37205
596.51        67.70404
596.94        65.95447
597.38        66.74026
597.81        69.50246
598.24        70.73133
598.68        69.71084
599.11        68.21621
599.54        71.23428
599.97        72.29121
600.41        67.51984
600.84          67.575
601.27        68.80785
601.70        68.01768
602.14        67.91473
602.57        66.86516
603.00        67.10069
603.43         69.1881
603.87        70.49112
604.30        70.07425
604.73        67.87116
605.16        66.72247
605.60        67.69328
606.03         68.7746
606.46        69.57607
606.89         69.3045
607.32        67.47836
607.76        67.26822
608.19         69.5061
608.62        68.87275
609.05        67.60117
609.48        68.08569
609.92        67.88181
610.35        67.30031
610.78        69.57421
611.21         69.9845
611.64        66.92831
612.07        67.59295
612.50        68.06833
612.94        68.48713
613.37        67.76981
613.80        68.42392
614.23        68.66128
614.66        68.62006
615.09        68.76278
615.52        68.79785
615.96        68.83501
616.39        68.89487
616.82        67.80401
617.25        67.71101
617.68        68.18356
618.11        68.81879
618.54        69.28413
618.97        68.82667
619.40        67.80611
619.84        67.74593
620.27          68.622
620.70        69.27216
621.13        69.49306
621.56        69.02066
621.99        68.15321
622.42        68.88561
622.85        70.72144
623.28        70.29618
623.71        69.94139
624.14        69.40978
624.57        69.50734
625.00        69.16449
625.43        69.34399
625.86        68.67403
626.29        68.70467
626.72        69.33809
627.15        68.92523
627.58        69.09828
628.01         69.2197
628.44        69.43044
628.87        69.76223
629.30        69.73257
629.73        70.13386
630.16          70.481
630.59        70.01822
631.02        69.66959
631.45        69.28907
631.88        68.99673
632.31        68.83907
632.74        68.80441
633.17        68.86489
633.60        68.93761
634.03        68.99505
634.46        69.06519
634.89        69.13077
635.32        69.16051
635.75        69.15169
636.18        69.10118
636.61        69.04996
637.04        69.06718
637.47        69.15022
637.89        69.32396
638.32        69.52899
638.75        69.56915
639.18        69.38951
639.61        69.59604
640.04        69.22475
640.47        69.10579
640.90        68.97071
641.33        68.83134
641.76        68.68745
642.18         68.6582
642.61        68.75836
643.04        68.79582
643.47        68.69376
643.90        69.21751
644.33        68.92078
644.76        68.97176
645.18        68.95795
645.61        68.92384
646.04        68.86555
646.47        68.76395
646.90        68.68803
647.33        68.71221
647.75        68.86815
648.18        69.14038
648.61        69.35395
649.04         69.3364
649.47        69.02016
649.89        68.14278
650.32        67.14983
650.75        67.09473
651.18        67.92754
651.61        68.72294
652.03        69.08167
652.46        69.00651
652.89        68.83636
653.32          68.168
653.74        67.37461
654.17         68.8651
654.60        69.45295
655.03        67.16486
655.46        68.36996
655.88        71.95657
656.31        76.11217
656.74        169.1882
657.16        109.2927
657.59        38.74857
658.02         29.5078
658.45        51.74612
658.87         65.6394
659.30        69.03885
659.73        68.29104
660.15        66.24742
660.58        68.14777
661.01        69.80548
661.44        67.77865
661.86        67.10025
662.29        67.02735
662.72        67.88329
663.14        69.38705
663.57        69.39117
664.00        68.15796
664.42        67.90088
664.85         68.6975
665.27          69.144
665.70        69.03881
666.13        68.84446
666.55        68.55215
666.98        68.03924
667.41        67.48371
667.83        67.22717
668.26        67.33909
668.69        67.68383
669.11        68.06274
669.54        68.45858
669.96        68.15549
670.39        67.85105
670.82        67.50019
671.24        67.18631
671.67        67.08916
672.09        67.50129
672.52        68.14802
672.94        68.73693
673.37         68.0744
673.80        67.96439
674.22        68.10223
674.65        68.10239
675.07        67.94249
675.50        67.68435
675.92        67.42678
676.35        67.35506
676.77        67.49977
677.20        67.73248
677.62        67.97694
678.05        68.11584
678.47        68.10242
678.90        67.98379
679.32        67.84112
679.75        67.67647
680.17        67.78659
680.60        67.92073
681.02         68.0561
681.45        68.00972
681.87        67.76421
682.30        67.37216
682.72        66.99427
683.15        66.90565
683.57        67.17043
684.00        67.60038
684.42        68.17213
684.85        68.44256
685.27        68.38813
685.70        68.07454
686.12        67.62789
686.54         67.4248
686.97        67.54577
687.39        67.37711
687.82        67.76266
688.24         67.8362
688.66        67.82307
689.09        67.75171
689.51        67.68344
689.94        67.67953
690.36        67.76081
690.78        67.85147
691.21        67.93171
691.63        68.10213
692.06        68.29624
692.48        68.26382
692.90        68.06666
693.33         68.0187
693.75          68.145
694.17        68.27787
694.60        68.38486
695.02        68.46797
695.44        68.47362
695.87        68.57211
696.29        68.76003
696.71        68.47169
697.14        67.90867
697.56        68.30993
697.98        69.40508
698.41        69.17748
698.83        68.33992
699.25        67.77357
699.68        67.78084
700.10          67.719
700.52        67.61411
700.94        67.82396
701.37        68.25486
701.79        68.64986
702.21        68.90961
702.64        69.10883
703.06        69.19794
703.48        69.09499
703.90         68.8177
704.33        68.38885
704.75        67.93102
705.17        67.73076
705.59        67.85756
706.01        68.12892
706.44        68.39248
706.86        68.98591
707.28        68.92536
707.70        68.97595
708.12         68.9119
708.55         68.8157
708.97         68.6927
709.39        68.52757
709.81         68.3746
710.23        68.31725
710.66        68.37613
711.08        68.56589
711.50        68.77261
711.92         68.8242
712.34        68.68564
712.76        68.38959
713.19        68.08597
713.61        68.04936
714.03        68.31871
714.45         68.8117
714.87        69.30588
715.29        69.44827
715.71        69.16987
716.13        68.58924
716.56        67.94113
716.98        67.63327
717.40        67.76339
717.82        68.20749
718.24        68.77023
718.66        69.11936
719.08        69.15186
719.50        68.96908
719.92        68.68176
720.34        68.48269
720.76         68.4358
721.19         68.3663
721.61        68.45337
722.03        68.51363
722.45        68.58642
722.87        68.68544
723.29        68.80816
723.71        68.93269
724.13        69.04559
724.55        69.14398
724.97        69.22267
725.39        69.24638
725.81        69.20769
726.23        69.18293
726.65        69.21175
727.07        68.99088
727.49        69.11469
727.91         69.1219
728.33        69.16692
728.75        69.20217
729.17        69.21892
729.59        69.20786
730.01         69.2065
730.43        69.28253
730.85        69.44473
731.27        69.69792
731.69         69.9327
732.10        69.95264
732.52        69.72375
732.94        69.34637
733.36         69.0134
733.78        68.89948
734.20        69.05317
734.62        69.72463
735.04        70.64128
735.46        70.63464
735.88        69.93717
736.30        70.18758
736.72        71.33978
737.13        71.86919
737.55        71.49786
737.97        71.25985
738.39        71.25356
738.81        70.56139
739.23        69.58854
739.65        70.35262
740.06         72.3783
740.48        72.61022
740.90        71.14371
741.32        70.56221
741.74        71.09047
742.16        71.39547
742.57        71.50639
742.99        72.16734
743.41        73.17625
743.83        73.77554
744.25        73.83536
744.67        73.55103
745.08        73.13394
745.50         72.9241
745.92        73.03817
746.34        73.36706
746.75        73.76658
747.17        73.98882
747.59        73.98836
748.01        73.84401
748.42         73.7319
748.84        73.91126
749.26        74.43542
749.68        75.18395
750.09        75.94979
750.51        76.41222
750.93        76.49312
751.35        76.20716
751.76        75.73066
752.18        75.55614
752.60        75.68292
753.01        75.65205
753.43        75.49496
753.85        75.64876
754.27        76.13049
754.68        76.73699
755.10        77.30749
755.52        77.72752
755.93        77.92292
756.35        77.87473
756.77        77.72736
757.18        77.63351
757.60        77.64388
758.02        77.99048
758.43        78.37894
758.85         78.0029
759.26        76.50162
759.68        76.43336
760.10        78.16535
760.51         78.4689
760.93        77.38779
761.34        76.51498
761.76        76.14043
762.18        75.76361
762.59        75.55669
763.01        75.94008
763.42        76.86451
763.84        77.61388
764.26        78.06846
764.67        78.35489
765.09          78.403
765.50        78.29201
765.92        77.93624
766.33        76.59892
766.75        74.82591
767.16        74.24745
767.58        75.05212
768.00         76.5358
768.41        78.28612
768.83        79.70882
769.24        80.23251
769.66         79.4059
770.07        77.83189
770.49        76.52209
770.90        75.81511
771.32        76.70592
771.73        78.56778
772.15        78.04533
772.56        75.60379
772.97        75.22202
773.39        76.79424
773.80        77.32151
774.22        76.59577
774.63        76.47332
775.05        76.91875
775.46        77.08585
775.88        76.88911
776.29        76.58414
776.70        76.27842
777.12        76.16595
777.53        76.30626
777.95        76.58279
778.36        76.85573
778.77        76.88318
779.19        76.64979
779.60        76.22961
780.02        75.80878
780.43        75.77013
780.84        76.23747
781.26        76.63872
781.67        76.92706
782.09        78.00555
782.50        79.30429
782.91        78.29182
783.33        75.72571
783.74        74.90096
784.15        75.98498
784.57        77.02312
784.98        77.56479
785.39        77.52247
785.81        76.95876
786.22        76.56684
786.63        76.56979
787.04        76.65742
787.46        76.87746
787.87        77.56445
788.28        78.44781
788.70        78.81802
789.11        78.56168
789.52         77.9263
789.93        77.19769
790.35        76.76141
790.76        76.72459
791.17        77.00771
791.58        77.44351
792.00        77.68087
792.41        77.61062
792.82        77.43164
793.23        77.32787
793.65        77.02424
794.06        76.78115
794.47        77.87574
794.88        79.56904
795.29        79.18063
795.71        76.93497
796.12        74.94792
796.53        73.84943
796.94        73.55843
797.35        74.14937
797.76        75.38991
798.18         76.7116
798.59        77.58681
799.00        77.68456
799.41         76.9034
799.82         75.6841
800.23        74.96958
800.64        74.96395
801.06        75.30033
801.47        75.85265
801.88        76.30478
802.29        76.52901
802.70        76.67731
803.11         76.7352
803.52        76.64247
803.93        76.41495
804.34        76.01292
804.75        75.63216
805.17        75.61673
805.58         76.0513
805.99        76.80102
806.40         77.5184
806.81        77.71676
807.22        77.21461
807.63        75.95123
808.04         74.4466
808.45        73.71822
808.86        73.94535
809.27        74.75788
809.68         75.7736
810.09        76.36037
810.50        76.28967
810.91        75.77635
811.32        75.08468
811.73        74.63844
812.14        74.56341
812.55        74.67039
812.96        74.91998
813.37        75.25039
813.78        75.59282
814.19        76.02402
814.60        76.31288
815.01        76.08684
815.42        75.31986
815.83        74.08338
816.24        72.85809
816.65        72.49719
817.05        73.23869
817.46        74.80095
817.87        76.55621
818.28        77.37552
818.69        76.94666
819.10        75.56124
819.51        73.87852
819.92        73.02203
820.33        73.30364
820.74          74.382
821.14        75.70335
821.55        76.27323
821.96        75.86639
822.37        74.83334
822.78        73.64058
823.19        72.96089
823.60         72.9798
824.00        73.52163
824.41        74.25499
824.82          74.744
825.23         74.7992
825.64        74.58105
826.04        74.25903
826.45        74.06904
826.86        74.07202
827.27        74.15474
827.68        74.24224
828.08        74.25607
828.49        74.11063
828.90        73.91391
829.31        73.67118
829.72        73.37994
830.12        73.09868
830.53        72.80605
830.94        72.65247
831.35        72.83465
831.75        73.40701
832.16        74.25247
832.57        75.17651
832.97        75.75666
833.38        75.79427
833.79        75.40469
834.20        74.83947
834.60        74.48788
835.01        74.47635
835.42        74.68668
835.82        74.94331
836.23        74.86875
836.64        74.41966
837.04        73.75585
837.45        73.09631
837.86        72.78139
838.26        72.90037
838.67        73.29673
839.08        73.84043
839.48        74.28899
839.89        74.51041
840.29        74.59638
840.70        74.52506
841.11        74.25079
841.51          73.807
841.92        73.17116
842.33         72.5537
842.73        72.32059
843.14        72.50701
843.54        73.06125
843.95        73.64924
844.35        73.76218
844.76        73.28062
845.17        72.40197
845.57        71.45677
845.98        70.95195
846.38        71.01208
846.79        71.44792
847.19        72.09725
847.60        72.58391
848.00        72.79681
848.41        72.81821
848.81        72.71481
849.22         72.5088
849.62        72.28128
850.03        72.00771
850.43        71.78837
850.84        71.74956
851.24        71.96658
851.65        72.26083
852.05        72.70038
852.46        73.20094
852.86        73.71362
853.27        74.27909
853.67        74.49954
854.07        73.88522
854.48        72.49217
854.88        70.49981
855.29        68.61623
855.69        67.86613
856.10        68.43864
856.50        70.21725
856.90        72.57379
857.31        74.02863
857.71        74.11342
858.12        73.17532
858.52        71.85593
858.92        71.00594
859.33        70.82204
859.73        71.05836
860.13        71.60104
860.54        72.21298
860.94        72.82576
861.34        73.49741
861.75        74.08774
862.15        74.45162
862.55        74.52227
862.96        74.30109
863.36         73.9642
863.76        73.80769
864.17        73.91847
864.57        74.26884
864.97        74.73537
865.38         75.1106
865.78         75.3833
866.18        75.54026
866.58        75.66806
866.99        75.89977
867.39        76.31625
867.79        76.89713
868.19        77.39043
868.60         77.3359
869.00        76.65151
869.40        75.48909
869.80        74.47734
870.21        74.57955
870.61        76.06728
871.01        78.63204
871.41        81.45296
871.81          83.125
872.22        83.26378
872.62        82.26461
873.02        80.86771
873.42        80.43944
873.82        81.09639
874.22        82.05032
874.63        82.99688
875.03         83.3704
875.43        82.86532
875.83        82.73722
876.23        81.16228
876.63        80.49977
877.03        80.62312
877.44        81.76188
877.84        104.7692
878.24        89.06836
878.64        89.57545
879.04        89.82935
879.44        85.29643
879.84        83.04974
880.24         87.6041
880.64        89.86346
881.04        90.67417
881.44        90.74074
881.84        89.53314
882.24        87.39689
882.65        85.44218
883.05        84.63866
883.45        85.13883
883.85        86.97717
884.25        89.45328
884.65        90.98121
885.05         91.0472
885.45        90.13418
885.85        88.95251
886.25        88.49696
886.65        88.98801
887.05        90.07604
887.45        91.33459
887.85        92.03628
888.25        91.92794
888.65        91.28152
889.04        90.39949
889.44        89.77032
889.84        89.52251
890.24        89.48462
890.64        89.53125
891.04         89.4878
891.44        89.29691
891.84        89.05836
892.24        88.78918
892.64        88.48988
893.04        88.22067
893.44         88.0119
893.83        87.93662
894.23          88.127
894.63        88.56869
895.03         89.1579
895.43        89.86846
895.83        90.62791
896.23        91.34122
896.63         92.0264
897.02        92.37537
897.42        91.92007
897.82        90.68124
898.22        88.88371
898.62        87.18679
899.01        86.54035
899.41        87.12468
899.81         88.5908
900.21        90.37434
900.61        91.54469
901.00        91.81281
901.40        91.46091
901.80        90.78674
902.20        90.26372
902.59        90.05692
902.99        90.00407
903.39        90.02641
903.79        90.00763
904.18        89.91421
904.58        89.87331
904.98        89.92817
905.38        90.12012
905.77        90.42107
906.17        90.75025
906.57        91.06892
906.96        91.38728
907.36        91.61845
907.76        91.77647
908.15        91.74256
908.55        91.21652
908.95        90.23808
909.34        88.89996
909.74        87.58341
910.14        86.69617
910.53        86.37887
910.93        86.57847
911.33         87.1562
911.72         87.8504
912.12        88.43538
912.52        88.89322
912.91        89.27645
913.31        89.67007
913.70        90.14545
914.10        90.67776
914.49        91.01873
914.89        90.58883
915.29        89.34263
915.68        87.55053
916.08        86.06055
916.47        85.60745
916.87        86.22658
917.26        87.66364
917.66        89.22289
918.05        89.79131
918.45        89.07513
918.84        87.47816
919.24        85.69077
919.64        84.69658
920.03        84.78588
920.42        85.66814
920.82        86.95707
921.21        88.12291
921.61         88.7687
922.00        89.05779
922.40        89.02405
922.79        88.76251
923.19        88.41326
923.58        87.81085
923.98        86.88145
924.37         86.0736
924.77        85.78502
925.16        83.05313
925.55        83.79878
925.95        84.18188
926.34        85.96458
926.74        88.54011
927.13        91.19286
927.52        92.44678
927.92        92.05909
928.31        90.51232
928.70         88.3735
929.10        86.63313
929.49        85.57996
929.89        84.94398
930.28        84.86091
930.67        85.56906
931.07        86.88203
931.46         88.8317
931.85        90.60139
932.24        90.93703
932.64        89.64722
933.03        86.92593
933.42        83.58491
933.82        81.45968
934.21        81.08115
934.60        81.94002
934.99         83.1631
935.39        83.89589
935.78        84.00765
936.17         83.3063
936.56        81.56078
936.96        82.47953
937.35        80.82964
937.74        80.89443
938.13        81.09056
938.53         81.7935
938.92         83.0235
939.31         84.8897
939.70        86.88202
940.09        87.46157
940.49        86.18604
940.88        83.68983
941.27        81.16493
941.66        80.02625
942.05        80.42878
942.44        81.90967
942.84        83.86256
943.23        85.27328
943.62        85.67567
944.01        85.37074
944.40        84.61708
944.79        83.79781
945.18        83.04601
945.57        82.17946
945.97        81.21903
946.36        80.33228
946.75        79.73083
947.14        79.49726
947.53        79.53838
947.92        79.66793
948.31        79.84488
948.70        80.12854
949.09         80.4857
949.48        80.82965
949.87        81.08563
950.26        81.16699
950.65        81.22136
951.04        81.52464
951.43        82.10282
951.82        82.88511
952.21        83.45609
952.60        83.16002
952.99        81.91304
953.38        79.95506
953.77        77.94183
954.16        76.82037
954.55         76.7728
954.94        77.58051
955.33        78.58272
955.72        78.64205
956.11        77.50179
956.50        75.51405
956.89        73.49665
957.28        72.95083
957.66        74.37803
958.05        77.02674
958.44        80.07308
958.83        82.31708
959.22        83.36848
959.61        83.52177
960.00        82.96957
960.39        82.02312
960.78        80.87395
961.16        79.47604
961.55        77.92805
961.94        76.49947
962.33        75.36194
962.72        74.57098
963.11        74.20247
963.49        74.26891
963.88        74.69688
964.27        75.50388
964.66        76.37893
965.04        76.68636
965.43        76.15477
965.82        75.03409
966.21        73.86214
966.60        73.34921
966.98        73.63777
967.37        74.50469
967.76        75.63316
968.15         76.3684
968.53        76.46118
968.92         76.0457
969.31        75.46712
969.69        75.16938
970.08        75.25845
970.47        75.64305
970.86        75.97477
971.24        75.66338
971.63        74.56915
972.02        72.83607
972.40        71.14545
972.79        70.69777
973.17        71.92136
973.56        74.44338
973.95        77.30698
974.33        78.65268
974.72        77.87836
975.11        75.61433
975.49        73.03399
975.88        71.70628
976.26        71.87487
976.65        73.16182
977.04        74.76518
977.42        74.78804
977.81        72.64599
978.19        69.21323
978.58        66.21879
978.96        65.33841
979.35        66.80348
979.74        70.17361
980.12        74.80355
980.51        78.11661
980.89        79.20512
981.28        78.65289
981.66        77.19937
982.05        75.80745
982.43        74.79805
982.82         73.8625
983.20        73.38889
983.59        74.05056
983.97        76.02869
984.35        79.35737
984.74        83.12344
985.12        85.32198
985.51        84.70497
985.89        81.50677
986.28         76.9606
986.66        73.19282
987.04        71.23782
987.43        70.75021
987.81        70.73595
988.20        69.80489
988.58        67.42902
988.96        63.20663
989.35        58.12212
989.73        57.06949
990.12        62.92574
990.50        73.01753
990.88        81.22904
991.27        83.16467
991.65        79.55714
992.03        71.86118
992.42         63.0695
992.80        58.82033
993.18        60.77996
993.56        65.99091
993.95        71.89081
994.33        76.21783
994.71        78.35428
995.10        79.46542
995.48        79.35468
995.86         77.3623
996.24        73.43501
996.63        67.13818
997.01        59.86384
997.39        56.13441
997.77        58.01816
998.15        64.72885
998.54         72.4202
998.92        75.53948
999.30        72.48834
999.68        64.67731
1000.06        54.45686
1000.45        47.54588
1000.83        46.18387
1001.21        48.27005
1001.59        52.04304
1001.97        55.79095
1002.35        59.08883
1002.73        63.07951
1003.12        66.56853
1003.50        65.73289
1003.88        59.56855
1004.26        50.28502
1004.64        41.98922
1005.02        38.00415
1005.40        38.46453
1005.78        43.24253
1006.16         53.2912
1006.54        64.38934
1006.92        69.75268
1007.30        70.10164
1007.69        68.34502
1008.07        66.91094
1008.45        65.81606
1008.83        63.72332
1009.21        57.43998
1009.59        35.52691
1009.97       -25.96642
1010.35       -109.7122
1010.73       -92.51841
1011.11       -37.58537
1011.49         1.15859
1011.86        28.31808
1012.24         43.2803
1012.62        49.06724
1013.00        49.17202
1013.38        45.02654
1013.76        38.44596
1014.14        36.72829
1014.52        46.47723
1014.90        69.47119
1015.28        100.7646
1015.66        122.7622
1016.04        123.1777
1016.41        103.1155
1016.79        74.53104
1017.17        52.58089
1017.55        41.60256
1017.93        36.91952
1018.31        35.62886
1018.69        36.36703
1019.06        38.50995
1019.44        41.62994
1019.82        47.51666
1020.20        58.91368
1020.58        79.23046
1020.95        117.8864
1021.33         185.951
1021.71       -425.4692
1022.09        96.55807
1022.46        136.2925
1022.84        156.6369
1023.22         176.605
1023.60        217.1297
1023.97        591.8322
1024.35       -37.72452
1024.73        35.31498
