SpectraSmart Spectrum 2.9.0.0
--------- Device Information -----------
Spectrum Name :  反射率_0
Saving Time :  2024/04/26 02:05:00
Spectro-Module Model Name : SE2030-DUVN
Spectro-Module Serial Number : OS361AC55029948
Wavelength Start : 200
Wavelength End : 1025
Wavelength Unit : Wavelength(nm)
Spectrum Unit : Reflectance(%)
-----------Spectrum Setting ------------
Integration Time : 20ms
Average : 10
Boxcar : 0
Background removal :  enabled
linearity correction :  enabled
SC :  disabled
Intensity correction :  disabled
DWT denoise :  enabled
savitzky-golay :  disabled
FFT :  disabled
Running average :  disabled
Kalman :  disabled
High pass :  disabled
---------------BEGIN--------------------
Wavelength(nm)             Reflectance(%)
200.29               0
200.75        101.7705
201.21        94.54512
201.67        86.29233
202.13        81.59835
202.58        81.05054
203.04        83.87383
203.50        87.76607
203.96        88.87276
204.42        86.65102
204.88        82.70983
205.34        79.59481
205.80        80.13921
206.26        85.71684
206.72        99.59985
207.18        127.3929
207.64        152.1187
208.10        136.6578
208.55        104.0873
209.01        83.20913
209.47        75.51897
209.93        75.29162
210.39        79.47196
210.85         85.1081
211.31        86.28079
211.77        81.19317
212.23        72.34203
212.69        63.88739
213.14        62.15165
213.60        68.04785
214.06        79.39874
214.52        92.28445
214.98        100.8124
215.44        103.2054
215.90        101.3696
216.36         97.1002
216.81        92.75802
217.27        89.70677
217.73        87.30285
218.19        84.98911
218.65          81.923
219.11        77.41962
219.57        70.70574
220.02        62.39102
220.48        57.24506
220.94        57.69288
221.40         62.8124
221.86         66.9215
222.32        63.93895
222.77        55.05882
223.23        44.28062
223.69        35.57951
224.15        33.04225
224.61        36.03517
225.06         42.2757
225.52        48.84693
225.98        52.20807
226.44         51.6005
226.90         48.5171
227.36        44.52414
227.81        41.66154
228.27        40.78624
228.73        41.05107
229.19        42.02769
229.65        43.13159
230.10        44.06333
230.56        44.96494
231.02        45.85514
231.48        46.72638
231.93        47.53227
232.39         48.2176
232.85        48.64071
233.31        48.64644
233.77        48.21255
234.22        47.42065
234.68        46.40855
235.14         45.4257
235.60        44.69435
236.05        44.28863
236.51        44.28723
236.97        44.73648
237.43        45.70647
237.88         47.3595
238.34        49.78298
238.80        52.93946
239.26        56.45476
239.71        60.17431
240.17        63.30766
240.63        65.32384
241.08        66.26508
241.54        66.15768
242.00        65.86073
242.46        66.77289
242.91        70.18739
243.37        78.70382
243.83        104.3823
244.28        182.7416
244.74        262.5336
245.20        207.5866
245.66        162.6748
246.11        150.9037
246.57        158.4125
247.03        192.6424
247.48        297.8153
247.94        252.4049
248.40        141.5799
248.85        106.6819
249.31        96.09656
249.77         94.4996
250.22        97.73255
250.68        105.6454
251.14        117.4498
251.59         124.169
252.05        117.6974
252.51        102.4188
252.96        87.58867
253.42        81.67549
253.88        83.76154
254.33        90.61589
254.79        99.00225
255.25        103.9261
255.70        104.4545
256.16         103.039
256.62        100.9248
257.07        99.13257
257.53        98.05224
257.99        96.58981
258.44        94.36578
258.90        92.19959
259.35        89.47986
259.81        86.73137
260.27        83.43536
260.72        78.96909
261.18        73.99711
261.63        68.59293
262.09        63.77403
262.55        60.03049
263.00        57.30475
263.46        55.47477
263.91        53.93223
264.37        52.33604
264.83        50.45068
265.28        48.27805
265.74        46.17038
266.19        44.41639
266.65        43.26355
267.11        42.52799
267.56        41.89042
268.02        40.95584
268.47         39.5912
268.93        37.92302
269.38         36.1729
269.84        34.95632
270.30        34.42266
270.75        34.40011
271.21        34.51816
271.66         34.2182
272.12        33.36556
272.57        32.14653
273.03        30.89148
273.48        30.00798
273.94        29.62505
274.39         29.5614
274.85        29.60815
275.31        29.45047
275.76        29.00088
276.22        28.38826
276.67        27.74043
277.13        27.33523
277.58        27.15919
278.04        27.13272
278.49        27.05412
278.95        26.71245
279.40        26.05236
279.86         25.2308
280.31         24.3587
280.77        23.71016
281.22        23.31093
281.68        23.10677
282.13        23.01881
282.59        22.96992
283.04        22.91688
283.50        22.91206
283.95        22.90865
284.41        22.85225
284.86        22.72939
285.32        22.55847
285.77        22.41736
286.22        22.49264
286.68        22.78219
287.13        23.19654
287.59        23.57784
288.04         23.6816
288.50        23.49186
288.95        23.08254
289.41        22.61684
289.86        22.23232
290.32        22.03662
290.77        21.97729
291.22        22.07613
291.68        22.32407
292.13        22.71559
292.59        23.26476
293.04        23.94841
293.50        24.72359
293.95        25.55561
294.40        26.41737
294.86        27.29997
295.31        28.20837
295.77        29.15292
296.22        30.14153
296.68        31.15023
297.13        32.10674
297.58        33.02184
298.04        33.93636
298.49        34.95383
298.95        36.28346
299.40        37.94221
299.85        39.85144
300.31        41.84364
300.76        43.64852
301.21        45.16452
301.67        46.49626
302.12        47.67839
302.58        48.86599
303.03        50.09062
303.48        51.34258
303.94        52.71665
304.39        54.29851
304.84        56.10062
305.30        58.08936
305.75        60.07887
306.20         61.8019
306.66         63.2185
307.11        64.35547
307.57        65.39949
308.02        66.52162
308.47        67.82574
308.93        69.26198
309.38        70.73697
309.83        72.15511
310.29        73.46776
310.74        74.66976
311.19        75.80311
311.65        76.93053
312.10        78.05257
312.55        79.15731
313.00        80.13958
313.46        80.84126
313.91        81.22398
314.36        81.35955
314.82        81.45506
315.27        81.77523
315.72         82.4201
316.18        83.32684
316.63        84.33275
317.08        85.12094
317.53        85.59752
317.99        85.82647
318.44        86.01935
318.89        86.52798
319.35         87.3979
319.80         88.5406
320.25        89.61982
320.70        90.08432
321.16        89.82516
321.61        89.03594
322.06        88.12476
322.51        87.72729
322.97        87.98013
323.42        88.73548
323.87         89.6832
324.32        90.28326
324.78        90.36033
325.23        90.12033
325.68        89.75645
326.13        89.60894
326.59        89.76167
327.04         90.1213
327.49        90.58626
327.94        91.03232
328.39        91.40311
328.85        91.73206
329.30        92.06046
329.75        92.28359
330.20        92.41557
330.66        92.46873
331.11        92.60193
331.56        93.00182
332.01        93.72455
332.46        94.69805
332.92        95.79802
333.37        96.97343
333.82        98.06233
334.27        99.07321
334.72        99.87034
335.17        100.2541
335.63        100.2128
336.08        99.85622
336.53        99.42702
336.98        99.36658
337.43        99.79074
337.88        100.5789
338.34        101.5558
338.79        102.5092
339.24        103.2964
339.69        104.0042
340.14        104.5471
340.59        104.7797
341.05        104.7181
341.50        104.3896
341.95        104.0534
342.40        104.1278
342.85        104.6914
343.30        105.6325
343.75        106.6907
344.20        107.3884
344.66        107.5969
345.11        107.4468
345.56        107.1238
346.01        106.9154
346.46        106.9144
346.91        107.0196
347.36        107.1989
347.81        107.4127
348.26        107.6367
348.72        107.9226
349.17        108.1846
349.62        108.3172
350.07        108.3012
350.52        108.1513
350.97        107.9765
351.42        107.9585
351.87        108.1218
352.32        108.4015
352.77        108.6585
353.22        108.6723
353.67        108.3952
354.13        107.9184
354.58        107.3332
355.03        106.8448
355.48         106.505
355.93        106.2455
356.38        106.0011
356.83        105.6697
357.28         105.216
357.73        104.6845
358.18        104.0844
358.63        103.4196
359.08        102.7164
359.53        101.9921
359.98         101.285
360.43         100.658
360.88        100.1155
361.33        99.61633
361.78        99.16249
362.23        98.75578
362.68        98.37705
363.13        98.03265
363.58        97.60483
364.03        96.90651
364.48        95.92745
364.93        94.73526
365.38        93.54627
365.83        92.71599
366.28        92.31371
366.73        92.21254
367.18        92.21405
367.63        91.98489
368.08        91.43554
368.53        90.70337
368.98        89.85177
369.43        88.96801
369.88        88.10703
370.33        87.22334
370.78        86.45358
371.23        86.03854
371.68        86.00497
372.13        86.28828
372.58        86.62897
373.03        86.57311
373.48        86.01664
373.93        85.10831
374.38        84.09351
374.83        83.35223
375.28         82.9819
375.72        82.84318
376.17        82.84072
376.62        82.79708
377.07        82.62973
377.52        82.37968
377.97        82.03084
378.42        81.55232
378.87        80.96439
379.32        80.29788
379.77        79.58312
380.22         78.8628
380.67        78.15364
381.11        77.44961
381.56        76.82256
382.01        76.38937
382.46         76.1763
382.91         76.1722
383.36        76.21577
383.81        76.04726
384.26        75.61506
384.71        74.97314
385.15        74.32379
385.60        74.04694
386.05        74.14952
386.50        74.50167
386.95        74.81257
387.40        74.60275
387.85         73.8261
388.29        72.69241
388.74        71.60455
389.19        70.83395
389.64          70.428
390.09        70.23749
390.54         70.2433
390.98        70.41296
391.43        70.68376
391.88        71.04874
392.33         71.3071
392.78        71.08506
393.23         70.3834
393.67        69.46665
394.12        68.72163
394.57        67.91773
395.02        67.90534
395.47        68.28127
395.91        69.09408
396.36        69.66131
396.81        69.82829
397.26         69.8082
397.71        69.65866
398.15        69.28207
398.60        68.79655
399.05         68.4521
399.50        68.17863
399.95        67.23724
400.39        66.17816
400.84        65.82582
401.29        66.23642
401.74        66.55613
402.18        66.62597
402.63        66.55743
403.08        66.46043
403.53        66.59741
403.97        66.97092
404.42        67.32671
404.87        67.50379
405.32        67.34857
405.76         66.8265
406.21        66.12908
406.66         65.4488
407.11        64.92908
407.55         64.7411
408.00        65.08883
408.45        65.79128
408.90        66.30634
409.34        66.35336
409.79        65.75748
410.24         64.8234
410.68        64.33997
411.13        64.41779
411.58        64.62677
412.03        64.89124
412.47        65.26181
412.92        65.62876
413.37        66.00103
413.81        66.27679
414.26        66.34225
414.71        66.16905
415.15        65.77731
415.60        65.30888
416.05          65.021
416.49        64.98439
416.94        65.15474
417.39        65.36732
417.83        65.31416
418.28        64.95705
418.73          64.427
419.17        63.94889
419.62        63.87888
420.07        64.24117
420.51        64.88674
420.96        65.62444
421.41        66.04183
421.85        65.98833
422.30        65.93726
422.74        65.83664
423.19        65.12953
423.64         64.1205
424.08        64.19849
424.53        65.23484
424.98        65.74869
425.42        65.61324
425.87        65.82198
426.31         66.3679
426.76         66.4927
427.21        66.34983
427.65        66.73359
428.10        67.56255
428.54        68.29053
428.99        68.86319
429.44        69.14365
429.88        69.13381
430.33        69.68987
430.77        70.29174
431.22        69.14935
431.66        66.78765
432.11        65.56781
432.56        65.76876
433.00        66.49409
433.45         67.6048
433.89        69.47751
434.34        70.72879
434.78        71.77699
435.23        68.00314
435.67        66.14315
436.12         69.0038
436.57        70.25562
437.01        70.61625
437.46        70.97361
437.90        71.56072
438.35        70.64568
438.79         71.5005
439.24        71.33168
439.68        71.14049
440.13        70.80457
440.57        70.65796
441.02        71.48392
441.46        72.88361
441.91        73.83359
442.35        73.99033
442.80        72.98946
443.24         71.4155
443.69        72.04541
444.13        74.42126
444.58        74.61646
445.02        72.83019
445.47        72.48626
445.91        73.70795
446.36        74.09655
446.80        73.64462
447.24        73.49329
447.69        73.71535
448.13        73.96375
448.58         74.2427
449.02        74.58394
449.47        74.93433
449.91        75.22742
450.36        75.43587
450.80        75.55067
451.25        75.56239
451.69        75.42887
452.13        75.18893
452.58         74.8816
453.02        74.59805
453.47        74.52242
453.91        74.66219
454.36        74.95446
454.80         75.3145
455.24        75.48618
455.69        75.41094
456.13         75.3577
456.58        75.35966
457.02        74.82356
457.46        74.03055
457.91        74.29612
458.35        74.94144
458.79        75.25377
459.24        75.04005
459.68        74.88729
460.13        74.80442
460.57        74.56902
461.01        74.27631
461.46        73.76202
461.90        73.02715
462.34        73.53732
462.79        73.05138
463.23        73.27871
463.68        73.51107
464.12        74.07015
464.56        74.69614
465.01        74.76053
465.45        74.21883
465.89        73.78867
466.34        73.48191
466.78        72.52409
467.22        71.43326
467.67        71.11146
468.11        72.68578
468.55        73.39938
468.99        73.33081
469.44        72.99341
469.88        72.61982
470.32        72.75839
470.77        73.28667
471.21        73.34126
471.65        72.86971
472.10        72.55244
472.54        72.47217
472.98         72.4076
473.42        72.36111
473.87        72.56542
474.31        72.86404
474.75        72.69774
475.20         72.2114
475.64        72.19153
476.08        72.62654
476.52        72.69688
476.97        72.36106
477.41        72.34393
477.85        72.71809
478.29        72.00059
478.74        72.86828
479.18          72.653
479.62        71.87453
480.06        72.40397
480.50        72.57434
480.95          72.965
481.39        73.18797
481.83        71.67971
482.27        72.09441
482.72        72.02327
483.16        70.60586
483.60        70.85084
484.04         72.4476
484.48         73.0357
484.93        73.09632
485.37         74.1618
485.81        74.71668
486.25        73.09468
486.69        98.99595
487.14         80.4147
487.58        50.19669
488.02        61.96413
488.46         70.3188
488.90        69.91978
489.34        71.71014
489.79        70.55036
490.23        72.89507
490.67        73.70856
491.11        72.67045
491.55          72.634
491.99         73.1591
492.43        72.99387
492.88        72.22198
493.32        72.14903
493.76        72.28783
494.20         72.5624
494.64        72.72056
495.08        73.01863
495.52        73.41454
495.96        73.34093
496.41        72.82681
496.85        73.14705
497.29        74.03737
497.73        72.82566
498.17        70.57755
498.61        70.89172
499.05        73.72071
499.49        74.34487
499.93        74.28951
500.37        73.94962
500.82         73.3188
501.26        73.31707
501.70        73.64722
502.14         74.3989
502.58         74.0486
503.02        73.95731
503.46        73.80922
503.90        73.32692
504.34        72.72844
504.78        72.46213
505.22        72.61402
505.66         73.0444
506.10        73.55677
506.54        73.82051
506.98        73.73912
507.42        73.41734
507.86        73.03292
508.30        72.85474
508.74        72.94989
509.18        73.23121
509.62         73.5574
510.06        73.70552
510.50        73.62077
510.94        73.38568
511.38        73.12845
511.82        73.04089
512.26         73.1683
512.70        73.43898
513.14        73.74773
513.58        73.92881
514.02        73.92867
514.46        73.79906
514.90        73.60966
515.34        73.45305
515.78        73.35421
516.22         73.3419
516.66        73.38809
517.10        73.29654
517.54        73.05471
517.98        73.23717
518.42        73.10007
518.86        73.23532
519.30        73.40966
519.74        73.66264
520.18        73.92255
520.62        74.06988
521.06        74.08691
521.50        74.00665
521.93        73.88046
522.37        73.79135
522.81        73.77418
523.25        73.80724
523.69        73.88512
524.13        73.99947
524.57        74.13867
525.01        74.30048
525.45        74.46108
525.89        74.58157
526.32        74.63903
526.76        74.63416
527.20        74.56889
527.64         74.4757
528.08        74.38784
528.52        74.23175
528.96         73.9882
529.40        73.87615
529.83        73.92251
530.27        73.23571
530.71        73.33525
531.15        73.24661
531.59        73.41601
532.03        73.71004
532.46        74.06805
532.90        74.37639
533.34        74.57423
533.78        74.69384
534.22        74.73313
534.66        74.70312
535.09        74.60617
535.53        74.45979
535.97         74.2994
536.41        74.20738
536.85        74.20248
537.28        74.27167
537.72        74.35184
538.16         74.3488
538.60        74.24585
539.04         74.0228
539.47        73.74699
539.91        73.71712
540.35        73.87363
540.79        73.87318
541.22        73.71915
541.66        73.71011
542.10        73.83321
542.54         73.9147
542.97        73.94444
543.41        73.98888
543.85        74.05314
544.29        74.20523
544.72         74.3485
545.16        74.30442
545.60        74.05381
546.04        73.66879
546.47        73.31855
546.91        73.29903
547.35        73.64317
547.79        74.19978
548.22        74.70969
548.66        74.93011
549.10        74.71301
549.53        73.85951
549.97        72.76603
550.41        72.27144
550.84        72.51162
551.28        73.12289
551.72        73.85283
552.15        74.36132
552.59        74.51575
553.03        74.42558
553.46        74.18677
553.90        74.01977
554.34         73.9817
554.77        73.92283
555.21        73.81853
555.65        73.87029
556.08        74.10818
556.52        73.60346
556.96         74.0513
557.39        73.95209
557.83        73.85962
558.27        73.83249
558.70        73.90686
559.14        74.03764
559.57        74.18748
560.01        74.38869
560.45        74.58221
560.88         74.6744
561.32        74.65295
561.75        74.49523
562.19        74.28438
562.63        73.93358
563.06        73.57018
563.50        73.63283
563.93          74.017
564.37        74.20551
564.80        74.13145
565.24        74.11649
565.68         74.1652
566.11        74.16936
566.55        74.18163
566.98        74.18626
567.42        74.19377
567.85        74.30599
568.29        74.55137
568.72        74.52414
569.16        74.40101
569.60        74.97708
570.03         75.2216
570.47        75.19601
570.90        75.01003
571.34        73.01916
571.77        73.82419
572.21        74.21589
572.64        73.31512
573.08        72.93956
573.51        69.62135
573.95        72.35586
574.38        76.94389
574.82        74.57822
575.25        74.02446
575.69        71.77892
576.12        70.56052
576.56        69.85208
576.99        71.49219
577.42        74.91033
577.86        74.65632
578.29        73.56305
578.73         77.9323
579.16        71.72034
579.60        65.61425
580.03        68.59563
580.47        73.16554
580.90        74.67899
581.33        73.25298
581.77        72.59584
582.20        79.46376
582.64        79.19312
583.07        67.68588
583.51        66.53094
583.94        65.40229
584.37        68.47317
584.81        71.68549
585.24        75.44644
585.68        77.19977
586.11        76.19855
586.54        70.84697
586.98        68.34149
587.41        69.13682
587.85        72.59058
588.28        75.35792
588.71        72.03792
589.15        69.36945
589.58        71.14859
590.01        71.59283
590.45        72.57133
590.88        73.52905
591.31        72.74323
591.75        72.20702
592.18        72.27554
592.61         73.9902
593.05        74.09243
593.48        77.33141
593.91        78.10369
594.35        71.71286
594.78        70.31181
595.21        69.93429
595.65        73.17714
596.08          76.108
596.51        73.20545
596.94        71.06217
597.38        71.73507
597.81        74.63191
598.24        76.40408
598.68        74.85202
599.11        73.50626
599.54        76.24078
599.97        77.66864
600.41        72.64533
600.84        72.83922
601.27        74.17562
601.70        73.29559
602.14        73.17851
602.57        72.14994
603.00        72.66863
603.43         74.5937
603.87        75.82021
604.30        75.61642
604.73        73.65172
605.16        71.93447
605.60        72.64318
606.03        73.79929
606.46        75.28156
606.89        74.94151
607.32         72.8896
607.76        72.76541
608.19        74.94221
608.62        74.53783
609.05        72.84349
609.48        73.31143
609.92        73.03082
610.35        72.73933
610.78        74.98337
611.21        75.90298
611.64         72.4555
612.07        73.25846
612.50        73.75227
612.94        74.23058
613.37        73.56748
613.80        73.65383
614.23        74.37209
614.66        73.78185
615.09        74.34602
615.52        74.37471
615.96        74.39239
616.39        74.45831
616.82        73.38836
617.25        73.03866
617.68        74.26935
618.11        74.85297
618.54        74.92403
618.97        74.39705
619.40        73.66516
619.84        73.67777
620.27        74.60254
620.70         75.1692
621.13        75.27155
621.56        74.66894
621.99        73.68903
622.42        74.39491
622.85        76.30221
623.28        75.83125
623.71        75.56281
624.14        75.24203
624.57        75.22833
625.00        74.63132
625.43        75.09706
625.86        74.51044
626.29        74.80106
626.72        75.07707
627.15        74.94682
627.58        75.04099
628.01         75.1036
628.44        75.25867
628.87        75.53541
629.30         75.5952
629.73        75.92515
630.16        76.24271
630.59        75.80913
631.02        75.42181
631.45        74.95414
631.88        74.62885
632.31        74.49426
632.74        74.49728
633.17        74.59701
633.60        74.70848
634.03          74.797
634.46         74.8868
634.89        74.96844
635.32        75.02454
635.75        75.05231
636.18        75.04305
636.61        75.02016
637.04        75.02076
637.47        75.03375
637.89        75.12285
638.32        75.25858
638.75        75.22353
639.18        74.95718
639.61        75.35676
640.04        74.91409
640.47        74.87068
640.90        74.78941
641.33        74.70346
641.76        74.57908
642.18        74.49941
642.61        74.48412
643.04        74.33792
643.47        74.04832
643.90        74.55167
644.33        74.31332
644.76         74.5585
645.18        74.77213
645.61        74.88373
646.04        74.84871
646.47        74.67128
646.90        74.47424
647.33         74.4111
647.75        74.54512
648.18        74.86818
648.61        75.14339
649.04        75.08091
649.47        74.62617
649.89        73.56619
650.32        72.44803
650.75         72.5454
651.18        73.73969
651.61        74.77061
652.03        75.19568
652.46        75.08498
652.89        74.84244
653.32        74.29354
653.74        73.84773
654.17        75.12498
654.60        76.06673
655.03        73.48446
655.46        74.14449
655.88        78.16557
656.31        83.16483
656.74        185.1149
657.16        119.7009
657.59        42.24383
658.02        32.12537
658.45        56.08666
658.87        72.14447
659.30        75.31724
659.73        73.98799
660.15        71.94453
660.58        74.59615
661.01        76.51814
661.44         73.7887
661.86        72.87903
662.29         72.9819
662.72        74.03727
663.14        75.69839
663.57        75.68342
664.00        74.27018
664.42        73.92142
664.85        74.72308
665.27         75.0702
665.70        74.79587
666.13        74.54482
666.55        74.32198
666.98        73.93455
667.41        73.52527
667.83         73.3897
668.26        73.58221
668.69        73.98629
669.11        74.38396
669.54        74.78875
669.96         74.4374
670.39        73.98539
670.82        73.45533
671.24        73.27299
671.67        73.53786
672.09        74.05054
672.52        74.51558
672.94        75.04092
673.37        74.33546
673.80        74.11031
674.22        74.06153
674.65        73.95142
675.07        73.77894
675.50        73.56277
675.92        73.37875
676.35        73.37805
676.77        73.57507
677.20        73.84525
677.62         74.1216
678.05        74.29276
678.47        74.30904
678.90        74.23522
679.32         74.1402
679.75         73.9373
680.17        73.92973
680.60        74.09253
681.02        74.05607
681.45        73.96477
681.87         73.7017
682.30        73.45647
682.72        73.30305
683.15        73.13856
683.57        73.09393
684.00        73.49239
684.42        74.28781
684.85        74.64224
685.27        74.49921
685.70        74.21193
686.12        73.89857
686.54        73.68602
686.97        73.62087
687.39        73.67204
687.82        73.76733
688.24        73.84786
688.66         73.8701
689.09        73.86734
689.51        73.86533
689.94        73.89667
690.36        73.98413
690.78        74.02682
691.21        74.03415
691.63        74.22343
692.06        74.50671
692.48        74.46047
692.90        74.17265
693.33        74.13794
693.75        74.38301
694.17        74.63775
694.60        74.83799
695.02         74.9568
695.44        74.92292
695.87         74.9853
696.29        75.14923
696.71        74.69215
697.14        73.90646
697.56        74.40602
697.98        75.86038
698.41         75.7748
698.83        74.90284
699.25        74.36592
699.68        74.48281
700.10        74.45597
700.52         74.3065
700.94        74.45107
701.37        74.81535
701.79        75.16755
702.21        75.41679
702.64        75.63181
703.06        75.74406
703.48        75.63951
703.90        75.33002
704.33        74.85146
704.75        74.34089
705.17        74.11337
705.59        74.24809
706.01        74.54305
706.44        74.84101
706.86        75.52834
707.28        75.52792
707.70        75.66772
708.12        75.68477
708.55         75.6474
708.97        75.55621
709.39        75.40107
709.81        75.24296
710.23        75.17802
710.66        75.23063
711.08        75.41084
711.50        75.60549
711.92        75.64497
712.34        75.49359
712.76        75.18804
713.19        74.86521
713.61        74.77901
714.03        74.96918
714.45        75.36589
714.87        75.77556
715.29        75.89072
715.71        75.65017
716.13        75.15289
716.56        74.60942
716.98        74.39133
717.40        74.57845
717.82        75.05453
718.24        75.61657
718.66        75.92085
719.08        75.87285
719.50        75.58611
719.92        75.19843
720.34        74.94763
720.76        74.90833
721.19        74.87791
721.61        75.05344
722.03        75.23038
722.45        75.43879
722.87        75.68961
723.29        75.93095
723.71         76.0624
724.13        76.06134
724.55        75.94783
724.97        75.78439
725.39        75.68642
725.81         75.6867
726.23        75.75436
726.65        75.85511
727.07         75.9287
727.49        75.95934
727.91        75.97656
728.33         75.9846
728.75        75.98738
729.17        75.98745
729.59        75.97025
730.01        75.96922
730.43        76.03194
730.85        76.16886
731.27        76.39701
731.69        76.62858
732.10        76.69685
732.52        76.56983
732.94        76.33282
733.36         76.1381
733.78        76.12239
734.20        76.32256
734.62        76.95377
735.04        77.73756
735.46        77.81445
735.88        76.86136
736.30        77.10513
736.72        78.33086
737.13        78.83481
737.55         78.3723
737.97        78.34533
738.39        78.77311
738.81        78.19728
739.23        77.02992
739.65        77.77397
740.06        79.93544
740.48        80.05057
740.90        78.25179
741.32        77.43485
741.74        77.87256
742.16        78.13159
742.57        78.25866
742.99        79.07295
743.41         80.3068
743.83        81.04581
744.25        81.12631
744.67        80.77628
745.08        80.28042
745.50        80.10862
745.92        80.39777
746.34        80.97254
746.75        81.61253
747.17        81.95503
747.59         81.9341
748.01         81.6815
748.42        81.39481
748.84        81.42608
749.26        81.87788
749.68        82.41854
750.09        82.93551
750.51        83.73586
750.93        84.52192
751.35        84.19572
751.76        83.07009
752.18        82.75332
752.60        83.26649
753.01        83.54694
753.43         83.5321
753.85        83.67021
754.27        83.92311
754.68        84.73987
755.10         84.8568
755.52        85.30128
755.93        85.66203
756.35        85.87444
756.77         86.0168
757.18        86.10348
757.60        86.16108
758.02         86.6095
758.43         87.0807
758.85        86.36952
759.26         84.5849
759.68        84.26164
760.10        85.13334
760.51        86.48189
760.93        86.24789
761.34        85.27681
761.76        84.59283
762.18        83.86984
762.59        83.72476
763.01        84.17564
763.42        85.14259
763.84        85.83137
764.26        86.12041
764.67        86.24766
765.09        86.20714
765.50        86.18869
765.92        86.05289
766.33        84.77385
766.75        82.92357
767.16        82.42709
767.58        83.44692
768.00        85.08094
768.41        86.91441
768.83        88.27612
769.24        88.63837
769.66        88.00756
770.07        86.81902
770.49        85.13823
770.90        83.51771
771.32        84.29712
771.73        86.76941
772.15        86.23529
772.56        83.19048
772.97        82.59663
773.39         84.3642
773.80        84.99802
774.22        84.26487
774.63        84.25528
775.05        84.91105
775.46        85.26775
775.88        85.20957
776.29        84.99999
776.70        84.74409
777.12        84.65133
777.53        84.78754
777.95        85.02568
778.36        85.22359
778.77        85.13667
779.19        84.76661
779.60        84.20031
780.02         83.6608
780.43        83.59618
780.84        84.14452
781.26        84.64247
781.67        85.01815
782.09        86.28553
782.50        87.80421
782.91        86.62048
783.33        83.76476
783.74        82.80159
784.15        83.99549
784.57         84.9692
784.98        85.28275
785.39        85.40588
785.81        85.21181
786.22        84.42401
786.63        83.51659
787.04        83.35234
787.46        84.03799
787.87        85.29252
788.28        86.66269
788.70        87.37688
789.11        87.23468
789.52        86.50971
789.93         85.5731
790.35        84.93701
790.76        84.76184
791.17        84.94949
791.58        85.33668
792.00        85.58263
792.41        85.57871
792.82         85.5031
793.23        85.54824
793.65        85.46189
794.06        85.46813
794.47        86.79808
794.88        88.63093
795.29        88.17283
795.71        85.68412
796.12        83.37838
796.53        81.99503
796.94        81.65765
797.35        82.43137
797.76         83.8203
798.18        85.17749
798.59        86.08477
799.00        86.17786
799.41        85.23699
799.82        83.76505
800.23        82.88631
800.64        82.83567
801.06         83.1832
801.47        83.78484
801.88         84.2895
802.29        84.54974
802.70        84.73394
803.11        84.81664
803.52        84.71481
803.93        84.44843
804.34        83.97923
804.75        83.52813
805.17        83.52194
805.58         84.0698
805.99        84.89839
806.40         85.6421
806.81        86.07832
807.22        85.87282
807.63        84.31615
808.04        82.11853
808.45        81.16089
808.86        81.69424
809.27          82.907
809.68        84.28775
810.09          85.159
810.50        85.21753
810.91        84.68977
811.32        83.89896
811.73        83.36878
812.14        83.25993
812.55        83.34982
812.96        83.59432
813.37        83.92601
813.78         84.2682
814.19        84.71109
814.60        84.99971
815.01        84.71365
815.42        83.81934
815.83        82.39981
816.24        80.96842
816.65         80.4387
817.05        81.07777
817.46         82.5946
817.87        84.34242
818.28        85.15139
818.69        84.69572
819.10        83.27006
819.51        81.57089
819.92        80.78288
820.33        81.21965
820.74         82.5129
821.14         84.0195
821.55        84.59858
821.96        84.00407
822.37        82.64135
822.78        81.09036
823.19        80.19452
823.60        80.18072
824.00        80.83131
824.41        81.74076
824.82        82.34801
825.23         82.4137
825.64         82.1487
826.04         81.7439
826.45        81.46605
826.86        81.39571
827.27        81.40372
827.68        81.45523
828.08        81.55331
828.49        81.61328
828.90        81.71981
829.31        81.80376
829.72         81.7174
830.12        81.46984
830.53        81.08617
830.94        80.76392
831.35        80.76803
831.75        81.19024
832.16        81.89705
832.57        82.74285
832.97        83.39391
833.38        83.65204
833.79        83.59635
834.20        83.39529
834.60        83.31292
835.01        83.44209
835.42        83.69512
835.82        83.90166
836.23        83.69714
836.64        83.06482
837.04        82.16074
837.45        81.27504
837.86        80.86102
838.26        81.02789
838.67        81.59161
839.08        82.32626
839.48        82.81039
839.89        82.86053
840.29        82.62864
840.70        82.19796
841.11        81.67365
841.51        81.13739
841.92        80.53745
842.33        80.02843
842.73         79.8857
843.14        80.11491
843.54        80.68306
843.95        81.32085
844.35        81.63142
844.76        81.48885
845.17        81.01839
845.57        80.41154
845.98        79.98159
846.38        79.82163
846.79        79.81983
847.19        79.92966
847.60         79.9753
848.00        79.94651
848.41        79.88292
848.81        79.85364
849.22        79.87589
849.62        80.01024
850.03         80.2364
850.43        80.56188
850.84        80.90709
851.24        81.27686
851.65        81.48292
852.05         81.7076
852.46        82.07244
852.86        82.59238
853.27        83.27577
853.67        83.58826
854.07        82.83459
854.48        81.05947
854.88        78.52306
855.29        76.14812
855.69        75.26822
856.10        76.13478
856.50        78.57776
856.90        81.72932
857.31        83.57412
857.71        83.46086
858.12         81.9059
858.52        79.86679
858.92        78.62227
859.33        78.45619
859.73        79.02044
860.13        80.06315
860.54        81.05157
860.94        81.80172
861.34        82.44043
861.75        82.94599
862.15        83.36339
862.55        83.67323
862.96         83.7973
863.36        83.78535
863.76        83.72189
864.17         83.6486
864.57        83.61778
864.97        83.66343
865.38        83.81063
865.78        84.09672
866.18        84.43665
866.58        84.79484
866.99        85.08569
867.39        85.34436
867.79        85.63715
868.19        85.79179
868.60         85.4915
869.00        84.73326
869.40        83.59874
869.80         82.7601
870.21        83.25294
870.61        85.32397
871.01        88.63288
871.41        92.13115
871.81        94.02946
872.22        93.85622
872.62        92.14497
873.02        89.95508
873.42        89.03963
873.82        89.71309
874.22        91.32219
874.63        93.28905
875.03        94.33461
875.43        93.85744
875.83        92.81088
876.23        91.20431
876.63        90.83448
877.03        91.96522
877.44        94.83799
877.84         100.135
878.24        102.2392
878.64        101.4503
879.04        99.05663
879.44         96.0451
879.84        94.29903
880.24        95.97099
880.64        97.49245
881.04        99.09109
881.44        100.2281
881.84        100.1017
882.24        99.08227
882.65        97.98928
883.05        97.78803
883.45        98.66897
883.85        100.3824
884.25        102.2903
884.65        103.2245
885.05        102.8366
885.45        101.5943
885.85        100.1667
886.25        99.44133
886.65        99.61893
887.05        100.3903
887.45        101.4871
887.85        102.4245
888.25        102.9699
888.65        103.2936
889.04        103.3437
889.44        103.0817
889.84        102.5466
890.24        101.7285
890.64        100.9095
891.04        100.5494
891.44        100.7175
891.84        101.3059
892.24        101.9931
892.64         102.167
893.04         101.719
893.44        100.9407
893.83        100.1297
894.23        99.72562
894.63        99.81379
895.03         100.184
895.43        100.8831
895.83        101.9835
896.23        103.3706
896.63        105.0025
897.02        106.3122
897.42        106.3759
897.82        105.1015
898.22        102.8425
898.62        100.4471
899.01        99.16344
899.41        99.29394
899.81        100.4123
900.21        101.9921
900.61        103.1609
901.00         103.604
901.40        103.5867
901.80        103.2683
902.20        102.8939
902.59        102.5718
902.99         102.181
903.39        101.7284
903.79        101.2676
904.18        100.8451
904.58        100.5632
904.98        100.4714
905.38        100.6037
905.77        100.9247
906.17          101.38
906.57        101.9081
906.96        102.4788
907.36        102.9909
907.76         103.436
908.15        103.6948
908.55        103.4749
908.95        102.7922
909.34        101.7013
909.74        100.5356
910.14        99.64053
910.53        99.15801
910.93        99.07726
911.33        99.28193
911.72        99.55679
912.12        99.75261
912.52        99.87218
912.91        100.0559
913.31        100.5228
913.70        101.3459
914.10        102.4684
914.49        103.5183
914.89         103.464
915.29        102.0845
915.68        99.77984
916.08        97.66234
916.47         96.7174
916.87        97.06284
917.26        98.38665
917.66        99.96144
918.05        100.6286
918.45        100.0718
918.84        98.69045
919.24        97.23697
919.64         96.7913
920.03        97.63251
920.42        99.40914
920.82        101.4714
921.21        102.8564
921.61        103.0802
922.00        102.4871
922.40        101.4684
922.79        100.5246
923.19        99.85105
923.58        99.33123
923.98        98.83548
924.37        98.12943
924.77        97.37502
925.16        96.07765
925.55        95.91895
925.95        96.53924
926.34        98.41363
926.74        100.9902
927.13        103.5554
927.52        104.7534
927.92         104.388
928.31         102.877
928.70        100.7341
929.10        98.84064
929.49        97.48309
929.89        96.45722
930.28        95.97997
930.67        96.41595
931.07        97.61902
931.46        99.56238
931.85        101.4463
932.24        102.0454
932.64        101.1406
933.03        98.95632
933.42        96.09612
933.82        94.00407
934.21        93.15587
934.60        93.21677
934.99        93.73745
935.39        94.19986
935.78        94.52038
936.17        94.80894
936.56        94.88872
936.96        95.28314
937.35        94.45608
937.74        93.68896
938.13        93.13081
938.53        93.44659
938.92        94.63692
939.31         96.6421
939.70        98.81142
940.09          99.408
940.49        97.92782
940.88        95.18479
941.27           92.39
941.66        90.92908
942.05          90.993
942.44        92.10262
942.84        93.89497
943.23        95.82145
943.62        97.44188
944.01        98.83505
944.40        99.80672
944.79         100.084
945.18        99.60684
945.57        98.30442
945.97        96.27726
946.36        94.19291
946.75        92.64423
947.14        91.73187
947.53        91.42253
947.92        91.52932
948.31        91.94748
948.70          92.742
949.09        93.80762
949.48        94.79299
949.87        95.44688
950.26        95.69619
950.65        95.62975
951.04        95.48998
951.43        95.34863
951.82         95.1535
952.21        94.74911
952.60        93.93121
952.99        92.70895
953.38        91.17967
953.77        89.74295
954.16        88.92736
954.55        88.82935
954.94        89.41048
955.33        90.08044
955.72        89.82719
956.11        88.46222
956.50        86.22242
956.89        84.16008
957.28        84.20464
957.66        86.85297
958.05        91.17896
958.44        95.69965
958.83        98.23074
959.22        98.24323
959.61        96.35133
960.00        93.46697
960.39        91.10658
960.78        89.81145
961.16        89.20783
961.55        88.92474
961.94        88.36045
962.33        87.38446
962.72        86.37962
963.11        85.61921
963.49        85.36666
963.88        85.64143
964.27        86.30012
964.66        87.15194
965.04         87.8424
965.43        88.07758
965.82        87.99765
966.21         87.7411
966.60        87.52106
966.98        87.41215
967.37        87.26925
967.76        87.11351
968.15        86.98314
968.53        86.87425
968.92        86.77937
969.31        86.60494
969.69        86.13764
970.08        85.39837
970.47        84.51184
970.86        83.62646
971.24        83.03954
971.63        82.84721
972.02        82.91299
972.40        83.36711
972.79        84.36636
973.17        85.96107
973.56        88.00854
973.95        89.80598
974.33        90.03764
974.72        88.43369
975.11        85.50699
975.49        82.56639
975.88        81.37442
976.26        82.17598
976.65        84.64275
977.04        87.73447
977.42        88.78129
977.81        86.76858
978.19        82.72115
978.58        78.88218
978.96         77.5897
979.35        79.21487
979.74        83.21036
980.12        88.63564
980.51        92.15601
980.89         92.6701
981.28        91.06359
981.66        88.68105
982.05        87.25371
982.43        87.09331
982.82        87.58671
983.20        88.54465
983.59        89.85627
983.97        91.47936
984.35        93.55146
984.74        95.49567
985.12        96.34721
985.51         95.3891
985.89        92.82191
986.28        89.26319
986.66        85.74464
987.04        83.09763
987.43        81.40708
987.81        80.48736
988.20        79.99712
988.58        79.76901
988.96        79.79036
989.35        80.65736
989.73         83.7666
990.12        88.55503
990.50        93.57886
990.88        96.46333
991.27         96.1423
991.65        93.18603
992.03        87.96872
992.42        82.20028
992.80        79.09493
993.18        79.71808
993.56        82.48451
993.95        85.72459
994.33        87.91899
994.71         88.6711
995.10        88.77248
995.48        88.24997
995.86        86.93442
996.24        84.89516
996.63        81.84426
997.01        78.67968
997.39         78.1131
997.77        81.14805
998.15        86.99887
998.54        92.99516
998.92         95.7159
999.30        94.12967
999.68        89.20965
1000.06        82.13724
1000.45        76.11784
1000.83        72.78385
1001.21        71.28207
1001.59        71.51357
1001.97        73.43024
1002.35        76.83524
1002.73        82.48743
1003.12        88.72643
1003.50        90.16605
1003.88        84.49535
1004.26        74.38467
1004.64        64.81221
1005.02        59.98181
1005.40        60.12768
1005.78        64.78314
1006.16        74.63503
1006.54        85.01016
1006.92        89.39198
1007.30        89.20327
1007.69        87.37377
1008.07        86.02081
1008.45        85.28421
1008.83        83.92517
1009.21        80.19231
1009.59        69.00809
1009.97        40.69149
1010.35        8.010614
1010.73        19.19551
1011.11        39.86748
1011.49        52.82551
1011.86        62.38638
1012.24        68.04472
1012.62        71.37273
1013.00        73.81454
1013.38        75.96725
1013.76        79.67573
1014.14        89.07941
1014.52        106.6936
1014.90        132.5629
1015.28        160.3543
1015.66        175.2527
1016.04        167.4758
1016.41        138.4827
1016.79        101.2984
1017.17        72.08888
1017.55        56.12074
1017.93          48.423
1018.31         46.2072
1018.69        48.42871
1019.06        54.61005
1019.44         65.6718
1019.82        84.32724
1020.20        110.2731
1020.58         142.352
1020.95        183.3455
1021.33        251.4195
1021.71       -803.8808
1022.09        36.05088
1022.46        81.77594
1022.84        96.62658
1023.22        103.5586
1023.60        109.1721
1023.97        131.2445
1024.35         100.369
1024.73        107.2643
