SpectraSmart Spectrum 2.9.0.0
--------- Device Information -----------
Spectrum Name :  反射率_0
Saving Time :  2024/04/26 01:51:21
Spectro-Module Model Name : SE2030-DUVN
Spectro-Module Serial Number : OS361AC55029948
Wavelength Start : 200
Wavelength End : 1025
Wavelength Unit : Wavelength(nm)
Spectrum Unit : Reflectance(%)
-----------Spectrum Setting ------------
Integration Time : 20ms
Average : 10
Boxcar : 0
Background removal :  enabled
linearity correction :  enabled
SC :  disabled
Intensity correction :  disabled
DWT denoise :  enabled
savitzky-golay :  disabled
FFT :  disabled
Running average :  disabled
Kalman :  disabled
High pass :  disabled
---------------BEGIN--------------------
Wavelength(nm)             Reflectance(%)
200.29               0
200.75        104.9949
201.21        95.77615
201.67         84.2875
202.13        76.68717
202.58        73.94218
203.04        74.47091
203.50         76.8676
203.96        78.85942
204.42        79.55434
204.88        79.75684
205.34          79.986
205.80        80.81788
206.26        82.75812
206.72        86.65894
207.18        93.68995
207.64        99.10442
208.10        93.78813
208.55         84.3078
209.01        78.75426
209.47        77.50317
209.93        78.81757
210.39         82.0625
210.85        85.47194
211.31        85.19122
211.77        80.30321
212.23        72.47156
212.69        65.04498
213.14        63.23016
213.60        67.73085
214.06        77.05114
214.52        88.01752
214.98         95.6977
215.44        98.50958
215.90          97.825
216.36        95.10905
216.81        92.28901
217.27        90.47093
217.73        89.12542
218.19        87.50969
218.65        84.53197
219.11        79.48986
219.57        71.50985
220.02        61.55693
220.48        55.77248
220.94         57.4156
221.40        65.12347
221.86        71.90342
222.32        70.40192
222.77        61.80714
223.23        50.58881
223.69        41.40596
224.15         39.0442
224.61        42.84587
225.06        50.30547
225.52        57.89072
225.98        61.12045
226.44         59.2139
226.90        54.09821
227.36        48.26813
227.81         45.0713
228.27        45.50953
228.73        48.15848
229.19        51.65585
229.65        54.04177
230.10        54.77506
230.56        54.65434
231.02        54.26529
231.48        54.21169
231.93        54.58295
232.39        55.16409
232.85        55.68742
233.31        55.86407
233.77        55.61419
234.22        55.02399
234.68        54.39087
235.14        54.20771
235.60        54.63173
236.05        55.56743
236.51        56.55463
236.97        56.89893
237.43        56.47816
237.88        55.44718
238.34        54.35208
238.80        54.90251
239.26        57.82362
239.71        62.78681
240.17        68.23581
240.63        71.93092
241.08        73.22488
241.54        72.60703
242.00        71.23701
242.46        70.79824
242.91        72.42507
243.37        77.27006
243.83        93.37395
244.28         148.107
244.74        213.5365
245.20        182.0548
245.66        151.6151
246.11        144.6546
246.57        153.0473
247.03        185.2362
247.48        278.7364
247.94        226.7772
248.40         125.897
248.85        95.48956
249.31        86.71195
249.77        86.01843
250.22        89.85298
250.68        98.31025
251.14        111.2645
251.59        120.6805
252.05          118.27
252.51        107.6587
252.96        95.83886
253.42        89.93022
253.88        89.68068
254.33        92.30152
254.79        97.51824
255.25        104.3026
255.70         110.857
256.16        117.0034
256.62        120.6774
257.07         119.719
257.53        115.3765
257.99        108.6506
258.44        101.3603
258.90        96.80785
259.35        94.28219
259.81        92.95982
260.27        91.33367
260.72        87.92213
261.18        83.38795
261.63        78.14758
262.09        73.35479
262.55        69.54011
263.00        66.67461
263.46        64.63493
263.91        62.87782
264.37        61.23076
264.83        59.41676
265.28        57.38345
265.74         55.3595
266.19        53.40509
266.65        51.80973
267.11        50.51454
267.56        49.33721
268.02        48.04871
268.47        46.50338
268.93        44.77341
269.38        43.02814
269.84        41.79664
270.30        41.20392
270.75        41.11163
271.21        41.16202
271.66        40.80886
272.12          39.921
272.57         38.6534
273.03        37.35254
273.48        36.44989
273.94        36.07195
274.39         36.0231
274.85        36.04184
275.31        35.72189
275.76        34.97659
276.22        33.99072
276.67        32.97668
277.13        32.34871
277.58         32.1101
278.04        32.13614
278.49        32.15882
278.95        31.89065
279.40        31.24257
279.86        30.39934
280.31         29.4695
280.77        28.73739
281.22        28.23173
281.68        27.90186
282.13        27.68065
282.59        27.52285
283.04        27.38751
283.50        27.33104
283.95        27.29192
284.41        27.19844
284.86        27.03023
285.32        26.81192
285.77        26.63404
286.22        26.70869
286.68        27.03325
287.13        27.50014
287.59        27.92399
288.04        28.01307
288.50        27.74917
288.95        27.22122
289.41        26.62468
289.86        26.13614
290.32         25.8786
290.77        25.78582
291.22        25.87019
291.68        26.10633
292.13        26.48179
292.59        27.01964
293.04        27.70055
293.50        28.48679
293.95         29.3467
294.40        30.25532
294.86        31.20057
295.31        32.18235
295.77        33.21064
296.22        34.28864
296.68        35.40639
297.13        36.51434
297.58        37.61797
298.04        38.74432
298.49        39.95464
298.95        41.39925
299.40        43.08645
299.85        44.96298
300.31        46.90852
300.76        48.72427
301.21        50.33371
301.67        51.83028
302.12        53.22186
302.58        54.63332
303.03         56.0822
303.48        57.56919
303.94        59.20935
304.39         61.1094
304.84        63.28482
305.30        65.69411
305.75        68.10359
306.20         70.1817
306.66        71.87672
307.11        73.21917
307.57        74.46794
308.02        75.89175
308.47        77.61324
308.93        79.55426
309.38        81.52307
309.83        83.27358
310.29        84.73537
310.74        85.95668
311.19        87.10175
311.65        88.41769
312.10        89.94762
312.55         91.6294
313.00        93.25365
313.46          94.486
313.91        95.22955
314.36        95.59762
314.82        95.88157
315.27        96.47312
315.72        97.50388
316.18        98.85774
316.63        100.2928
317.08        101.3609
317.53        101.9383
317.99        102.1476
318.44        102.2746
318.89         102.785
319.35        103.7612
319.80        105.0882
320.25        106.4068
320.70         107.125
321.16        107.1044
321.61        106.5382
322.06         105.816
322.51        105.5488
322.97        105.8664
323.42        106.6362
323.87        107.5452
324.32        108.0573
324.78        108.0111
325.23        107.6273
325.68         107.152
326.13        107.0121
326.59           107.3
327.04        107.9055
327.49        108.6455
327.94        109.2605
328.39        109.6556
328.85        109.8949
329.30        110.0881
329.75        110.2244
330.20        110.3577
330.66        110.4692
331.11        110.7134
331.56        111.2614
332.01        112.1585
332.46        113.3375
332.92        114.6376
333.37          115.98
333.82        117.1688
334.27        118.2136
334.72        118.9896
335.17        119.3265
335.63        119.2322
336.08        118.8318
336.53        118.3744
336.98         118.317
337.43        118.7785
337.88        119.6281
338.34        120.7057
338.79        121.8337
339.24        122.8602
339.69        123.8649
340.14        124.6661
340.59        124.9593
341.05        124.7387
341.50        124.0787
341.95        123.3962
342.40        123.3432
342.85        124.0461
343.30         125.333
343.75        126.7966
344.20        127.7021
344.66        127.8516
345.11        127.4504
345.56        126.8318
346.01        126.5059
346.46        126.6151
346.91        126.9843
347.36         127.448
347.81        127.7665
348.26        127.8657
348.72        127.8516
349.17         127.773
349.62        127.7362
350.07        127.7686
350.52        127.8178
350.97        127.8355
351.42        127.7642
351.87        127.5905
352.32        127.3422
352.77        127.0516
353.22        126.7666
353.67        126.4986
354.13        126.2397
354.58        125.9419
355.03         125.595
355.48        125.1894
355.93        124.7375
356.38        124.2266
356.83        123.6364
357.28        122.9702
357.73        122.2358
358.18         121.481
358.63          120.78
359.08        120.1515
359.53        119.5856
359.98        119.0211
360.43        118.3567
360.88        117.5676
361.33        116.6727
361.78          115.76
362.23         114.976
362.68        114.3567
363.13        113.8703
363.58        113.3904
364.03        112.7136
364.48        111.8021
364.93        110.7169
365.38        109.6203
365.83        108.7785
366.28        108.2362
366.73        107.8837
367.18        107.5509
367.63         106.967
368.08        106.0749
368.53        105.0048
368.98        103.8461
369.43        102.7148
369.88        101.6696
370.33        100.6739
370.78        99.81747
371.23        99.25742
371.68        99.00246
372.13        98.99837
372.58        99.06828
373.03        98.90328
373.48        98.42187
373.93        97.72038
374.38        96.91224
374.83        96.17628
375.28        95.57229
375.72        95.02985
376.17        94.58047
376.62        94.25736
377.07        94.03947
377.52        93.90441
377.97        93.75055
378.42        93.40755
378.87        92.85085
379.32        92.15537
379.77        91.38626
380.22        90.63621
380.67        89.93015
381.11        89.22769
381.56        88.58418
382.01        88.09851
382.46        87.79259
382.91        87.67673
383.36        87.58124
383.81        87.22791
384.26        86.57916
384.71        85.70682
385.15        84.86714
385.60        84.52707
386.05        84.69578
386.50        85.21029
386.95        85.71482
387.40        85.61536
387.85        84.83134
388.29        83.60195
388.74        82.38564
389.19        81.48818
389.64        80.97091
390.09        80.66798
390.54        80.57527
390.98        80.69192
391.43         80.9589
391.88        81.35229
392.33         81.6273
392.78        81.38896
393.23        80.63718
393.67        79.56644
394.12        78.57431
394.57        77.83327
395.02        77.49296
395.47        77.74577
395.91        78.45169
396.36        78.93521
396.81        79.05852
397.26         79.0782
397.71         78.9973
398.15        78.62318
398.60        78.07403
399.05        77.52764
399.50         77.0404
399.95        76.20245
400.39        75.51321
400.84         75.3521
401.29        75.70745
401.74        75.80023
402.18        75.56498
402.63        75.36956
403.08        75.33844
403.53        75.46173
403.97         75.7402
404.42        76.12778
404.87        76.44496
405.32        76.35292
405.76        75.78713
406.21        75.05284
406.66        74.33058
407.11        73.62841
407.55        73.17538
408.00        73.43269
408.45        74.22018
408.90        74.72285
409.34        74.66158
409.79        74.08991
410.24        73.27776
410.68        72.82634
411.13        72.83486
411.58        72.94114
412.03        73.09212
412.47         73.3649
412.92        73.66387
413.37        73.99552
413.81        74.24656
414.26        74.28919
414.71        74.08986
415.15        73.67563
415.60        73.19942
416.05        72.93353
416.49        72.95149
416.94        73.19803
417.39        73.48878
417.83        73.48653
418.28        73.13694
418.73        72.56484
419.17        72.01458
419.62        71.88009
420.07        72.18871
420.51        72.79217
420.96        73.45352
421.41        73.68945
421.85        73.36247
422.30        72.99575
422.74          72.621
423.19        71.82913
423.64        70.91087
424.08        71.14086
424.53        72.35204
424.98        73.00718
425.42         72.9252
425.87        73.23616
426.31        73.85976
426.76        73.57298
427.21        72.70371
427.65        72.92585
428.10        74.12165
428.54        74.95223
428.99        75.34641
429.44        75.51397
429.88        75.47855
430.33        76.27823
430.77        77.21101
431.22        75.71011
431.66        72.53444
432.11        71.17056
432.56        71.86042
433.00        72.79314
433.45        73.77113
433.89        75.67276
434.34        77.06863
434.78        78.41113
435.23        74.71013
435.67        72.44554
436.12        74.31496
436.57        75.54262
437.01        76.75857
437.46         77.1496
437.90        76.80002
438.35        76.59196
438.79        76.77712
439.24        76.70448
439.68        76.46763
440.13         76.1636
440.57        76.08159
441.02        76.88148
441.46         78.2308
441.91        79.29379
442.35        79.65716
442.80        78.71598
443.24        77.02168
443.69        77.45134
444.13        79.59357
444.58        79.53452
445.02        77.52832
445.47        77.16881
445.91        78.37833
446.36         78.7673
446.80        78.25468
447.24        78.10865
447.69        78.41126
448.13        78.51751
448.58        78.88673
449.02        79.18398
449.47        79.49969
449.91        79.76491
450.36         79.9558
450.80        80.07884
451.25        80.10589
451.69         79.9132
452.13        79.56528
452.58        79.24825
453.02        79.02695
453.47        78.91707
453.91        78.89553
454.36        79.04292
454.80        79.33213
455.24        79.29684
455.69        78.85272
456.13        79.13932
456.58        79.09394
457.02        78.14297
457.46        77.40911
457.91        77.70271
458.35        79.00607
458.79        79.47948
459.24          79.062
459.68        78.65601
460.13        78.38031
460.57        78.05149
461.01        77.78622
461.46        77.17529
461.90        76.95128
462.34        76.96598
462.79        76.84832
463.23        76.95335
463.68        77.07227
464.12        77.34554
464.56         77.6455
465.01        77.72968
465.45        77.50542
465.89        77.28066
466.34        76.96729
466.78        76.09303
467.22        75.18363
467.67        74.17744
468.11        75.54435
468.55        76.16704
468.99        76.43282
469.44        76.10831
469.88         75.4201
470.32        75.38029
470.77        75.88326
471.21        75.88789
471.65        75.34095
472.10        74.97848
472.54        74.91357
472.98        74.93196
473.42        75.02304
473.87        75.48441
474.31        76.04799
474.75        75.80183
475.20        74.96524
475.64        74.78526
476.08        75.25706
476.52        75.28802
476.97        74.84515
477.41        74.76643
477.85        75.08058
478.29        74.70528
478.74        74.78397
479.18        74.93211
479.62        73.82339
480.06        74.51506
480.50        74.91814
480.95        75.41056
481.39        75.46024
481.83        74.73994
482.27        74.92227
482.72        74.43732
483.16        73.24255
483.60        73.37158
484.04        74.67426
484.48        75.18475
484.93        75.39622
485.37        76.51171
485.81        77.57679
486.25        76.00093
486.69         104.049
487.14        84.42666
487.58        52.06981
488.02        63.90734
488.46        72.35787
488.90        71.96194
489.34        73.53557
489.79        72.62066
490.23        74.61395
490.67        75.30341
491.11        74.09758
491.55        74.10686
491.99        74.83183
492.43         74.7122
492.88        73.82905
493.32        73.71455
493.76        73.86213
494.20        74.08596
494.64        74.13252
495.08        74.25756
495.52        74.50083
495.96        74.50082
496.41        74.25871
496.85        74.82406
497.29        75.84449
497.73        74.65185
498.17        72.32382
498.61         72.4537
499.05         75.0924
499.49        75.66703
499.93         75.7015
500.37        75.48899
500.82        74.97002
501.26        74.44524
501.70        74.68401
502.14        75.24899
502.58        74.99553
503.02        74.99872
503.46          74.868
503.90        74.58138
504.34        74.24195
504.78        74.07795
505.22        74.13767
505.66        74.35391
506.10        74.62527
506.54        74.71284
506.98        74.53928
507.42         74.3315
507.86        74.12423
508.30        73.68378
508.74        74.04459
509.18        74.28831
509.62        74.59001
510.06        74.73031
510.50        74.66729
510.94        74.46054
511.38        74.20979
511.82        74.09454
512.26        74.15836
512.70        74.34075
513.14         74.5747
513.58        74.75497
514.02        74.83663
514.46        74.84509
514.90        74.80429
515.34        74.73617
515.78         74.6461
516.22         74.5825
516.66        74.53382
517.10        74.33933
517.54        74.00311
517.98        74.07715
518.42        73.86436
518.86        73.96442
519.30         74.1553
519.74         74.4849
520.18        74.85085
520.62        75.05267
521.06        75.07461
521.50        75.00341
521.93        74.95043
522.37        74.88832
522.81        74.86696
523.25        74.90813
523.69        74.98061
524.13         75.0142
524.57         74.9983
525.01        74.95801
525.45        74.93053
525.89        74.97362
526.32        75.08781
526.76        75.24146
527.20        75.37266
527.64        75.43004
528.08        75.41914
528.52        75.23538
528.96        74.89983
529.40        74.81823
529.83        74.97758
530.27        74.19394
530.71        74.04697
531.15        73.83928
531.59        74.03998
532.03        74.35844
532.46        74.72284
532.90        75.06813
533.34        75.32079
533.78        75.49245
534.22        75.56206
534.66        75.51201
535.09        75.34445
535.53        75.09763
535.97        74.82327
536.41        74.62951
536.85        74.54929
537.28        74.56149
537.72        74.62839
538.16        74.69459
538.60        74.73576
539.04        74.70886
539.47        74.61433
539.91        74.65273
540.35        74.75004
540.79        74.59802
541.22        74.25774
541.66         74.1294
542.10        74.22948
542.54        74.33451
542.97        74.43121
543.41        74.61236
543.85         74.8509
544.29        75.14606
544.72        75.36137
545.16        75.32066
545.60        74.99537
546.04        74.42815
546.47        73.87195
546.91        73.75534
547.35        74.13263
547.79        74.88836
548.22        75.65194
548.66        75.82631
549.10        75.31761
549.53         74.3756
549.97        73.40769
550.41        72.93372
550.84        73.09007
551.28        73.71157
551.72        74.53836
552.15        75.07865
552.59        75.18472
553.03        75.07569
553.46        74.86584
553.90        74.50606
554.34        74.52693
554.77        74.38694
555.21        74.23187
555.65        74.27742
556.08        74.55498
556.52        74.20222
556.96        74.83963
557.39        74.63779
557.83        74.23365
558.27         74.1581
558.70        74.44361
559.14        74.64893
559.57        74.72925
560.01        74.96906
560.45        75.26675
560.88        75.34745
561.32        75.20338
561.75         74.8497
562.19        74.44373
562.63        74.09808
563.06        73.89722
563.50        73.99171
563.93        74.27301
564.37        74.44048
564.80        74.42782
565.24        74.42632
565.68         74.4338
566.11        74.41163
566.55        74.41773
566.98        74.37925
567.42        74.35766
567.85        74.57619
568.29        75.02454
568.72        75.17329
569.16        75.17226
569.60        75.61541
570.03        76.14026
570.47        75.96803
570.90        75.48051
571.34        73.84523
571.77        74.80836
572.21        75.06782
572.64         74.7682
573.08        73.65392
573.51        70.37821
573.95         73.2228
574.38         78.1881
574.82        75.78547
575.25        75.41802
575.69         72.6777
576.12         71.6338
576.56        70.87696
576.99        72.42844
577.42        75.87277
577.86        75.71163
578.29        74.84995
578.73        79.39867
579.16        73.21191
579.60        66.87022
580.03        69.65096
580.47        74.32451
580.90        76.03604
581.33        74.68267
581.77         73.4565
582.20        81.00524
582.64        80.88651
583.07         68.9262
583.51        67.58813
583.94        66.28703
584.37        69.12992
584.81        72.37367
585.24        76.32343
585.68        78.48769
586.11        76.88253
586.54        71.52755
586.98        69.38583
587.41        69.94343
587.85        74.20704
588.28        76.46931
588.71        72.98299
589.15        70.65844
589.58        71.82249
590.01        72.02274
590.45        73.30984
590.88        73.99249
591.31        73.23538
591.75        72.65218
592.18        72.63544
592.61        74.18876
593.05        75.07819
593.48        78.29539
593.91        79.00537
594.35        73.03537
594.78        71.11334
595.21        70.46262
595.65        73.60235
596.08        76.93614
596.51        73.55669
596.94        71.58661
597.38        72.13651
597.81        75.03339
598.24        76.75395
598.68        74.89452
599.11        73.85428
599.54        77.32162
599.97        78.98189
600.41        73.07382
600.84        73.09283
601.27        74.74958
601.70        73.74781
602.14         73.6111
602.57        72.54449
603.00        73.16003
603.43         75.1594
603.87         76.4219
604.30        76.16381
604.73        73.83466
605.16        72.36745
605.60        73.22239
606.03        74.36079
606.46        75.47369
606.89        75.16924
607.32        72.97923
607.76        72.72685
608.19        75.21334
608.62        74.30721
609.05        72.87849
609.48        73.40705
609.92         73.4221
610.35        72.62676
610.78        75.10352
611.21        75.83598
611.64        72.44279
612.07        73.23663
612.50        73.69377
612.94        74.21034
613.37        73.67606
613.80        73.64902
614.23        74.18639
614.66        74.10283
615.09        74.55152
615.52        74.56883
615.96        74.26264
616.39        74.90246
616.82        73.41458
617.25        73.46777
617.68        74.02438
618.11        74.62028
618.54        74.92838
618.97        74.31789
619.40        73.21647
619.84        73.19347
620.27        74.17532
620.70        74.80393
621.13        74.89439
621.56        74.28968
621.99        73.31777
622.42        74.23384
622.85        76.49427
623.28        75.96298
623.71        75.32726
624.14        75.35712
624.57        74.97611
625.00        74.75849
625.43        74.90698
625.86        74.31886
626.29        74.59722
626.72        74.86421
627.15        74.75109
627.58        74.76762
628.01        74.63099
628.44        75.06455
628.87        75.00934
629.30        74.93333
629.73        75.55015
630.16        75.54231
630.59        75.21692
631.02        74.77464
631.45        74.35728
631.88         74.0591
632.31        73.92289
632.74        73.92823
633.17        74.03548
633.60        74.17432
634.03        74.30904
634.46        74.45967
634.89        74.58678
635.32        74.62606
635.75        74.57109
636.18        74.43004
636.61          74.271
637.04        74.21916
637.47        74.30106
637.89        74.47591
638.32        74.65632
638.75        74.78391
639.18        74.80593
639.61        74.67088
640.04        74.43481
640.47        74.26196
640.90        74.18828
641.33        74.13869
641.76        74.07941
642.18        74.08848
642.61        74.15871
643.04        74.10685
643.47        73.90236
643.90        74.45236
644.33         74.2197
644.76        74.43653
645.18        74.59445
645.61        74.63957
646.04        74.54701
646.47        74.29609
646.90        74.01928
647.33        73.96967
647.75        74.22829
648.18        74.41734
648.61        74.93424
649.04        74.85458
649.47        74.32973
649.89         73.3027
650.32        72.28555
650.75         72.2978
651.18        73.25366
651.61        74.17052
652.03        74.59599
652.46        74.47675
652.89        74.22068
653.32        73.48518
653.74        72.65827
654.17        74.21064
654.60        74.98718
655.03        72.11651
655.46        73.09473
655.88        78.02424
656.31        83.45026
656.74        191.8786
657.16        124.2072
657.59        43.74441
658.02        32.60726
658.45        55.97949
658.87        71.69888
659.30        75.13536
659.73        73.57909
660.15        71.01304
660.58        73.73111
661.01        75.89108
661.44        73.74056
661.86        72.87617
662.29        72.53537
662.72        73.20734
663.14        74.66603
663.57        74.65973
664.00        73.42258
664.42         73.1563
664.85        73.92934
665.27        74.34285
665.70        74.21857
666.13        74.05889
666.55        73.85469
666.98        73.45129
667.41          73.004
667.83        72.82944
668.26         72.9919
668.69        73.36613
669.11        73.73518
669.54        74.11398
669.96        73.74489
670.39        73.27892
670.82        72.73716
671.24        72.53648
671.67        72.77573
672.09        73.26186
672.52        73.70072
672.94        74.19634
673.37        73.47379
673.80        73.22455
674.22        73.16272
674.65          73.078
675.07         72.9706
675.50        72.84805
675.92        72.75631
676.35        72.80099
676.77        72.98632
677.20        73.19976
677.62        73.39907
678.05        73.52098
678.47        73.53465
678.90        73.47276
679.32        73.38496
679.75        73.21583
680.17        73.27704
680.60        73.31935
681.02        73.36922
681.45        73.30756
681.87           73.13
682.30         72.8682
682.72        72.63537
683.15        72.62669
683.57        72.88736
684.00        73.26649
684.42         73.7568
684.85        73.99617
685.27        73.95647
685.70        73.71868
686.12        73.39166
686.54         73.2001
686.97        73.18666
687.39        73.30347
687.82        73.44672
688.24        73.50113
688.66        73.41305
689.09        73.23485
689.51        73.06499
689.94        73.02552
690.36        73.15528
690.78        73.40209
691.21        73.67835
691.63        73.85202
692.06        73.88838
692.48        73.83456
692.90        73.75661
693.33        73.74281
693.75        73.81783
694.17        73.95686
694.60        74.11807
695.02        74.21066
695.44        74.17369
695.87        74.23093
696.29        74.39971
696.71        74.08606
697.14        73.52794
697.56        74.07639
697.98         75.4006
698.41        75.31552
698.83        74.41829
699.25         73.8287
699.68        73.83991
700.10        73.76551
700.52        73.63979
700.94        73.85377
701.37         74.3001
701.79        74.68609
702.21        74.90411
702.64        75.03847
703.06        75.06075
703.48        74.91893
703.90        74.63873
704.33        74.23992
704.75        73.80853
705.17        73.57904
705.59        73.61417
706.01        73.73557
706.44        73.85655
706.86        74.47118
707.28        74.54183
707.70        74.84897
708.12        75.04755
708.55        75.07802
708.97        74.91518
709.39        74.58642
709.81        74.23229
710.23        74.08533
710.66        74.20756
711.08        74.56613
711.50        74.96921
711.92        75.12307
712.34        74.96125
712.76        74.56098
713.19        74.12215
713.61        74.00116
714.03        74.26257
714.45         74.7937
714.87        75.35287
715.29        75.56054
715.71        75.33292
716.13        74.79709
716.56        74.17762
716.98        73.86522
717.40        73.95569
717.82         74.3297
718.24        74.80703
718.66        75.08431
719.08        75.07223
719.50        74.86972
719.92        74.58742
720.34        74.41678
720.76        74.41749
721.19        74.40199
721.61        74.56113
722.03        74.68663
722.45        74.81578
722.87        74.96043
723.29        75.10921
723.71        75.22975
724.13        75.31021
724.55        75.34957
724.97        75.35423
725.39        75.34509
725.81        75.33067
726.23        75.30953
726.65        75.28867
727.07        75.27405
727.49        75.27378
727.91        75.30066
728.33         75.3476
728.75        75.40028
729.17        75.44975
729.59         75.4828
730.01        75.53472
730.43        75.65435
730.85        75.84763
731.27        76.12796
731.69        76.38383
732.10        76.41223
732.52        76.18256
732.94        75.80409
733.36        75.48271
733.78        75.40728
734.20        75.62253
734.62        76.37837
735.04          77.389
735.46        77.41428
735.88        76.68829
736.30        76.98347
736.72        78.22205
737.13        78.62719
737.55        77.96564
737.97        77.64483
738.39        77.77892
738.81        77.12303
739.23        76.10592
739.65        77.09279
740.06        79.51495
740.48        79.84496
740.90        78.16235
741.32        77.35919
741.74        77.71181
742.16           77.82
742.57        77.75569
742.99        78.32168
743.41        79.31869
743.83        79.95634
744.25        80.09679
744.67        79.94675
745.08        79.69447
745.50        79.63798
745.92        79.87408
746.34        80.27924
746.75        80.72517
747.17        81.00105
747.59        81.07648
748.01        81.02602
748.42        80.98034
748.84        81.17048
749.26        81.65407
749.68        82.18352
750.09        82.66042
750.51        83.28219
750.93        83.83502
751.35        83.51459
751.76        82.55753
752.18        82.21573
752.60         82.5062
753.01        82.51055
753.43         82.2488
753.85        82.38641
754.27        82.94777
754.68        83.65582
755.10        84.32944
755.52        84.84006
755.93        85.09866
756.35        85.08842
756.77        84.98353
757.18        84.92581
757.60        84.95963
758.02        85.43307
758.43        86.03533
758.85        85.41074
759.26        84.00853
759.68        83.87899
760.10        84.88007
760.51        85.37036
760.93        85.13902
761.34        83.64189
761.76        83.53566
762.18        82.91897
762.59         82.6801
763.01        82.86768
763.42        83.53662
763.84        84.23455
764.26        84.85817
764.67        85.51134
765.09        85.96295
765.50        85.94161
765.92        85.37808
766.33        83.86861
766.75        82.02695
767.16        81.33332
767.58        82.02711
768.00         83.6391
768.41         85.7477
768.83        87.41872
769.24         87.9886
769.66        87.29229
770.07        85.85845
770.49        84.14738
770.90        82.70881
771.32         83.5684
771.73        85.98473
772.15        85.41125
772.56        82.33833
772.97        81.62743
773.39        83.23141
773.80        83.80388
774.22        83.13586
774.63        83.25329
775.05        84.04128
775.46        84.44445
775.88        84.32166
776.29        83.97677
776.70        83.54755
777.12        83.29446
777.53         83.3082
777.95        83.44453
778.36        83.59762
778.77        83.58218
779.19        83.40035
779.60        83.12057
780.02        82.87071
780.43         82.9676
780.84        83.51844
781.26        83.85416
781.67        84.00646
782.09        85.24393
782.50         86.9226
782.91         85.9442
783.33        83.07039
783.74         82.1152
784.15        83.26483
784.57         84.0593
784.98        84.15689
785.39        84.24645
785.81        84.23801
786.22        83.78971
786.63        83.21017
787.04        83.11889
787.46        83.57896
787.87        84.38764
788.28        85.28403
788.70        85.77059
789.11        85.71218
789.52        85.41541
789.93          85.033
790.35         84.4435
790.76        83.87042
791.17        83.99625
791.58        84.67256
792.00        84.90846
792.41        84.57684
792.82        84.35433
793.23        84.42854
793.65        84.09208
794.06        83.69646
794.47        85.10193
794.88        87.38102
795.29        87.08434
795.71        84.43083
796.12         81.9307
796.53        80.40125
796.94        80.03252
797.35         80.9002
797.76        82.37395
798.18        83.76016
798.59        84.68515
799.00        84.77123
799.41        83.74892
799.82        82.16396
800.23        81.24181
800.64        81.23628
801.06        81.68623
801.47        82.41659
801.88        83.02898
802.29        83.35252
802.70        83.56178
803.11        83.64945
803.52         83.5607
803.93         83.3291
804.34        82.91833
804.75        82.51093
805.17        82.49142
805.58        82.96561
805.99        83.61608
806.40        84.17587
806.81        84.71545
807.22        84.86031
807.63        83.55627
808.04        81.42293
808.45        80.45242
808.86        80.87226
809.27        81.75394
809.68        82.68574
810.09         83.2646
810.50        83.26289
810.91        82.83929
811.32        82.22079
811.73        81.76968
812.14        81.59891
812.55        81.53779
812.96         81.6151
813.37        81.88687
813.78        82.31342
814.19        82.93643
814.60        83.43159
815.01        83.28227
815.42        82.43447
815.83        81.00792
816.24         79.5625
816.65        79.08794
817.05        79.87122
817.46        81.58669
817.87        83.55847
818.28        84.57264
818.69        84.28021
819.10        82.98711
819.51        81.36539
819.92        80.56363
820.33        80.89341
820.74        81.99049
821.14        83.27412
821.55        83.71049
821.96        83.08174
822.37        81.77788
822.78        80.30178
823.19        79.36786
823.60        79.17869
824.00        79.55284
824.41        80.18592
824.82        80.70598
825.23        80.92612
825.64        80.98391
826.04        80.95163
826.45        80.92318
826.86        80.92925
827.27        80.88632
827.68        80.80367
828.08        80.76277
828.49        80.71304
828.90        80.71299
829.31        80.69514
829.72        80.52095
830.12         80.2056
830.53        79.79121
830.94         79.4642
831.35        79.45999
831.75        79.86286
832.16        80.54168
832.57        81.36656
832.97        82.03605
833.38        82.35747
833.79        82.39365
834.20         82.2825
834.60        82.24566
835.01        82.36815
835.42        82.57564
835.82        82.72319
836.23        82.49222
836.64        81.87791
837.04        81.01973
837.45        80.19217
837.86        79.82242
838.26        80.01345
838.67        80.59998
839.08        81.35207
839.48        81.83814
839.89        81.88159
840.29        81.63545
840.70        81.21974
841.11        80.80229
841.51        80.46282
841.92        80.11279
842.33        79.84757
842.73        79.84509
843.14        80.08304
843.54        80.56797
843.95        81.04238
844.35        81.13301
844.76        80.75045
845.17        80.02815
845.57        79.23618
845.98        78.80354
846.38        78.83197
846.79        79.16892
847.19        79.66479
847.60        79.95005
848.00        79.94833
848.41        79.75602
848.81        79.49702
849.22        79.27615
849.62        79.19236
850.03         79.2015
850.43        79.35653
850.84         79.6633
851.24        80.14793
851.65        80.62066
852.05        81.17548
852.46        81.77399
852.86        82.38188
853.27        83.03045
853.67        83.26698
854.07        82.53419
854.48         80.8956
854.88        78.55663
855.29        76.35226
855.69        75.48222
856.10        76.17087
856.50        78.29866
856.90        81.06799
857.31        82.63395
857.71        82.42957
858.12        80.91261
858.52        79.01658
858.92        77.98776
859.33        78.08521
859.73        78.98463
860.13        80.31844
860.54        81.31389
860.94        81.71813
861.34        81.70684
861.75        81.48938
862.15        81.48753
862.55        81.77694
862.96        82.20168
863.36        82.59734
863.76        82.66179
864.17        82.33979
864.57        81.82315
864.97        81.35293
865.38        81.26467
865.78        81.67144
866.18        82.37428
866.58        83.20375
866.99        83.86336
867.39        84.29812
867.79        84.61789
868.19        84.69526
868.60        84.29695
869.00         83.4547
869.40        82.23083
869.80        81.24655
870.21        81.46375
870.61        83.13203
871.01         85.9588
871.41        89.04771
871.81        90.84181
872.22        90.92357
872.62        89.75256
873.02        88.17409
873.42        87.64873
873.82        88.40151
874.22        89.79234
874.63        91.42356
875.03        92.42828
875.43        92.30879
875.83         91.8828
876.23        90.71458
876.63        90.37754
877.03        90.99944
877.44        92.73909
877.84        101.2884
878.24        98.24607
878.64        97.83704
879.04        96.58723
879.44        93.75007
879.84        92.42125
880.24        94.84943
880.64        96.68639
881.04         98.3376
881.44        99.25922
881.84         98.6272
882.24        96.86406
882.65        95.07072
883.05        94.47173
883.45        95.27326
883.85         97.2678
884.25        99.64355
884.65        100.8091
885.05        100.2982
885.45        98.70261
885.85        96.91369
886.25          96.133
886.65        96.61939
887.05        97.96352
887.45        99.70174
887.85        101.0058
888.25        101.5349
888.65        101.5582
889.04         101.235
889.44        100.8608
889.84        100.5351
890.24         100.111
890.64        99.67234
891.04        99.38482
891.44        99.25547
891.84        99.30276
892.24        99.32883
892.64        98.94109
893.04        98.14705
893.44        97.18799
893.83        96.37551
894.23        96.16391
894.63        96.61181
895.03        97.49785
895.43        98.76655
895.83        100.2825
896.23        101.8499
896.63        103.4622
897.02        104.5994
897.42        104.4504
897.82         102.982
898.22        100.5224
898.62        97.97646
899.01        96.67818
899.41        96.91965
899.81        98.24319
900.21        100.0253
900.61        101.2226
901.00        101.4937
901.40        101.1864
901.80         100.518
902.20        99.81995
902.59         99.2515
902.99        98.67236
903.39        98.18513
903.79        98.00118
904.18         98.1592
904.58        98.67359
904.98        99.37356
905.38        99.96183
905.77        100.3162
906.17        100.4677
906.57        100.4938
906.96        100.5814
907.36        100.7104
907.76        100.8429
908.15        100.8352
908.55        100.3499
908.95        99.41262
909.34        98.13329
909.74        96.91698
910.14        96.19831
910.53        96.12273
910.93        96.62296
911.33        97.47387
911.72         98.2615
912.12        98.73348
912.52        98.91457
912.91        99.00832
913.31        99.32085
913.70        99.95181
914.10        100.8297
914.49        101.5569
914.89        101.1181
915.29        99.36428
915.68        96.74986
916.08        94.46416
916.47        93.56275
916.87        94.11613
917.26        95.75926
917.66        97.62831
918.05        98.31985
918.45        97.47329
918.84        95.60829
919.24        93.56836
919.64        92.57656
920.03        92.96782
920.42        94.31567
920.82        96.14273
921.21        97.76697
921.61        98.69039
922.00        99.14153
922.40        99.05308
922.79        98.30949
923.19          97.043
923.58        95.26367
923.98        93.25311
924.37        91.93337
924.77        91.85804
925.16        91.18008
925.55        92.85046
925.95        94.45803
926.34        96.67212
926.74        99.12823
927.13        101.3078
927.52        102.1434
927.92         101.547
928.31        99.84946
928.70        97.54791
929.10        95.52599
929.49        94.07191
929.89         93.0203
930.28        92.61931
930.67        93.24763
931.07        94.74648
931.46        97.06321
931.85        99.30182
932.24        100.1106
932.64         99.2331
933.03        96.88552
933.42        93.75863
933.82        91.49064
934.21        90.61109
934.60        90.73645
934.99        91.25597
935.39        91.44986
935.78         91.2011
936.17        90.53363
936.56        89.30152
936.96        89.70238
937.35        88.74338
937.74        88.80065
938.13         89.1013
938.53        90.09612
938.92        91.81824
939.31        94.36521
939.70        97.01535
940.09        97.78033
940.49        96.07822
940.88        92.76548
941.27        89.42661
941.66         87.9288
942.05        88.48692
942.44        90.49936
942.84        93.19167
943.23        95.24441
943.62        96.03856
944.01        95.93886
944.40         95.2634
944.79        94.49983
945.18        93.81721
945.57        92.98383
945.97        91.92719
946.36        90.74885
946.75         89.6935
947.14        88.98172
947.53        88.66777
947.92        88.67524
948.31        88.93864
948.70        89.45496
949.09         90.1234
949.48        90.68356
949.87        90.97402
950.26        90.98413
950.65        90.82745
951.04        90.73018
951.43        90.75334
951.82        90.83278
952.21         90.8319
952.60        90.56113
952.99        89.97585
953.38         89.1209
953.77        88.22847
954.16        87.60419
954.55        87.31316
954.94        87.36371
955.33        87.37616
955.72         86.7011
956.11        85.24839
956.50        83.18859
956.89        81.35191
957.28        81.23663
957.66        83.26419
958.05         86.7237
958.44        90.42365
958.83        92.59355
959.22        92.78632
959.61        91.42805
960.00         89.3129
960.39        87.77193
960.78        87.23364
961.16        87.38925
961.55        87.64647
961.94        87.02413
962.33         85.3698
962.72         83.1926
963.11        81.25351
963.49        80.48728
963.88        81.02883
964.27        82.61465
964.66        84.63565
965.04        85.78991
965.43        85.47108
965.82        84.17132
966.21        82.61137
966.60         81.7221
966.98        81.71397
967.37        82.24284
967.76        83.04497
968.15        83.60965
968.53        83.72852
968.92        83.55741
969.31        83.26827
969.69        83.03559
970.08         82.9288
970.47        82.88884
970.86        82.81927
971.24        82.59384
971.63        82.17705
972.02        81.61655
972.40        81.16998
972.79        81.22964
973.17        82.00613
973.56        83.30212
973.95        84.72038
974.33         85.4473
974.72        85.14664
975.11          84.015
975.49        82.71016
975.88        82.21848
976.26        82.67642
976.65        83.92246
977.04        85.16278
977.42        84.55721
977.81        81.65078
978.19        77.31653
978.58         73.6287
978.96        72.65925
979.35        74.66235
979.74        79.20286
980.12        85.21249
980.51        88.99857
980.89        89.31664
981.28        87.15408
981.66        84.03274
982.05        81.92207
982.43        81.22189
982.82        81.26166
983.20        81.94628
983.59        83.27585
983.97        85.25551
984.35        88.11219
984.74        91.15297
985.12        92.97387
985.51        92.61234
985.89        90.16917
986.28        86.61851
986.66        83.67777
987.04        82.19376
987.43        81.91315
987.81        82.04181
988.20        81.51772
988.58          79.967
988.96        77.15657
989.35        73.76872
989.73        73.40929
990.12        77.88745
990.50        85.27069
990.88        91.07717
991.27        92.18854
991.65         89.1609
992.03        83.05168
992.42        76.11524
992.80        72.56956
993.18        73.73338
993.56        77.36539
993.95        81.59051
994.33        84.80608
994.71        86.52037
995.10         87.6422
995.48        87.83736
995.86        86.28748
996.24        82.91367
996.63        77.42554
997.01        71.31625
997.39        69.02882
997.77        72.45197
998.15         80.5124
998.54        89.36444
998.92        93.74667
999.30         92.1326
999.68        85.90092
1000.06        76.84589
1000.45        69.57364
1000.83        66.30525
1001.21        65.68888
1001.59        67.00146
1001.97        69.56489
1002.35        73.05399
1002.73        78.33728
1003.12        84.12559
1003.50        85.86774
1003.88        81.48513
1004.26        73.15242
1004.64        64.82143
1005.02        59.73362
1005.40        57.94818
1005.78        58.70079
1006.16        63.08851
1006.54          70.866
1006.92        77.89581
1007.30        82.44117
1007.69        84.71032
1008.07        85.88507
1008.45        86.69984
1008.83        86.94772
1009.21        85.30272
1009.59        75.85777
1009.97        42.76871
1010.35       -13.04431
1010.73       -12.28576
1011.11        19.55351
1011.49        44.67645
1011.86        63.43943
1012.24        73.69994
1012.62         76.3399
1013.00        73.73683
1013.38        66.55904
1013.76        56.49415
1014.14        52.06541
1014.52        61.32535
1014.90        86.97188
1015.28        123.1228
1015.66        147.5886
1016.04        145.6452
1016.41        119.9798
1016.79        86.13376
1017.17        63.02978
1017.55        53.87446
1017.93        51.47565
1018.31        52.49408
1018.69        55.75695
1019.06        61.14958
1019.44        69.51752
1019.82        83.58482
1020.20        105.0476
1020.58        135.7775
1020.95        183.3651
1021.33        269.7801
1021.71       -875.8787
1022.09        52.98847
1022.46          107.68
1022.84        127.8434
1023.22        139.2866
1023.60        152.7525
1023.97        249.4215
1024.35        95.42793
1024.73        119.9948
