SpectraSmart Spectrum 2.9.0.0
--------- Device Information -----------
Spectrum Name :  反射率_0
Saving Time :  2024/04/26 01:07:41
Spectro-Module Model Name : SE2030-DUVN
Spectro-Module Serial Number : OS361AC55029948
Wavelength Start : 200
Wavelength End : 1025
Wavelength Unit : Wavelength(nm)
Spectrum Unit : Reflectance(%)
-----------Spectrum Setting ------------
Integration Time : 20ms
Average : 10
Boxcar : 0
Background removal :  enabled
linearity correction :  enabled
SC :  disabled
Intensity correction :  disabled
DWT denoise :  enabled
savitzky-golay :  disabled
FFT :  disabled
Running average :  disabled
Kalman :  disabled
High pass :  disabled
---------------BEGIN--------------------
Wavelength(nm)             Reflectance(%)
200.29               0
200.75        91.21031
201.21        83.03454
201.67        73.83879
202.13        69.18181
202.58        69.64132
203.04        74.02608
203.50        79.49232
203.96        81.12407
204.42        78.21223
204.88        73.04585
205.34        68.27759
205.80        66.41917
206.26          68.129
206.72        74.50513
207.18        88.37584
207.64        101.2855
208.10         94.1096
208.55        78.48806
209.01        68.22829
209.47        64.12247
209.93        63.47221
210.39        64.72694
210.85        66.66352
211.31         67.0915
211.77        65.26481
212.23        61.97301
212.69        58.99894
213.14        59.12306
213.60        62.53281
214.06        68.67656
214.52        75.05795
214.98        77.95003
215.44        76.63712
215.90        72.22077
216.36        67.55194
216.81        66.58715
217.27        69.81202
217.73        75.41952
218.19        80.31578
218.65        80.51173
219.11        74.72985
219.57        62.31266
220.02        44.58602
220.48        31.45774
220.94         29.5792
221.40        37.14865
221.86        46.20646
222.32        47.68917
222.77        41.98635
223.23        33.73817
223.69        26.88012
224.15           25.34
224.61        28.66484
225.06        34.66271
225.52        40.69019
225.98        43.69933
226.44        43.03259
226.90        40.05526
227.36        36.20697
227.81        33.32103
228.27        32.20499
228.73        32.13462
229.19        32.72408
229.65        33.44389
230.10        34.05864
230.56          34.668
231.02         35.3694
231.48        36.21933
231.93        37.18987
232.39        38.23452
232.85        39.09518
233.31        39.43077
233.77        39.17804
234.22        38.38012
234.68        37.47104
235.14         37.2125
235.60        37.84576
236.05        39.22306
236.51        40.75969
236.97        41.58065
237.43        41.56234
237.88        40.94394
238.34        40.41531
238.80        41.77278
239.26         45.7267
239.71        51.77934
240.17        58.36066
240.63        63.23174
241.08        65.66443
241.54        66.03793
242.00        65.38703
242.46        65.31794
242.91        66.90281
243.37        71.11354
243.83        84.70386
244.28        130.4865
244.74        184.7528
245.20        158.3932
245.66        132.9245
246.11        126.6883
246.57        132.6142
247.03        156.6106
247.48        225.6114
247.94        183.2109
248.40        107.6704
248.85        85.41979
249.31        79.28708
249.77        79.27567
250.22        82.89294
250.68        90.45578
251.14         101.981
251.59        110.6574
252.05        109.1819
252.51        100.2019
252.96        89.87627
253.42        84.74419
253.88        84.45139
254.33        86.50138
254.79        90.13205
255.25        93.75368
255.70        96.40904
256.16        98.82251
256.62        99.89572
257.07        98.37688
257.53        95.09749
257.99        90.32047
258.44        85.43375
258.90        83.09937
259.35        82.37392
259.81        82.43368
260.27        81.57396
260.72        78.14172
261.18        72.95983
261.63        66.72998
262.09        61.01323
262.55        56.88556
263.00        54.31582
263.46        52.88939
263.91        51.74966
264.37        50.29771
264.83        48.30322
265.28        45.88097
265.74        43.54753
266.19        41.83564
266.65        40.98086
267.11        40.65756
267.56        40.37343
268.02        39.53871
268.47        38.01908
268.93        36.02723
269.38        33.88628
269.84         32.3967
270.30        31.78341
270.75        31.81868
271.21        32.10046
271.66        32.02328
272.12         31.4115
272.57        30.45089
273.03        29.41754
273.48        28.63842
273.94        28.22676
274.39        28.02523
274.85        27.86341
275.31        27.49376
275.76        26.86169
276.22        26.09331
276.67         25.3374
277.13        24.88748
277.58        24.73798
278.04        24.80959
278.49        24.87782
278.95        24.69088
279.40        24.18074
279.86        23.49011
280.31        22.75204
280.77        22.27501
281.22        22.07339
281.68        22.06565
282.13        22.10864
282.59        22.03288
283.04        21.79969
283.50         21.5156
283.95        21.22123
284.41        20.98801
284.86        20.84307
285.32        20.77093
285.77        20.81549
286.22        21.10727
286.68        21.61163
287.13        22.23632
287.59        22.81301
288.04        23.08578
288.50        23.02803
288.95        22.71089
289.41        22.27362
289.86        21.82483
290.32         21.4859
290.77         21.2348
291.22        21.16049
291.68        21.35072
292.13        21.82277
292.59        22.56459
293.04        23.50892
293.50        24.53454
293.95        25.58086
294.40        26.64155
294.86        27.71648
295.31        28.82974
295.77        29.99563
296.22        31.20003
296.68        32.42751
297.13        33.62394
297.58        34.79644
298.04        35.98626
298.49        37.25417
298.95        38.74322
299.40        40.47018
299.85        42.38717
300.31        44.40451
300.76        46.37106
301.21         48.2049
301.67        49.96468
302.12        51.60723
302.58        53.18355
303.03        54.69376
303.48        56.15907
303.94        57.71088
304.39        59.48512
304.84        61.51283
305.30        63.74784
305.75        65.97612
306.20        67.89512
306.66        69.45865
307.11        70.69669
307.57        71.84407
308.02        73.13125
308.47        74.67098
308.93        76.39545
309.38        78.13271
309.83        79.66885
310.29        80.94011
310.74        81.98177
311.19        82.94043
311.65        84.03761
312.10        85.30581
312.55        86.68593
313.00        87.97848
313.46        88.86758
313.91        89.27206
314.36         89.3159
314.82        89.28117
315.27        89.54185
315.72         90.2281
316.18        91.23298
316.63        92.35681
317.08        93.22256
317.53        93.71703
317.99        93.93475
318.44        94.09275
318.89        94.54723
319.35        95.35137
319.80        96.41254
320.25        97.42848
320.70        97.90934
321.16        97.75224
321.61         97.1287
322.06        96.38217
322.51        96.04842
322.97        96.24005
323.42        96.84052
323.87        97.59148
324.32        98.04714
324.78        98.06396
325.23        97.82532
325.68        97.49584
326.13        97.36929
326.59        97.51242
327.04        97.85631
327.49        98.30426
327.94         98.7388
328.39        99.10799
328.85        99.43353
329.30        99.77363
329.75        100.0424
330.20        100.2567
330.66        100.4252
331.11        100.6802
331.56        101.1618
332.01         101.916
332.46        102.8741
332.92        103.9454
333.37        105.1621
333.82        106.3716
334.27         107.558
334.72        108.5166
335.17        108.9311
335.63        108.7651
336.08         108.179
336.53        107.4902
336.98        107.2595
337.43        107.6415
337.88        108.4838
338.34        109.5853
338.79        110.6929
339.24        111.6405
339.69        112.5284
340.14        113.2455
340.59        113.6022
341.05        113.5988
341.50        113.2528
341.95        112.8642
342.40        112.9209
342.85        113.5196
343.30        114.5453
343.75        115.6761
344.20        116.3296
344.66        116.3622
345.11         115.933
345.56        115.3515
346.01        115.0885
346.46        115.2606
346.91        115.7107
347.36        116.2323
347.81        116.5134
348.26        116.4783
348.72        116.2602
349.17        115.9761
349.62        115.8558
350.07        115.9556
350.52        116.1749
350.97        116.4241
351.42         116.579
351.87        116.5986
352.32        116.5359
352.77        116.3872
353.22        116.1422
353.67         115.818
354.13        115.4259
354.58        115.0181
355.03        114.7448
355.48        114.6228
355.93         114.608
356.38         114.577
356.83        114.3298
357.28        113.8175
357.73        113.0975
358.18        112.2777
358.63        111.5308
359.08         110.911
359.53        110.3796
359.98        109.8583
360.43        109.2244
360.88        108.4441
361.33        107.5454
361.78        106.6318
362.23        105.8656
362.68        105.2855
363.13        104.8607
363.58        104.4263
364.03        103.7199
364.48        102.7028
364.93        101.4579
365.38        100.2316
365.83        99.42281
366.28        99.10191
366.73        99.11887
367.18        99.20174
367.63        98.90746
368.08        98.13393
368.53        97.06236
368.98        95.86651
369.43         94.7999
369.88        93.95455
370.33        93.23983
370.78        92.69755
371.23        92.40635
371.68        92.34595
372.13        92.49805
372.58         92.6756
373.03        92.54938
373.48        92.04663
373.93        91.26213
374.38        90.38292
374.83        89.70728
375.28        89.30798
375.72        89.07658
376.17        88.93707
376.62        88.74102
377.07        88.42535
377.52        88.02819
377.97        87.54871
378.42        86.98051
378.87        86.35069
379.32        85.68851
379.77        85.01019
380.22         84.3343
380.67         83.6666
381.11        82.99787
381.56        82.39983
382.01        81.99233
382.46        81.79811
382.91        81.80106
383.36         81.8246
383.81        81.58804
384.26        81.04341
384.71        80.26161
385.15        79.47401
385.60        79.10439
386.05        79.16719
386.50        79.52174
386.95        79.86508
387.40        79.69353
387.85          78.949
388.29         77.8411
388.74        76.77592
389.19        76.01417
389.64        75.60197
390.09        75.38452
390.54        75.35308
390.98        75.49617
391.43        75.75539
391.88        76.11604
392.33        76.34454
392.78        76.05719
393.23        75.26373
393.67         74.1816
394.12        73.21905
394.57        72.52056
395.02        72.29542
395.47        72.76637
395.91        73.74838
396.36        74.39704
396.81        74.53471
397.26        74.48009
397.71        74.30029
398.15        73.89007
398.60         73.3832
399.05        72.93355
399.50        72.54121
399.95        71.72735
400.39        70.96849
400.84        70.68844
401.29        70.92042
401.74        71.01012
402.18        70.88963
402.63        70.78062
403.08        70.79553
403.53        71.01501
403.97        71.43309
404.42        71.94394
404.87        72.33504
405.32         72.2755
405.76        71.70701
406.21        70.85675
406.66        69.97421
407.11        69.35999
407.55         69.1797
408.00        69.42213
408.45        69.93285
408.90         70.4549
409.34        70.68627
409.79        70.16402
410.24        69.19299
410.68        68.75204
411.13        68.94681
411.58        69.23383
412.03        69.52142
412.47        69.88525
412.92        70.21202
413.37        70.51615
413.81        70.69943
414.26         70.6544
414.71          70.361
415.15         69.8419
415.60        69.27867
416.05        68.98595
416.49        69.04308
416.94        69.39149
417.39        69.79002
417.83        69.80541
418.28        69.36338
418.73        68.61369
419.17        67.88577
419.62        67.69928
420.07        68.11412
420.51        68.94744
420.96        69.86667
421.41        70.27557
421.85        70.00622
422.30        69.47384
422.74        68.84618
423.19        68.21714
423.64        67.75568
424.08        67.96336
424.53        68.69859
424.98        69.17778
425.42        69.27224
425.87        69.61134
426.31         70.1234
426.76        69.92962
427.21        69.31834
427.65        69.64336
428.10        70.75733
428.54        71.57808
428.99        72.04439
429.44        72.06339
429.88        71.79317
430.33        72.84781
430.77         74.3617
431.22        73.02786
431.66        69.61082
432.11        68.03193
432.56         68.5692
433.00        69.39326
433.45        70.40472
433.89         72.2066
434.34        73.30372
434.78         75.3671
435.23        71.90282
435.67        69.08579
436.12        71.42346
436.57        72.40752
437.01        73.37036
437.46        73.71225
437.90         73.6115
438.35        73.10524
438.79        73.67466
439.24         73.6294
439.68        73.43792
440.13         73.0886
440.57        72.90133
441.02        73.80888
441.46        75.39027
441.91        76.20507
442.35        76.03664
442.80        75.16717
443.24         74.0473
443.69        74.69131
444.13        76.65658
444.58        76.62511
445.02        74.83158
445.47        74.48352
445.91        75.54007
446.36        75.89437
446.80        75.49317
447.24        75.45484
447.69         75.8026
448.13        76.09844
448.58        76.32267
449.02        76.53404
449.47        76.73631
449.91        76.91205
450.36        77.05061
450.80        77.24641
451.25        77.41906
451.69         77.1404
452.13        76.56441
452.58        76.36598
453.02        76.55566
453.47        76.67156
453.91        76.68822
454.36        76.90525
454.80         77.2482
455.24        77.32812
455.69        77.11163
456.13        76.86305
456.58        76.66734
457.02        76.13815
457.46        75.54372
457.91         75.7274
458.35         76.4696
458.79        76.75731
459.24        76.55946
459.68         76.2791
460.13        75.96684
460.57        75.73966
461.01        75.75304
461.46        74.69135
461.90        74.75312
462.34         74.8344
462.79        74.28163
463.23        74.44592
463.68        74.88932
464.12        75.53426
464.56        76.07738
465.01        76.13285
465.45        75.64677
465.89         75.1451
466.34        74.66707
466.78        73.74452
467.22        72.88108
467.67        72.26147
468.11        73.82433
468.55        74.41601
468.99         74.3601
469.44        73.95831
469.88        73.45148
470.32        73.49677
470.77        73.97417
471.21        73.99386
471.65        73.50634
472.10        73.20084
472.54        73.15157
472.98        73.13556
473.42        73.14858
473.87        73.37826
474.31        73.66882
474.75        73.55529
475.20        73.14289
475.64        73.02529
476.08        73.24438
476.52        73.22557
476.97        72.93832
477.41        72.97592
477.85        73.46301
478.29        72.74789
478.74         73.8101
479.18        73.75705
479.62        72.56175
480.06        73.03727
480.50        73.34637
480.95        73.75114
481.39        73.79311
481.83        72.53152
482.27        73.07769
482.72        72.53336
483.16        71.43979
483.60        71.71329
484.04         73.1541
484.48         73.7497
484.93        73.96347
485.37        74.95077
485.81        75.01974
486.25        74.58115
486.69        100.6507
487.14        81.47481
487.58        50.60547
488.02        62.72437
488.46        70.50718
488.90        70.06166
489.34        72.16728
489.79        71.03978
490.23        73.23484
490.67        73.97591
491.11        72.98028
491.55        72.93449
491.99        73.40978
492.43        73.22813
492.88        72.48343
493.32        72.49272
493.76        72.71809
494.20        72.99464
494.64        73.05839
495.08         73.1663
495.52        73.35905
495.96        73.27265
496.41        72.90992
496.85        73.33204
497.29        74.23911
497.73         72.9833
498.17        70.65715
498.61        71.00782
499.05        73.94943
499.49        74.46423
499.93        74.16421
500.37         73.7548
500.82        73.21867
501.26        73.44088
501.70        74.10537
502.14        74.45444
502.58        74.31023
503.02        74.18541
503.46        74.07106
503.90        73.60798
504.34        72.98741
504.78        72.69271
505.22        72.77873
505.66        73.17014
506.10        73.69492
506.54        73.85069
506.98        73.50002
507.42        73.60984
507.86         72.8764
508.30        72.75901
508.74        72.88205
509.18        73.19437
509.62        73.53201
510.06        73.66483
510.50        73.54926
510.94        73.25775
511.38        72.93839
511.82        72.81177
512.26        72.93239
512.70        73.22604
513.14        73.57544
513.58        73.79385
514.02        73.82037
514.46        73.70663
514.90        73.53957
515.34        73.44059
515.78        73.43389
516.22        73.53385
516.66        73.67113
517.10        73.58474
517.54        73.25416
517.98        73.28396
518.42        72.98266
518.86        73.01543
519.30         73.1694
519.74        73.45682
520.18        73.79922
520.62        74.06461
521.06        74.21749
521.50        74.29183
521.93        74.28699
522.37        74.20165
522.81        74.05895
523.25        73.86607
523.69        73.70296
524.13        73.66407
524.57         73.7624
525.01        74.02548
525.45        74.38461
525.89        74.41851
526.32        74.55956
526.76        74.45801
527.20        74.30612
527.64        74.19195
528.08        74.16456
528.52        74.12775
528.96        74.02193
529.40        73.97909
529.83        74.02924
530.27        73.39182
530.71        73.56654
531.15        73.45824
531.59        73.51694
532.03        73.67515
532.46        73.92001
532.90        74.19492
533.34        74.45121
533.78        74.69084
534.22        74.87255
534.66        74.94656
535.09        74.89479
535.53        74.75848
535.97        74.55596
536.41        74.34346
536.85        74.15154
537.28        73.97935
537.72        73.84314
538.16        73.77798
538.60        73.78706
539.04        73.80513
539.47        73.80255
539.91        73.92873
540.35        74.08738
540.79        73.98003
541.22        73.66656
541.66        73.52946
542.10        73.58382
542.54         73.6519
542.97        73.70971
543.41        73.74187
543.85        73.77467
544.29        74.02615
544.72        74.34841
545.16        74.36047
545.60        74.02267
546.04        73.49827
546.47        73.02336
546.91        72.93843
547.35        73.29207
547.79         74.0039
548.22          74.731
548.66        74.89426
549.10        74.41644
549.53        73.59093
549.97        72.80528
550.41        72.40068
550.84        72.48099
551.28         73.1272
551.72        74.12506
552.15         74.1048
552.59        74.47254
553.03          74.153
553.46        73.75797
553.90        73.55689
554.34           73.63
554.77        73.77538
555.21        73.88018
555.65        74.07284
556.08        74.33902
556.52        73.70551
556.96        73.96152
557.39        73.82827
557.83        73.87263
558.27        73.99319
558.70        74.14513
559.14        74.29964
559.57          74.409
560.01        74.35029
560.45        74.19569
560.88        74.38851
561.32        74.78613
561.75        74.61309
562.19         74.0062
562.63        73.49876
563.06        73.25385
563.50        73.44162
563.93        73.90027
564.37        74.09112
564.80          73.937
565.24        73.81193
565.68        73.75204
566.11        73.67912
566.55         73.6597
566.98        73.64084
567.42        73.65554
567.85        73.87155
568.29        74.27175
568.72           74.35
569.16         74.2757
569.60        74.68436
570.03         75.2177
570.47        75.06404
570.90        74.58599
571.34        73.04834
571.77        73.87186
572.21        74.24802
572.64        73.81712
573.08        72.62296
573.51        69.33086
573.95        71.87344
574.38         76.3865
574.82        74.45399
575.25        73.73639
575.69        71.60495
576.12         70.4405
576.56          69.613
576.99         71.6141
577.42        74.54008
577.86        74.58983
578.29        73.75478
578.73        77.71733
579.16        71.67499
579.60        65.43291
580.03        68.41765
580.47        72.94143
580.90        74.54271
581.33        73.40144
581.77        72.37052
582.20        79.54092
582.64        79.25396
583.07        67.48843
583.51         66.2569
583.94        65.19894
584.37        68.19565
584.81         71.6556
585.24        75.41595
585.68        77.10482
586.11        76.09621
586.54        70.58662
586.98        68.57066
587.41        69.34944
587.85        72.88139
588.28        75.23928
588.71        71.80089
589.15        69.31207
589.58         70.7271
590.01        71.09808
590.45         72.2523
590.88        73.04906
591.31        72.38197
591.75        71.94729
592.18        72.09126
592.61        73.82761
593.05        73.75404
593.48        77.15552
593.91        77.67974
594.35        71.40289
594.78        70.04493
595.21         69.7376
595.65        72.81339
596.08        75.51542
596.51        72.16296
596.94        70.67599
597.38        71.43041
597.81        74.23667
598.24        75.79756
598.68         74.3425
599.11        73.23554
599.54        75.95947
599.97        77.66636
600.41        72.12009
600.84         72.2794
601.27        73.80569
601.70        72.79215
602.14        72.94827
602.57        71.73335
603.00        72.23035
603.43         74.0805
603.87        75.23973
604.30        75.43781
604.73        73.47987
605.16        71.70983
605.60        72.71899
606.03        73.70953
606.46        74.78696
606.89        74.67292
607.32        72.18477
607.76        72.18809
608.19        74.50427
608.62        73.55025
609.05        72.19697
609.48        72.82867
609.92        72.94192
610.35        72.49657
610.78        74.75574
611.21        75.07869
611.64        72.00953
612.07        72.77299
612.50        73.26411
612.94          73.633
613.37        72.70744
613.80        73.51435
614.23        73.69875
614.66        73.39939
615.09        73.95504
615.52        73.92001
615.96         73.7282
616.39        73.77321
616.82        72.84989
617.25        72.51133
617.68        73.31136
618.11        73.90758
618.54        74.27982
618.97        73.76952
619.40        72.79769
619.84        72.66215
620.27        73.83318
620.70        74.43631
621.13        74.46531
621.56         73.9508
621.99        73.17703
622.42        74.08771
622.85        75.88151
623.28        75.59238
623.71        74.71753
624.14        74.83314
624.57        74.25298
625.00        74.26839
625.43        74.30787
625.86        73.82458
626.29        74.21582
626.72        74.53722
627.15        74.38213
627.58        74.45225
628.01        74.51989
628.44        74.54629
628.87        74.56688
629.30        74.73975
629.73        74.95673
630.16        75.16775
630.59        74.78748
631.02        74.47427
631.45        74.16856
631.88        73.91458
632.31        73.73625
632.74        73.87164
633.17        73.84856
633.60        73.95582
634.03         74.0359
634.46        74.12413
634.89        74.19626
635.32        74.22161
635.75        74.20244
636.18        74.13012
636.61        74.06019
637.04        74.09024
637.47        74.23351
637.89        74.46986
638.32        74.69345
638.75        74.77864
639.18        74.69073
639.61        74.47558
640.04        74.20518
640.47        73.99206
640.90        73.87717
641.33        73.82922
641.76        73.79977
642.18        73.81445
642.61        73.85831
643.04        73.76505
643.47        73.51572
643.90        74.03378
644.33        73.79207
644.76        73.99808
645.18        74.14961
645.61        74.19474
646.04        74.10685
646.47        73.90792
646.90        73.69913
647.33        73.62305
647.75        73.74284
648.18        73.95982
648.61        74.12699
649.04        74.27724
649.47        74.25488
649.89        73.41801
650.32        72.25625
650.75        72.17044
651.18        73.13346
651.61         74.0682
652.03        74.48483
652.46        74.34393
652.89         74.0725
653.32        73.19249
653.74        72.11137
654.17        74.18639
654.60        74.85345
655.03        72.14153
655.46        73.48689
655.88         77.3046
656.31        82.18934
656.74        184.3419
657.16        119.2826
657.59        41.85266
658.02        31.97774
658.45        55.61608
658.87        71.16575
659.30        74.48834
659.73         73.3969
660.15        70.87612
660.58        73.74487
661.01        75.64016
661.44        73.10867
661.86        72.26489
662.29        72.29304
662.72        73.09502
663.14         74.3999
663.57        74.32296
664.00        73.12846
664.42        72.87131
664.85        73.62653
665.27         74.0498
665.70        73.94491
666.13        73.77115
666.55        73.51684
666.98        73.03914
667.41        72.52255
667.83        72.33043
668.26        72.53365
668.69        72.98943
669.11        73.44442
669.54        73.84949
669.96        73.43539
670.39        72.88552
670.82        72.24881
671.24        71.95956
671.67        72.14351
672.09        72.64886
672.52         73.1673
672.94        73.72622
673.37        73.04601
673.80         72.8493
674.22        72.83536
674.65        72.74928
675.07        72.58826
675.50         72.3713
675.92        72.18404
676.35         72.1958
676.77        72.42449
677.20        72.74129
677.62        73.06096
678.05        73.24752
678.47        73.24962
678.90        73.11924
679.32        72.94523
679.75        72.73463
680.17        72.81223
680.60        72.91193
681.02        73.02341
681.45        72.97072
681.87        72.73788
682.30        72.37685
682.72        72.04212
683.15        71.99361
683.57         72.2902
684.00        72.75673
684.42        73.34734
684.85        73.63113
685.27        73.56345
685.70        73.24985
686.12        72.82973
686.54        72.57514
686.97        72.54369
687.39         72.6628
687.82        72.82193
688.24         72.9231
688.66        72.89356
689.09        72.72487
689.51        72.52958
689.94        72.50998
690.36        72.70773
690.78         73.0201
691.21         73.3398
691.63        73.52551
692.06        73.53582
692.48        73.42249
692.90        73.26368
693.33        73.16748
693.75        73.17162
694.17        73.25065
694.60        73.36566
695.02        73.45342
695.44        73.46074
695.87        73.53185
696.29        73.68933
696.71        73.52834
697.14        73.18794
697.56        73.60421
697.98        74.55552
698.41        74.31413
698.83        73.66108
699.25        73.30286
699.68        73.48831
700.10        73.49306
700.52        73.31721
700.94        73.36557
701.37        73.60211
701.79          73.858
702.21        74.06461
702.64        74.27659
703.06        74.41774
703.48         74.3564
703.90        74.09553
704.33        73.68008
704.75        73.22971
705.17        73.02753
705.59        73.14282
706.01        73.37604
706.44        73.59859
706.86        74.22053
707.28        74.19128
707.70        74.37067
708.12         74.4557
708.55        74.32561
708.97        74.02844
709.39        73.84145
709.81        73.82422
710.23        73.82173
710.66        73.84615
711.08        74.06164
711.50        74.34048
711.92        74.41378
712.34        74.24075
712.76        73.88627
713.19        73.51614
713.61        73.43393
714.03        73.68654
714.45        74.17574
714.87        74.68143
715.29        74.85569
715.71        74.62568
716.13        74.11334
716.56        73.51988
716.98        73.20093
717.40        73.24607
717.82        73.54169
718.24         73.9565
718.66        74.26759
719.08        74.39465
719.50        74.40627
719.92        74.32567
720.34        74.20982
720.76        74.09347
721.19        73.83382
721.61        73.71106
722.03         73.6692
722.45        73.78975
722.87        74.04262
723.29        74.35238
723.71        74.57835
724.13         74.6729
724.55        74.66723
724.97        74.60246
725.39          74.554
725.81        74.54578
726.23        74.55296
726.65        74.55779
727.07        74.53281
727.49         74.4789
727.91        74.42534
728.33        74.38902
728.75        74.39152
729.17        74.43665
729.59        74.50217
730.01        74.60549
730.43        74.76743
730.85        74.98299
731.27        75.26704
731.69        75.52109
732.10        75.56476
732.52        75.36913
732.94        75.03223
733.36        74.73047
733.78        74.61143
734.20        74.71936
734.62        75.30599
735.04         76.1619
735.46        76.09885
735.88        75.37228
736.30        75.70011
736.72         76.9969
737.13        77.48067
737.55         76.8973
737.97        76.68047
738.39        76.90504
738.81        76.18193
739.23        74.97777
739.65        75.87167
740.06        78.31239
740.48        78.63705
740.90        76.92494
741.32        76.14267
741.74        76.57558
742.16        76.79824
742.57        76.86868
742.99        77.58926
743.41        78.71188
743.83        79.36974
744.25        79.41167
744.67         79.0636
745.08        78.58887
745.50        78.41194
745.92        78.66542
746.34        79.19945
746.75        79.81598
747.17        80.18603
747.59        80.24181
748.01        80.08745
748.42         79.9235
748.84        80.06125
749.26        80.57534
749.68        81.28777
750.09        82.00316
750.51        82.52122
750.93        82.71526
751.35        82.37173
751.76        81.69679
752.18        81.42707
752.60        81.56813
753.01        81.51009
753.43        81.27478
753.85        81.37656
754.27        81.83905
754.68        82.43212
755.10        83.01476
755.52        83.51947
755.93        83.87003
756.35        84.01411
756.77        84.05625
757.18        84.11714
757.60        84.23399
758.02        84.60706
758.43        84.93541
758.85        84.64217
759.26        83.01118
759.68        82.88719
760.10        83.84348
760.51        84.25096
760.93        83.81162
761.34        83.11414
761.76        82.48103
762.18        82.01142
762.59        81.98579
763.01        82.17809
763.42        83.40085
763.84        84.12121
764.26        84.46276
764.67        84.65061
765.09        84.63197
765.50        84.35851
765.92        83.80522
766.33        82.46841
766.75        80.88931
767.16        80.48564
767.58        81.39596
768.00        83.07857
768.41        85.07652
768.83        86.37922
769.24        86.48663
769.66        85.66189
770.07        84.42401
770.49        82.87336
770.90        81.52574
771.32        82.54899
771.73        85.18378
772.15        84.80396
772.56         81.8565
772.97         81.1739
773.39        82.71439
773.80        83.18621
774.22        82.40862
774.63        82.38723
775.05        83.04799
775.46        83.42171
775.88        83.38192
776.29         83.2008
776.70        82.98166
777.12        82.92193
777.53        83.08369
777.95        83.34055
778.36        83.54441
778.77        83.44509
779.19        83.04319
779.60        82.43202
780.02        81.85273
780.43        81.75574
780.84        82.27747
781.26        82.83112
781.67        83.32475
782.09        84.53938
782.50        85.88698
782.91        84.91063
783.33         82.3633
783.74        81.50594
784.15        82.50955
784.57        83.36031
784.98        83.64829
785.39        83.50402
785.81        82.95628
786.22        82.37782
786.63        82.07568
787.04        82.11806
787.46        82.56402
787.87        83.54956
788.28        84.71048
788.70        85.26072
789.11        85.04051
789.52         84.3064
789.93           83.42
790.35         82.8867
790.76        82.85062
791.17        83.21378
791.58        83.73728
792.00        83.97812
792.41        83.81661
792.82        83.38577
793.23        83.00018
793.65        82.82732
794.06        83.03014
794.47        84.28448
794.88        85.83627
795.29        85.39674
795.71        83.21003
796.12        81.26306
796.53        80.17285
796.94         79.7691
797.35        80.17638
797.76        81.44212
798.18        82.98042
798.59         83.9632
799.00        84.02586
799.41        83.23354
799.82        82.03622
800.23        81.31178
800.64        81.26634
801.06        81.55227
801.47        82.03661
801.88        82.38902
802.29         82.4863
802.70        82.48071
803.11        82.41238
803.52        82.31144
803.93        82.21774
804.34        82.07047
804.75        81.96827
805.17        82.14939
805.58        82.67256
805.99        83.25617
806.40         83.6756
806.81        84.06667
807.22        84.10209
807.63        82.75481
808.04        80.62734
808.45        79.64581
808.86        80.03227
809.27        80.89951
809.68        81.85796
810.09        82.52222
810.50        82.66084
810.91          82.407
811.32        81.95028
811.73         81.6022
812.14        81.45926
812.55        81.36636
812.96        81.34994
813.37        81.46941
813.78        81.70927
814.19         82.1257
814.60          82.452
815.01        82.25436
815.42        81.48414
815.83        80.22643
816.24        78.98187
816.65        78.63167
817.05        79.42146
817.46        81.05791
817.87        82.86277
818.28        83.62646
818.69        83.02492
819.10        81.36975
819.51        79.42688
819.92        78.49867
820.33         78.9313
820.74        80.32294
821.14        81.97755
821.55        82.67271
821.96        82.12351
822.37        80.73368
822.78        79.10989
823.19        78.16712
823.60        78.14848
824.00        78.79487
824.41        79.71754
824.82        80.39322
825.23        80.58103
825.64        80.48032
826.04        80.23035
826.45        80.01921
826.86        79.91306
827.27        79.79965
827.68        79.70023
828.08        79.71544
828.49        79.79311
828.90        79.99823
829.31        80.20364
829.72        80.15387
830.12         79.8287
830.53        79.28667
830.94        78.79767
831.35        78.73045
831.75         79.1907
832.16        80.00777
832.57         80.9639
832.97        81.59504
833.38        81.67496
833.79        81.34606
834.20        80.84708
834.60        80.53817
835.01        80.54468
835.42        80.74823
835.82        80.99297
836.23        80.93922
836.64        80.55059
837.04        79.96457
837.45        79.38584
837.86        79.13477
838.26         79.2906
838.67        79.69997
839.08         80.2075
839.48        80.52995
839.89        80.53539
840.29        80.33922
840.70        79.99153
841.11        79.54415
841.51        79.05729
841.92        78.49912
842.33        78.01924
842.73        77.87801
843.14         78.0826
843.54        78.60215
843.95        79.18046
844.35        79.44671
844.76        79.28638
845.17        78.81969
845.57        78.24469
845.98        77.88207
846.38        77.82072
846.79        77.94355
847.19        78.17513
847.60        78.29092
848.00        78.26244
848.41        78.13895
848.81        78.01488
849.22         77.9465
849.62        78.00748
850.03        78.17632
850.43          78.449
850.84        78.72966
851.24        79.02312
851.65        79.15826
852.05        79.34626
852.46        79.75481
852.86        80.39651
853.27         81.2446
853.67        81.72253
854.07        81.07467
854.48        79.32581
854.88        76.75639
855.29        74.28806
855.69        73.25059
856.10         73.9015
856.50          76.062
856.90          78.915
857.31        80.57055
857.71         80.4243
858.12        78.96492
858.52        77.07118
858.92        75.90193
859.33        75.71219
859.73         76.1783
860.13        77.07362
860.54        77.92467
860.94        78.58354
861.34        79.18082
861.75        79.68893
862.15        80.14602
862.55        80.52299
862.96        80.72086
863.36        80.83223
863.76         81.0099
864.17        81.28182
864.57        81.68169
864.97        82.06323
865.38        82.17754
865.78        82.04254
866.18        81.66432
866.58        81.29781
866.99        81.36044
867.39        82.00709
867.79        83.15479
868.19        84.34185
868.60        84.69328
869.00        83.99387
869.40        82.49136
869.80        80.99083
870.21        80.75889
870.61        82.16673
871.01        84.80639
871.41        87.78487
871.81        89.57985
872.22         89.7514
872.62        88.75883
873.02         87.3624
873.42        86.87435
873.82        87.48829
874.22        88.58837
874.63        89.80017
875.03        90.39492
875.43        89.98843
875.83        89.49423
876.23         88.1778
876.63         87.8964
877.03          88.759
877.44        91.06718
877.84        101.5416
878.24        97.87904
878.64        97.08406
879.04        95.24173
879.44        91.20411
879.84        89.16128
880.24        92.37151
880.64        94.66656
881.04        96.52364
881.44        97.38748
881.84        96.27753
882.24        93.76192
882.65        91.30922
883.05        90.48827
883.45        91.54833
883.85        94.26137
884.25        97.56052
884.65        99.30661
885.05        98.84695
885.45        96.93323
885.85        94.68934
886.25        93.64594
886.65        94.13091
887.05        95.60841
887.45        97.50648
887.85        98.81702
888.25        99.15195
888.65        98.89573
889.04        98.25555
889.44        97.57373
889.84        96.99907
890.24        96.37272
890.64        95.87923
891.04         95.8444
891.44         96.2793
891.84        97.14233
892.24        98.04198
892.64        98.22653
893.04         97.5859
893.44        96.45273
893.83        95.30459
894.23        94.84942
894.63        95.21311
895.03        96.09834
895.43        97.39506
895.83        98.87012
896.23        100.2992
896.63        101.7432
897.02         102.703
897.42        102.3816
897.82        100.7676
898.22        98.18238
898.62        95.57887
899.01        94.36635
899.41        94.83311
899.81        96.48995
900.21        98.62142
900.61        100.0385
901.00        100.3592
901.40        99.96032
901.80        99.14153
902.20        98.36812
902.59        97.83412
902.99        97.37115
903.39        96.99943
903.79        96.78951
904.18        96.75544
904.58        96.96933
904.98        97.38758
905.38        97.90089
905.77        98.41827
906.17        98.89636
906.57        99.28082
906.96        99.56493
907.36        99.68243
907.76        99.65112
908.15        99.41284
908.55        98.77804
908.95         97.8081
909.34        96.55412
909.74        95.36003
910.14        94.56145
910.53        94.28304
910.93        94.52216
911.33        95.08331
911.72        95.60698
912.12         95.8917
912.52        95.95332
912.91        96.04736
913.31         96.5498
913.70        97.57097
914.10        99.04852
914.49        100.4779
914.89         100.523
915.29        98.85492
915.68        96.00644
916.08        93.35692
916.47        92.20179
916.87        92.66223
917.26        94.32481
917.66        96.27158
918.05        97.00841
918.45        96.15182
918.84        94.25402
919.24        92.24107
919.64        91.45497
920.03        92.24751
920.42        94.15618
920.82        96.53968
921.21        98.41782
921.61         99.2206
922.00        99.27771
922.40        98.74525
922.79        97.81989
923.19        96.68783
923.58        95.25019
923.98        93.64803
924.37        92.49513
924.77        92.22541
925.16        91.14336
925.55        92.25455
925.95        93.26249
926.34         94.9434
926.74        96.94084
927.13        98.78193
927.52        99.44629
927.92        98.83741
928.31        97.25685
928.70         95.2172
929.10        93.62414
929.49        92.71273
929.89         92.2711
930.28        92.33927
930.67        92.96453
931.07        93.94753
931.46         95.3791
931.85        96.63761
932.24        96.78825
932.64        95.70279
933.03         93.4858
933.42        90.80186
933.82        89.16305
934.21        88.95672
934.60        89.78322
934.99        90.86456
935.39        91.33095
935.78        91.05164
936.17        89.99261
936.56        88.08206
936.96        88.23566
937.35        87.25184
937.74        87.73396
938.13        88.37364
938.53        89.23293
938.92        90.32604
939.31        91.82035
939.70        93.31823
940.09        93.65762
940.49         92.5424
940.88        90.45068
941.27         88.3645
941.66        87.45918
942.05        87.86078
942.44        89.20442
942.84        90.94865
943.23        92.20652
943.62        92.56207
944.01        92.26335
944.40        91.58819
944.79        90.96346
945.18        90.52582
945.57        90.11282
945.97        89.60811
946.36        88.89286
946.75         88.0748
947.14        87.36993
947.53        86.93179
947.92        86.81253
948.31         86.9865
948.70        87.45965
949.09        88.09098
949.48        88.55179
949.87         88.6785
950.26        88.46054
950.65        88.22231
951.04        88.50383
951.43         89.3778
951.82        90.67552
952.21        91.79312
952.60        91.76615
952.99        90.43629
953.38        88.16657
953.77        85.76434
954.16        84.39389
954.55        84.30466
954.94        85.20741
955.33        86.39888
955.72        86.68391
956.11        85.75249
956.50        83.94026
956.89         82.0321
957.28        81.46317
957.66        82.71924
958.05        85.10128
958.44        87.73403
958.83        89.32816
959.22        89.53489
959.61         88.7087
960.00        87.33949
960.39        86.21853
960.78        85.62187
961.16         85.3497
961.55        85.11777
961.94        84.49646
962.33        83.43298
962.72        82.20007
963.11        81.15562
963.49        80.70263
963.88        80.89744
964.27        81.66357
964.66        82.69979
965.04        83.37614
965.43        83.35142
965.82        82.83051
966.21        82.28519
966.60        82.38352
966.98        83.23289
967.37        84.55846
967.76         85.8883
968.15        86.31182
968.53        85.58416
968.92        84.05907
969.31        82.28277
969.69        80.91882
970.08        80.15852
970.47        79.85806
970.86        79.83818
971.24         79.7969
971.63         79.6188
972.02        79.37577
972.40        79.33756
972.79        79.91183
973.17        81.27368
973.56        83.17884
973.95        85.00829
974.33        85.62038
974.72        84.68747
975.11        82.60219
975.49        80.43139
975.88        79.64716
976.26        80.46114
976.65        82.61744
977.04        85.11697
977.42        85.49203
977.81        82.91747
978.19        78.41296
978.58        74.27643
978.96        72.86623
979.35         74.5261
979.74        78.74549
980.12         84.4519
980.51        88.02128
980.89         88.2395
981.28        86.05607
981.66        83.07185
982.05        81.33043
982.43        81.17481
982.82        81.89238
983.20        83.04828
983.59        84.13341
983.97        85.01371
984.35        85.88834
984.74        86.52505
985.12        86.74958
985.51        86.26132
985.89        85.03429
986.28        83.20332
986.66        80.89258
987.04        78.62463
987.43        76.72788
987.81        75.29321
988.20        74.26747
988.58        73.50616
988.96        72.77203
989.35        72.57757
989.73         74.4558
990.12        78.38188
990.50        83.19038
990.88        86.28303
991.27        86.08511
991.65        83.15928
992.03        78.01086
992.42        72.47369
992.80        69.93188
993.18         71.3698
993.56        74.91884
993.95        78.88476
994.33        81.83489
994.71        83.34684
995.10        84.24162
995.48         84.2613
995.86        82.75735
996.24        79.67048
996.63        74.68182
997.01        69.17413
997.39        67.26987
997.77        70.66893
998.15        78.39285
998.54        86.57468
998.92        89.91434
999.30        86.90655
999.68         78.8606
1000.06        68.06304
1000.45        60.21351
1000.83        57.76128
1001.21        58.90212
1001.59        61.95473
1001.97        65.13802
1002.35        67.97573
1002.73        71.52244
1003.12        74.88149
1003.50        75.04635
1003.88        70.93309
1004.26        64.04176
1004.64        57.54756
1005.02        54.11031
1005.40        53.86381
1005.78        56.67247
1006.16        63.21735
1006.54        70.87762
1006.92        74.98531
1007.30          75.583
1007.69        74.83615
1008.07        74.77078
1008.45        75.72703
1008.83         77.8653
1009.21        80.26878
1009.59        71.87018
1009.97        14.88412
1010.35       -107.8006
1010.73       -127.8013
1011.11       -66.77838
1011.49       -12.17608
1011.86        29.05213
1012.24        52.79266
1012.62        61.67857
1013.00        60.84004
1013.38        52.47417
1013.76        39.62793
1014.14        34.88521
1014.52        49.76232
1014.90        88.26865
1015.28        139.0149
1015.66        164.5412
1016.04        143.2921
1016.41        84.58349
1016.79        25.14297
1017.17        2.947199
1017.55        10.86852
1017.93        27.93981
1018.31        44.06863
1018.69         54.5618
1019.06        60.51381
1019.44         64.3381
1019.82        68.07418
1020.20        75.08926
1020.58        89.38328
1020.95        116.1601
1021.33        158.5167
1021.71       -153.0664
1022.09        121.0692
1022.46        144.5127
1022.84        157.1155
1023.22        169.5584
1023.60        194.6071
1023.97        424.6923
1024.35        38.70639
1024.73         82.2712
