SpectraSmart Spectrum 2.9.0.0
--------- Device Information -----------
Spectrum Name :  反射率_0
Saving Time :  2024/04/26 01:07:24
Spectro-Module Model Name : SE2030-DUVN
Spectro-Module Serial Number : OS361AC55029948
Wavelength Start : 200
Wavelength End : 1025
Wavelength Unit : Wavelength(nm)
Spectrum Unit : Reflectance(%)
-----------Spectrum Setting ------------
Integration Time : 20ms
Average : 10
Boxcar : 0
Background removal :  enabled
linearity correction :  enabled
SC :  disabled
Intensity correction :  disabled
DWT denoise :  enabled
savitzky-golay :  disabled
FFT :  disabled
Running average :  disabled
Kalman :  disabled
High pass :  disabled
---------------BEGIN--------------------
Wavelength(nm)             Reflectance(%)
200.29               0
200.75        86.33694
201.21        79.91659
201.67        73.04086
202.13        69.17252
202.58        68.69149
203.04        71.22536
203.50        74.95899
203.96        76.67294
204.42        75.77845
204.88        73.43006
205.34        71.72668
205.80        73.23864
206.26        79.46044
206.72         93.8779
207.18        122.4899
207.64        149.0635
208.10        135.3891
208.55        103.2237
209.01        82.09377
209.47        74.09852
209.93        73.61578
210.39        77.61871
210.85        83.14971
211.31        84.32865
211.77        79.35949
212.23        70.58186
212.69        62.43478
213.14        61.67986
213.60        69.17039
214.06        82.53717
214.52        96.76556
214.98        104.3581
215.44        103.5301
215.90        96.99301
216.36        88.10835
216.81        81.51513
217.27        78.79799
217.73        78.37552
218.19        78.43646
218.65        76.56913
219.11          71.739
219.57        63.52478
220.02        52.93978
220.48        46.47357
220.94        47.77784
221.40        55.30381
221.86        62.41303
222.32        62.18307
222.77        55.49312
223.23        46.35622
223.69        38.94442
224.15        37.54981
224.61        41.58889
225.06        48.83962
225.52        56.03701
225.98        59.06268
226.44        57.21793
226.90        52.29817
227.36        46.65249
227.81        43.43615
228.27        43.60246
228.73        45.80297
229.19         48.8017
229.65        50.81059
230.10        51.34378
230.56        51.15277
231.02        50.69039
231.48        50.39605
231.93        50.35098
232.39          50.373
232.85        50.37611
233.31        50.34111
233.77        50.24228
234.22        50.11513
234.68        49.99071
235.14        49.84825
235.60        49.70763
236.05         49.6069
236.51        49.52581
236.97        49.38978
237.43        49.21504
237.88        49.09415
238.34        49.15009
238.80        49.85436
239.26        51.34597
239.71        53.55129
240.17        55.94442
240.63        58.13026
241.08         59.9719
241.54        61.39841
242.00        62.53632
242.46        63.71469
242.91        65.54477
243.37        68.87433
243.83        78.76885
244.28        114.0808
244.74        160.3275
245.20        142.3208
245.66        122.5257
246.11        117.7982
246.57        123.0787
247.03        144.1871
247.48        206.3814
247.94        173.8643
248.40        107.3484
248.85        87.12075
249.31        81.61174
249.77         82.1357
250.22        86.44716
250.68        94.81382
251.14        107.2809
251.59        116.5216
252.05        114.5602
252.51        104.5496
252.96        92.55238
253.42        84.70032
253.88        80.83873
254.33        78.90534
254.79        79.60678
255.25        83.32057
255.70        88.67474
256.16        94.79449
256.62        99.08642
257.07        98.93914
257.53        95.33075
257.99        89.32497
258.44        82.90886
258.90        79.38773
259.35         78.0133
259.81        77.73647
260.27        76.79959
260.72         73.5207
261.18        68.61051
261.63        62.73193
262.09        57.38447
262.55        53.58379
263.00        51.27898
263.46        50.06936
263.91        49.05758
264.37        47.57932
264.83        45.44174
265.28        42.79523
265.74        40.29453
266.19        38.68991
266.65        38.20272
267.11        38.39933
267.56        38.61536
268.02         38.0728
268.47        36.63514
268.93        34.56918
269.38        32.31932
269.84        30.89273
270.30        30.55733
270.75        31.01365
271.21        31.69237
271.66        31.74343
272.12        30.95538
272.57        29.60734
273.03        28.16046
273.48        27.21785
273.94        26.94561
274.39        27.08933
274.85        27.32046
275.31        27.16074
275.76        26.50753
276.22        25.57144
276.67        24.60772
277.13        24.06214
277.58        23.95812
278.04        24.14732
278.49        24.34623
278.95        24.22255
279.40        23.69744
279.86        22.96232
280.31        22.16599
280.77        21.63377
281.22        21.39376
281.68        21.34667
282.13        21.39264
282.59        21.42654
283.04        21.40249
283.50        21.39738
283.95        21.34979
284.41        21.17658
284.86        20.87886
285.32        20.48936
285.77        20.16781
286.22        20.22012
286.68        20.65065
287.13        21.32125
287.59         21.9638
288.04        22.17157
288.50        21.89518
288.95        21.26737
289.41        20.53079
289.86        19.94508
290.32        19.65184
290.77        19.56667
291.22        19.67635
291.68        19.92125
292.13        20.28101
292.59        20.78435
293.04         21.4336
293.50        22.21841
293.95        23.10917
294.40        24.06688
294.86        25.03751
295.31         25.9612
295.77        26.84194
296.22         27.7122
296.68         28.6196
297.13        29.60622
297.58        30.70572
298.04        31.91997
298.49        33.27588
298.95        34.86324
299.40        36.67186
299.85        38.66246
300.31        40.72171
300.76        42.66376
301.21        44.41035
301.67        46.03591
302.12        47.54662
302.58        49.06051
303.03        50.59972
303.48        52.16807
303.94          53.877
304.39        55.83135
304.84        58.04718
305.30        60.48471
305.75         62.9292
306.20        65.07146
306.66        66.86144
307.11        68.32777
307.57        69.70021
308.02        71.21317
308.47        72.98096
308.93        74.93292
309.38        76.91124
309.83        78.71987
310.29        80.29259
310.74        81.65784
311.19        82.93122
311.65        84.28909
312.10        85.75917
312.55         87.2965
313.00        88.73625
313.46        89.81944
313.91        90.47057
314.36        90.78423
314.82        91.00928
315.27        91.47168
315.72        92.29172
316.18        93.38509
316.63        94.55527
317.08        95.42885
317.53        95.90344
317.99        96.07311
318.44        96.19735
318.89        96.69905
319.35        97.64275
319.80        98.92515
320.25        100.1773
320.70        100.7907
321.16        100.6342
321.61        99.91158
322.06        99.04797
322.51        98.70979
322.97        99.03856
323.42        99.87953
323.87        100.8998
324.32         101.523
324.78        101.5688
325.23        101.2666
325.68        100.8421
326.13        100.6906
326.59        100.9058
327.04        101.3771
327.49        101.9787
327.94        102.5486
328.39        103.0122
328.85        103.4095
329.30        103.7699
329.75        103.9527
330.20        103.9718
330.66        103.8455
331.11        103.7958
331.56         104.103
332.01        104.8514
332.46         105.963
332.92        107.2362
333.37        108.5012
333.82        109.5467
334.27        110.3995
334.72        111.0329
335.17        111.4383
335.63         111.638
336.08        111.6828
336.53        111.6358
336.98        111.6624
337.43        111.8249
337.88        112.0942
338.34        112.4934
338.79        113.1441
339.24        113.9996
339.69        115.0627
340.14        116.0838
340.59        116.6267
341.05        116.6106
341.50        116.1379
341.95        115.5984
342.40        115.6044
342.85        116.2762
343.30        117.4361
343.75        118.6967
344.20         119.378
344.66        119.3157
345.11        118.7272
345.56        117.9634
346.01        117.5485
346.46        117.6249
346.91        118.0128
347.36        118.5425
347.81        118.9614
348.26        119.1836
348.72        119.3137
349.17        119.3564
349.62         119.357
350.07         119.329
350.52        119.2249
350.97        119.0683
351.42        118.9159
351.87        118.7744
352.32        118.6474
352.77          118.47
353.22        118.1289
353.67        117.6192
354.13        117.0025
354.58        116.3671
355.03        115.9139
355.48        115.6743
355.93        115.5731
356.38        115.4899
356.83        115.2351
357.28        114.7497
357.73        114.0911
358.18        113.3094
358.63        112.4846
359.08        111.6643
359.53        110.8443
359.98        110.0403
360.43        109.2779
360.88        108.5531
361.33        107.8456
361.78        107.1741
362.23         106.562
362.68         106.004
363.13        105.5067
363.58        104.9484
364.03        104.1372
364.48        103.0548
364.93        101.7566
365.38        100.4696
365.83        99.56633
366.28        99.11176
366.73        98.97505
367.18        98.89818
367.63        98.45587
368.08        97.55428
368.53        96.36801
368.98        95.07288
369.43        93.92395
369.88        93.00986
370.33         92.2421
370.78        91.64342
371.23        91.26125
371.68        91.07104
372.13         91.0611
372.58        91.08335
373.03        90.87541
373.48        90.37929
373.93        89.67059
374.38        88.88551
374.83        88.24261
375.28        87.79766
375.72        87.46682
376.17        87.21922
376.62        86.98051
377.07        86.70643
377.52          86.408
377.97        86.04693
378.42        85.55904
378.87        84.95168
379.32         84.2689
379.77        83.54646
380.22        82.83099
380.67         82.1345
381.11        81.43791
381.56        80.79678
382.01        80.30733
382.46        79.99195
382.91        79.84936
383.36        79.73016
383.81        79.39461
384.26        78.80396
384.71        78.01521
385.15        77.23956
385.60        76.86555
386.05        76.90019
386.50        77.21734
386.95        77.51691
387.40        77.30295
387.85        76.52351
388.29        75.38144
388.74        74.29826
389.19        73.56604
389.64        73.22819
390.09        73.12162
390.54         73.1912
390.98        73.34589
391.43         73.5176
391.88        73.72446
392.33        73.79595
392.78        73.45584
393.23        72.72921
393.67        71.75475
394.12        70.89645
394.57        70.34285
395.02        70.20979
395.47        70.61475
395.91        71.39302
396.36        71.91592
396.81        72.03335
397.26        71.94857
397.71        71.72596
398.15        71.28886
398.60        70.76624
399.05        70.34908
399.50        70.00768
399.95        69.15921
400.39        68.30318
400.84        68.01582
401.29         68.3427
401.74        68.56882
402.18        68.58011
402.63        68.52511
403.08        68.49791
403.53        68.64324
403.97        68.96223
404.42        69.29865
404.87        69.47841
405.32        69.29513
405.76        68.71607
406.21        67.88568
406.66        67.05538
407.11        66.59523
407.55        66.60832
408.00        66.96277
408.45        67.48247
408.90        67.86273
409.34        67.90924
409.79        67.51451
410.24        66.90257
410.68         66.5975
411.13        66.68725
411.58        66.90411
412.03        67.17655
412.47        67.48093
412.92        67.71606
413.37        67.92176
413.81        68.03979
414.26        68.01987
414.71        67.84399
415.15        67.51331
415.60        67.12827
416.05        66.87444
416.49        66.80549
416.94        66.90166
417.39        67.01472
417.83        66.87487
418.28        66.45115
418.73        65.83855
419.17        65.29297
419.62        65.22197
420.07        65.65992
420.51        66.46461
420.96        67.32442
421.41        67.69656
421.85        67.43089
422.30        66.86091
422.74        66.18726
423.19        65.66261
423.64        65.41219
424.08        65.68901
424.53        66.33359
424.98        66.79801
425.42        66.97371
425.87        67.22848
426.31        67.57905
426.76         67.6291
427.21        67.55927
427.65        68.04807
428.10        68.93737
428.54        69.64522
428.99        70.11892
429.44        70.08841
429.88        69.71027
430.33        70.46368
430.77        71.65555
431.22        70.54614
431.66         67.7714
432.11        66.55467
432.56        67.07183
433.00        67.93114
433.45        69.14967
433.89        70.50692
434.34         71.6051
434.78        74.05299
435.23        69.35178
435.67        66.61575
436.12        70.30054
436.57        71.35697
437.01        71.34818
437.46          71.968
437.90        71.77409
438.35        72.06981
438.79        72.31155
439.24        72.38204
439.68        72.27343
440.13        72.07523
440.57        72.05968
441.02        72.71014
441.46        73.77457
441.91        74.71246
442.35        75.12158
442.80         74.3035
443.24        72.78582
443.69        73.20981
444.13        75.14545
444.58        75.58679
445.02        73.52473
445.47         73.3364
445.91        74.56944
446.36         75.0027
446.80        74.55376
447.24        74.38198
447.69        74.58659
448.13        74.82991
448.58        75.12646
449.02        75.50391
449.47        75.89406
449.91        76.20637
450.36        76.41143
450.80        76.50737
451.25        76.50863
451.69        76.41547
452.13        76.26058
452.58        76.04533
453.02        75.83509
453.47        75.77523
453.91        75.86833
454.36        76.10039
454.80        76.38635
455.24        76.35704
455.69        75.96155
456.13        75.62136
456.58        75.60232
457.02        74.51941
457.46        75.05615
457.91        75.20744
458.35        75.56696
458.79        75.73437
459.24          75.683
459.68         75.4837
460.13        75.18306
460.57        74.84212
461.01        74.54951
461.46        74.18195
461.90         73.7003
462.34        73.94839
462.79        73.41074
463.23         73.5904
463.68        73.96147
464.12        74.41708
464.56        74.78456
465.01        74.85786
465.45        74.57413
465.89        74.41662
466.34        74.28297
466.78        73.33826
467.22        72.09819
467.67        71.43763
468.11        72.58328
468.55         73.2895
468.99        73.56053
469.44        73.28669
469.88        72.67098
470.32        72.65004
470.77        73.14629
471.21        73.18166
471.65        72.71265
472.10        72.44295
472.54        72.44609
472.98        72.48256
473.42        72.53938
473.87        72.85374
474.31        73.24023
474.75        73.07152
475.20        72.50741
475.64        72.41091
476.08        72.77457
476.52        72.78648
476.97        72.43213
477.41        72.32729
477.85        72.56133
478.29        72.10408
478.74        72.95846
479.18        72.63747
479.62        71.89179
480.06        72.45654
480.50        72.84384
480.95        73.11545
481.39        72.79366
481.83        72.39919
482.27        72.09077
482.72         72.1222
483.16        70.83064
483.60        71.06703
484.04        72.73904
484.48         73.0705
484.93        72.66181
485.37        74.41618
485.81        75.14574
486.25        73.42722
486.69        99.47833
487.14        80.68993
487.58         50.2945
488.02          61.659
488.46        70.24292
488.90        69.65205
489.34         71.3802
489.79        70.44445
490.23        72.63513
490.67        73.50043
491.11        72.48076
491.55        72.41731
491.99        72.87524
492.43        72.67144
492.88        71.90575
493.32        71.85008
493.76        72.01283
494.20        72.29018
494.64        72.41901
495.08        72.71523
495.52        73.12858
495.96         72.9472
496.41        72.26246
496.85        72.65247
497.29        73.79273
497.73        72.64957
498.17        70.29111
498.61        70.51485
499.05        73.31165
499.49        74.04397
499.93         74.1741
500.37        73.75668
500.82        72.82789
501.26        72.70401
501.70        73.40144
502.14        73.76471
502.58        73.65339
503.02        73.51776
503.46        73.34076
503.90        72.84001
504.34        72.22409
504.78        71.96203
505.22        72.11568
505.66        72.58301
506.10        73.16331
506.54        73.39713
506.98        73.15925
507.42        73.04908
507.86        72.42878
508.30        72.22378
508.74        72.26661
509.18        72.48856
509.62        72.77967
510.06        72.98422
510.50        73.05762
510.94         73.0477
511.38        73.01167
511.82        73.03008
512.26        73.12395
512.70        73.24785
513.14        73.35795
513.58        73.41463
514.02        73.40534
514.46        73.27395
514.90        73.18939
515.34        73.08791
515.78         73.0183
516.22         72.9958
516.66         73.0122
517.10          72.966
517.54        72.81706
517.98        72.97468
518.42        72.71127
518.86        72.80672
519.30        73.03519
519.74        73.33752
520.18         73.6319
520.62        73.82387
521.06        73.88908
521.50        73.85313
521.93        73.75541
522.37        73.66042
522.81        73.60138
523.25        73.56392
523.69        73.56631
524.13        73.63495
524.57        73.76845
525.01        73.96111
525.45        74.16739
525.89        74.31043
526.32        74.35815
526.76         74.3201
527.20        74.22882
527.64        74.15971
528.08        74.14863
528.52        74.11881
528.96        74.00357
529.40        73.90738
529.83        73.86562
530.27        73.11034
530.71        73.17501
531.15        73.03069
531.59        73.13307
532.03        73.38951
532.46        73.74915
532.90        74.08942
533.34        74.34254
533.78        74.53791
534.22        74.64069
534.66        74.61135
535.09        74.44491
535.53        74.17681
535.97        73.87053
536.41        73.65506
536.85          73.567
537.28        73.58294
537.72        73.64071
538.16        73.64559
538.60        73.57473
539.04        73.40676
539.47        73.19279
539.91        73.20422
540.35        73.37701
540.79        73.37662
541.22        73.21415
541.66        73.20334
542.10         73.3413
542.54        73.44215
542.97        73.49836
543.41        73.61225
543.85        73.76298
544.29        73.93375
544.72        74.05325
545.16          74.011
545.60        73.78112
546.04        73.50211
546.47        73.28136
546.91        73.06241
547.35          72.999
547.79        73.59261
548.22        74.50944
548.66        74.80393
549.10        74.33218
549.53        73.39497
549.97        72.40414
550.41        71.93729
550.84         72.1191
551.28        72.73196
551.72        73.51598
552.15         73.9724
552.59        73.94732
553.03        73.99037
553.46        73.51649
553.90        73.36587
554.34        73.38914
554.77         73.4428
555.21        73.47452
555.65        73.57982
556.08        73.88487
556.52        73.40659
556.96        73.86192
557.39        73.69841
557.83        73.49776
558.27        73.42107
558.70        73.51393
559.14        73.66055
559.57        73.82404
560.01        74.08165
560.45        74.33332
560.88        74.42795
561.32        74.33424
561.75        73.97173
562.19        73.50832
562.63        73.10203
563.06        72.86935
563.50        73.02885
563.93        73.44279
564.37        73.67461
564.80        73.64394
565.24        73.62041
565.68        73.60273
566.11         73.5247
566.55        73.45192
566.98        73.30869
567.42        73.18024
567.85        73.36586
568.29        73.83731
568.72        73.97176
569.16        73.94447
569.60        74.36848
570.03        74.86267
570.47        74.79801
570.90        74.55096
571.34        72.51226
571.77        73.55419
572.21        73.78075
572.64        73.15473
573.08        72.04274
573.51        69.13918
573.95        71.82784
574.38        76.23235
574.82        74.32901
575.25        73.61398
575.69        71.25212
576.12        70.31297
576.56        69.19672
576.99        70.80515
577.42        73.90907
577.86        74.21416
578.29        73.40427
578.73        77.07633
579.16        71.16246
579.60        65.20436
580.03        68.22651
580.47         72.4387
580.90        74.16143
581.33        72.74306
581.77        71.73553
582.20        78.75924
582.64        78.82832
583.07        67.17551
583.51        65.84189
583.94        64.77425
584.37        67.82065
584.81        71.40026
585.24        75.03057
585.68        76.28561
586.11        75.42331
586.54        70.19225
586.98        67.64194
587.41        68.72906
587.85         72.5477
588.28        74.84257
588.71        71.44102
589.15        69.15622
589.58        70.50871
590.01         70.8354
590.45         72.0065
590.88        72.58646
591.31        71.95036
591.75        71.65009
592.18        71.71055
592.61        73.15205
593.05        73.64118
593.48        76.44197
593.91        77.74767
594.35        71.33553
594.78        69.52261
595.21        69.28364
595.65        72.40056
596.08        75.43061
596.51        72.26735
596.94        70.27486
597.38        70.97753
597.81        74.07977
598.24         75.4108
598.68        73.91979
599.11         73.0323
599.54        75.84682
599.97        77.46661
600.41        71.86938
600.84        72.00496
601.27        73.66265
601.70         72.4504
602.14        72.63872
602.57        71.48433
603.00        71.90768
603.43        73.64234
603.87        75.32681
604.30        75.08193
604.73        72.73789
605.16        71.14906
605.60        72.34375
606.03        73.45713
606.46        74.37385
606.89        73.92767
607.32        71.98862
607.76        71.63335
608.19        74.11429
608.62        73.23769
609.05         71.7956
609.48        72.49892
609.92        72.72697
610.35        72.11499
610.78        74.33323
611.21        74.59536
611.64        71.51947
612.07        72.26652
612.50        72.70412
612.94        73.16563
613.37        72.52579
613.80        73.00571
614.23         73.3773
614.66         73.3912
615.09        73.68507
615.52        73.65809
615.96        73.47725
616.39        73.46304
616.82        72.37485
617.25        72.36782
617.68        72.93935
618.11         73.6272
618.54        74.08252
618.97        73.54728
619.40        72.43455
619.84        72.43145
620.27        73.46649
620.70        74.12878
621.13        74.20956
621.56        73.58354
621.99        72.57772
622.42        73.45644
622.85        75.35807
623.28        75.17487
623.71         74.3144
624.14        74.45041
624.57        74.24574
625.00        73.63965
625.43        74.20094
625.86        73.51549
626.29        73.60372
626.72        74.11118
627.15        73.94901
627.58        74.19619
628.01        74.32535
628.44        74.68965
628.87        74.62918
629.30        74.76259
629.73        74.95578
630.16        74.87619
630.59        74.54951
631.02        74.12729
631.45        73.74482
631.88        73.50848
632.31        73.45264
632.74          73.697
633.17        73.87909
633.60        74.05222
634.03        74.08458
634.46        74.03215
634.89        73.93519
635.32        73.86873
635.75        73.86147
636.18        73.87476
636.61        73.91005
637.04        73.97934
637.47        74.07349
637.89        74.20079
638.32        74.29707
638.75         74.3036
639.18        74.20702
639.61        74.03265
640.04        73.81941
640.47        73.63006
640.90        73.49283
641.33        73.39173
641.76        73.30865
642.18        73.31651
642.61        73.40957
643.04         73.4044
643.47        73.24571
643.90        73.79545
644.33        73.52177
644.76        73.65437
645.18        73.72199
645.61        73.71966
646.04        73.62897
646.47        73.44763
646.90        73.27917
647.33        73.23676
647.75        73.36587
648.18          73.681
648.61        73.97526
649.04        73.93324
649.47        73.52464
649.89        72.69649
650.32         71.8745
650.75        71.94074
651.18        72.81623
651.61        73.58871
652.03        73.88786
652.46        73.81477
652.89         73.7207
653.32        73.09024
653.74        72.31776
654.17        73.83079
654.60        74.47649
655.03        72.11332
655.46        72.87257
655.88        76.87605
656.31        81.73094
656.74        183.2392
657.16        118.3662
657.59        41.63059
658.02         31.7399
658.45        55.27976
658.87         71.0255
659.30        74.20997
659.73        73.03156
660.15        70.41132
660.58        73.16737
661.01        75.29124
661.44        73.17932
661.86        72.31868
662.29        71.97129
662.72        72.78098
663.14        74.45018
663.57        74.37235
664.00        72.84473
664.42        72.47224
664.85        73.34499
665.27        73.86583
665.70        73.80019
666.13        73.64516
666.55        73.37766
666.98        72.85622
667.41        72.28465
667.83        72.05083
668.26        72.23723
668.69        72.69843
669.11        73.17977
669.54        73.62991
669.96        73.27591
670.39        72.78391
670.82         72.1971
671.24        71.96434
671.67        72.19492
672.09        72.68546
672.52        73.13125
672.94        73.61754
673.37        72.87619
673.80        72.59492
674.22         72.5038
674.65        72.41481
675.07        72.33317
675.50        72.25874
675.92        72.22275
676.35        72.30756
676.77        72.51196
677.20        72.73112
677.62        72.93008
678.05        73.05836
678.47        73.08446
678.90        73.03082
679.32        72.94666
679.75        72.76246
680.17        72.78355
680.60        72.81588
681.02        72.86644
681.45        72.67516
681.87        72.29182
682.30        72.00583
682.72        71.91126
683.15        71.95631
683.57        72.16702
684.00        72.52768
684.42        73.04778
684.85        73.29321
685.27        73.23275
685.70        73.03275
686.12        72.76579
686.54         72.4578
686.97        72.22286
687.39        72.34895
687.82        72.71587
688.24        72.93079
688.66         72.8305
689.09           72.73
689.51        72.68094
689.94        72.67894
690.36        72.75371
690.78        72.89005
691.21        73.03963
691.63        73.13435
692.06        73.15828
692.48        73.13701
692.90        73.11172
693.33        73.13285
693.75        73.21403
694.17        73.34278
694.60        73.48303
695.02        73.56705
695.44        73.54391
695.87        73.58186
696.29        73.68497
696.71        73.43001
697.14        73.02803
697.56        73.43917
697.98        74.33072
698.41         74.6039
698.83        73.43227
699.25        72.94604
699.68        72.99066
700.10        72.93863
700.52        72.80592
700.94        72.98968
701.37        73.41214
701.79         73.7887
702.21        74.02251
702.64        74.19685
703.06        74.26846
703.48        74.16225
703.90        73.89851
704.33        73.49947
704.75        73.07513
705.17        72.89728
705.59        73.03069
706.01        73.28352
706.44        73.51904
706.86        74.14285
707.28        74.10572
707.70        74.22901
708.12        74.23083
708.55        74.10991
708.97        73.87856
709.39        73.61235
709.81        73.39671
710.23        73.30239
710.66        73.36367
711.08         73.6219
711.50         73.9363
711.92         74.0723
712.34        73.98041
712.76        73.70982
713.19        73.42213
713.61        73.41465
714.03        73.72924
714.45        74.26865
714.87        74.80115
715.29        74.96329
715.71        74.68184
716.13        74.08144
716.56        73.39434
716.98        73.02512
717.40        73.07457
717.82        73.42294
718.24        73.89332
718.66        74.18287
719.08        74.19891
719.50         74.0397
719.92        73.79692
720.34        73.63308
720.76        73.60316
721.19        73.52686
721.61        73.61911
722.03        73.71995
722.45        73.87571
722.87        74.08386
723.29        74.30301
723.71        74.45008
724.13        74.50095
724.55        74.47346
724.97        74.39709
725.39         74.3303
725.81        74.29363
726.23        74.27084
726.65        74.26409
727.07        74.27326
727.49        74.29891
727.91        74.35564
728.33        74.42049
728.75        74.45014
729.17        74.43475
729.59        74.37645
730.01         74.3336
730.43        74.39307
730.85        74.57264
731.27         74.8688
731.69        75.16968
732.10        75.28275
732.52        75.18018
732.94        74.90951
733.36        74.62184
733.78        74.59238
734.20        74.90774
734.62         75.1348
735.04        76.23245
735.46        76.11544
735.88        75.40397
736.30        75.52791
736.72        76.77576
737.13        77.36318
737.55         77.0403
737.97        76.92616
738.39        77.04836
738.81        76.05202
739.23        74.51615
739.65        75.35786
740.06        78.00848
740.48        78.40241
740.90        76.59805
741.32        75.83561
741.74        76.38592
742.16         76.6478
742.57        76.66399
742.99         77.2911
743.41        78.31637
743.83        78.93285
744.25        79.00587
744.67        78.73359
745.08        78.35344
745.50        78.25108
745.92        78.54368
746.34        79.09587
746.75        79.70609
747.17        80.03981
747.59        80.03456
748.01        79.79501
748.42        79.55589
748.84        79.68028
749.26         80.2526
749.68        81.09825
750.09        81.97397
750.51        82.55863
750.93        82.72282
751.35        82.35924
751.76        81.69621
752.18         81.4341
752.60        81.58513
753.01        81.56956
753.43        81.38808
753.85        81.49609
754.27        81.91024
754.68        82.42916
755.10        82.92531
755.52        83.34959
755.93        83.62701
756.35        83.69444
756.77        83.69805
757.18        83.73277
757.60        83.84086
758.02        84.38957
758.43        85.00256
758.85        84.29752
759.26        82.80862
759.68        82.09806
760.10        83.51724
760.51        84.04366
760.93        83.70115
761.34        82.99143
761.76        82.22046
762.18        81.62788
762.59        81.46029
763.01        81.93668
763.42        82.96703
763.84        83.69135
764.26        83.98804
764.67         84.1997
765.09        84.27642
765.50        84.13593
765.92        83.73453
766.33        82.51924
766.75        81.03069
767.16        80.70678
767.58        81.67807
768.00        83.43504
768.41        85.47884
768.83         86.6106
769.24        86.41244
769.66        85.46067
770.07         84.2739
770.49        82.80908
770.90        81.50421
771.32        82.36144
771.73        84.69543
772.15        84.25066
772.56        81.49635
772.97        81.02488
773.39         82.7322
773.80        83.30176
774.22        82.51266
774.63        82.37739
775.05        82.86132
775.46        83.06999
775.88        82.91039
776.29        82.64347
776.70        82.37099
777.12         82.2833
777.53        82.43832
777.95         82.7161
778.36        82.96976
778.77        82.94405
779.19        82.62975
779.60        82.11147
780.02         81.6061
780.43        81.53313
780.84        82.02557
781.26        82.50788
781.67        82.91723
782.09        84.08507
782.50        85.44384
782.91        84.53129
783.33        82.07822
783.74        81.31351
784.15        82.39911
784.57        83.31094
784.98        83.64787
785.39        83.59741
785.81         83.1684
786.22        82.62731
786.63        82.28229
787.04        82.29788
787.46        82.72862
787.87        83.64461
788.28        84.72946
788.70        85.24474
789.11        85.03545
789.52        84.51537
789.93        83.91798
790.35         83.1831
790.76        82.59334
791.17        82.92219
791.58        83.94786
792.00        84.42548
792.41        84.17413
792.82        83.97595
793.23        84.02244
793.65        83.61783
794.06        83.10854
794.47        84.26063
794.88        86.24369
795.29        85.84274
795.71        83.29333
796.12        81.04605
796.53        79.79867
796.94        79.45017
797.35        80.07137
797.76        81.34687
798.18        82.66792
798.59        83.54623
799.00        83.63393
799.41        82.77413
799.82        81.44495
800.23        80.69053
800.64        80.73091
801.06        81.16088
801.47        81.83166
801.88         82.3864
802.29        82.67609
802.70        82.85844
803.11        82.92793
803.52        82.83918
803.93        82.61973
804.34        82.23113
804.75        81.85217
805.17        81.82979
805.58        82.25986
805.99        82.91564
806.40        83.50753
806.81        83.87967
807.22        83.74833
807.63        82.49071
808.04        80.67741
808.45        79.85694
808.86        80.23037
809.27         81.1273
809.68        82.12131
810.09        82.65737
810.50        82.50301
810.91        81.85703
811.32        81.03234
811.73        80.52824
812.14        80.48743
812.55        80.70596
812.96        81.10162
813.37        81.52692
813.78        81.88304
814.19        82.26981
814.60        82.48369
815.01        82.19595
815.42        81.39186
815.83        80.12474
816.24        78.86912
816.65        78.46732
817.05        79.16336
817.46        80.69765
817.87        82.43687
818.28        83.23404
818.69        82.77682
819.10        81.34407
819.51        79.66069
819.92        78.96227
820.33        79.56134
820.74        81.07181
821.14        82.77482
821.55        83.40241
821.96        82.68552
822.37        81.07733
822.78        79.24049
823.19        78.14329
823.60        78.04815
824.00        78.70244
824.41        79.67969
824.82        80.36523
825.23        80.49245
825.64        80.29112
826.04        79.93527
826.45        79.66433
826.86        79.55598
827.27        79.47471
827.68          79.423
828.08        79.47415
828.49        79.56487
828.90        79.77149
829.31        79.96877
829.72        79.90152
830.12        79.55816
830.53        79.00307
830.94        78.51887
831.35        78.49539
831.75        79.04113
832.16        79.97253
832.57        81.06657
832.97        81.84608
833.38        82.05714
833.79         81.8249
834.20        81.35201
834.60        80.94891
835.01        80.74122
835.42        80.64351
835.82        80.53699
836.23        80.14888
836.64        79.49023
837.04        78.70241
837.45        78.03469
837.86        77.86497
838.26         78.2725
838.67        79.08538
839.08        80.06261
839.48        80.76246
839.89        80.98723
840.29        80.86794
840.70        80.50706
841.11        80.05582
841.51        79.60428
841.92         79.0929
842.33        78.63931
842.73        78.45415
843.14        78.53747
843.54         78.8875
843.95         79.2963
844.35        79.46439
844.76         79.2954
845.17        78.88815
845.57         78.3922
845.98        78.05213
846.38        77.94166
846.79         77.9722
847.19        78.10562
847.60        78.18395
848.00        78.19925
848.41        78.16947
848.81        78.17406
849.22        78.25431
849.62        78.46903
850.03        78.79518
850.43        79.19253
850.84        79.49826
851.24        79.69913
851.65        79.64046
852.05        79.58233
852.46        79.77532
852.86        80.27438
853.27        81.05597
853.67        81.53199
854.07        80.92047
854.48        79.23421
854.88          76.748
855.29        74.40758
855.69         73.5864
856.10         74.5437
856.50         77.0918
856.90         80.3125
857.31        82.09549
857.71        81.77322
858.12        79.91747
858.52        77.58015
858.92        76.14403
859.33        75.90698
859.73        76.48524
860.13         77.5932
860.54        78.62634
860.94        79.36276
861.34        79.96012
861.75        80.38834
862.15        80.67828
862.55        80.81726
862.96        80.72356
863.36        80.51758
863.76        80.41096
864.17         80.4733
864.57        80.73258
864.97        81.10497
865.38        81.43223
865.78         81.7113
866.18        81.88681
866.58        82.05578
866.99        82.37069
867.39        82.90536
867.79        83.64109
868.19        84.20369
868.60         83.9123
869.00        82.66721
869.40        80.70313
869.80        78.90039
870.21          78.614
870.61        80.22115
871.01        83.31705
871.41        86.88175
871.81        89.15088
872.22        89.60199
872.62        88.71643
873.02        87.35867
873.42        87.03341
873.82        87.96225
874.22        89.47413
874.63        91.08418
875.03        91.77868
875.43        91.08775
875.83        90.06181
876.23        88.21326
876.63        87.40934
877.03         87.7327
877.44        89.35912
877.84        102.2784
878.24        95.78902
878.64        95.57858
879.04        94.61099
879.44        91.12756
879.84        89.48172
880.24        92.66073
880.64        94.77818
881.04        96.40139
881.44        97.26014
881.84        96.52814
882.24        94.63411
882.65        92.76689
883.05         92.2084
883.45        93.18095
883.85        95.50098
884.25        98.28982
884.65        99.78897
885.05        99.45988
885.45        97.92136
885.85        96.10469
886.25        95.28159
886.65        95.71915
887.05        96.96079
887.45        98.52708
887.85        99.57365
888.25        99.77416
888.65        99.46239
889.04        98.78072
889.44        97.97312
889.84        97.17592
890.24        96.29143
890.64        95.56956
891.04        95.42085
891.44        95.87477
891.84        96.84933
892.24         97.9293
892.64        98.31805
893.04          97.872
893.44        96.93201
893.83         95.9337
894.23         95.5329
894.63        95.85526
895.03        96.60505
895.43        97.75304
895.83        99.21961
896.23        100.8149
896.63        102.5557
897.02        103.8107
897.42        103.5619
897.82        101.7461
898.22        98.76029
898.62         95.6948
899.01        94.15491
899.41        94.48527
899.81        96.15676
900.21        98.37216
900.61        99.81036
901.00        100.0634
901.40        99.55011
901.80        98.66815
902.20        98.03745
902.59        97.86011
902.99        97.88051
903.39        97.97257
903.79         97.9641
904.18        97.80101
904.58        97.65663
904.98        97.56937
905.38        97.55656
905.77         97.6125
906.17        97.68327
906.57        97.81672
906.96        98.15626
907.36        98.62537
907.76        99.17371
908.15        99.57787
908.55        99.36017
908.95        98.49656
909.34        97.12099
909.74        95.64866
910.14        94.54867
910.53        94.00962
910.93        93.98152
911.33        94.37175
911.72        94.99447
912.12         95.6507
912.52        96.29288
912.91         96.9537
913.31        97.73963
913.70         98.7188
914.10        99.84659
914.49        100.7908
914.89        100.6531
915.29        99.26363
915.68        97.00409
916.08        94.89509
916.47        93.80767
916.87        93.84898
917.26        94.75334
917.66        95.92369
918.05        96.41996
918.45        95.98606
918.84        94.96299
919.24        93.91985
919.64        93.66183
920.03        94.39205
920.42        95.79439
920.82        97.42677
921.21        98.70435
921.61        99.22147
922.00        99.19238
922.40        98.66637
922.79        97.69044
923.19        96.40041
923.58        94.75195
923.98        92.92274
924.37        91.61816
924.77        91.33193
925.16        90.17944
925.55         91.4244
925.95        92.43315
926.34        94.05682
926.74        95.93137
927.13        97.72439
927.52        98.62212
927.92        98.54105
928.31        97.72665
928.70        96.41875
929.10         95.0804
929.49        93.87151
929.89        92.71736
930.28        92.02092
930.67          92.447
931.07        93.92941
931.46        96.32725
931.85        98.66703
932.24        99.47559
932.64        98.47466
933.03        95.96165
933.42        92.68394
933.82        90.36465
934.21        89.56499
934.60        89.83789
934.99        90.56751
935.39        91.08189
935.78        91.26642
936.17        91.17319
936.56        90.58709
936.96        91.03636
937.35        89.80799
937.74        89.21265
938.13        88.89235
938.53        89.49757
938.92        91.04147
939.31        93.51156
939.70         96.2295
940.09        97.27345
940.49        95.99854
940.88        93.20673
941.27         90.2158
941.66        88.56581
942.05        88.47135
942.44        89.42661
942.84         90.9561
943.23        92.32535
943.62        93.10079
944.01        93.47326
944.40        93.48077
944.79        93.15836
945.18        92.53825
945.57        91.53493
945.97        90.13861
946.36        88.62772
946.75        87.38529
947.14        86.53835
947.53        86.23605
947.92        86.54105
948.31        87.38466
948.70        88.78655
949.09        90.42247
949.48        91.45502
949.87        91.49737
950.26        90.68274
950.65         89.5564
951.04        89.02422
951.43          89.297
951.82        90.10601
952.21        90.97694
952.60        91.13933
952.99        90.40006
953.38        89.04739
953.77         87.5253
954.16         86.4385
954.55        85.94434
954.94        85.91294
955.33        85.98965
955.72        85.58533
956.11        84.58666
956.50        83.19039
956.89        81.97673
957.28        81.96301
957.66        83.47597
958.05        85.95475
958.44        88.63858
958.83         90.4131
959.22        90.96584
959.61        90.52511
960.00         89.5355
960.39        88.74812
960.78        88.39802
961.16        88.31908
961.55        88.11223
961.94        87.15305
962.33        85.41092
962.72         83.2806
963.11        81.37663
963.49        80.42332
963.88        80.52728
964.27         81.5339
964.66        83.01157
965.04        84.01563
965.43        84.05839
965.82        83.43711
966.21        82.69826
966.60        82.60968
966.98        83.31292
967.37        84.48499
967.76        85.68887
968.15        86.10222
968.53        85.48837
968.92        84.16808
969.31         82.6161
969.69        81.39021
970.08        80.65937
970.47        80.31351
970.86        80.18719
971.24         80.0035
971.63        79.67932
972.02        79.29869
972.40        79.17859
972.79         79.8149
973.17        81.39581
973.56        83.62166
973.95        85.84908
974.33        86.86813
974.72        86.27532
975.11         84.4672
975.49        82.37829
975.88        81.31065
976.26        81.46124
976.65        82.56696
977.04        83.89014
977.42         83.6656
977.81        81.37564
978.19        77.83302
978.58        74.81195
978.96        74.03893
979.35        75.73454
979.74        79.48331
980.12        84.48159
980.51        87.73745
980.89        88.26323
981.28        86.79031
981.66        84.42696
982.05        82.60658
982.43        81.66531
982.82        81.16415
983.20        81.16621
983.59        81.88047
983.97        83.35821
984.35        85.68166
984.74        88.23568
985.12        89.81676
985.51        89.56955
985.89        87.67247
986.28        84.73743
986.66        81.80753
987.04        79.67892
987.43        78.33877
987.81        77.60184
988.20        77.16984
988.58        76.88722
988.96        76.71963
989.35        77.26201
989.73        79.94442
990.12        84.41983
990.50        89.39552
990.88        92.37241
991.27        92.05353
991.65        89.02574
992.03        83.69758
992.42        78.00528
992.80        75.52982
993.18        77.22321
993.56        81.15642
993.95        85.31507
994.33        87.81444
994.71        88.27444
995.10        87.70031
995.48        86.21236
995.86        83.76908
996.24        80.47434
996.63        75.87264
997.01        71.12562
997.39        69.74442
997.77        73.08185
998.15        80.30154
998.54        87.75268
998.92        90.43725
999.30        86.96759
999.68         78.6031
1000.06        67.60236
1000.45        59.65589
1000.83        57.23596
1001.21        58.52913
1001.59        62.00987
1001.97        66.17211
1002.35        70.63496
1002.73        76.56194
1003.12        82.70187
1003.50        84.54215
1003.88        80.05415
1004.26        71.28265
1004.64        62.60525
1005.02        57.79644
1005.40        57.03121
1005.78        59.79954
1006.16        66.84886
1006.54        75.30003
1006.92        80.02106
1007.30        81.30222
1007.69        80.91483
1008.07        80.50821
1008.45        80.35223
1008.83        79.67934
1009.21        76.76169
1009.59        65.00373
1009.97        28.94023
1010.35       -24.13476
1010.73       -17.67996
1011.11        14.22181
1011.49         37.7342
1011.86        54.98922
1012.24        64.78985
1012.62         68.8792
1013.00        69.54183
1013.38        67.64485
1013.76        64.96887
1014.14        67.56638
1014.52        80.22246
1014.90        103.7369
1015.28        131.4817
1015.66        144.8089
1016.04        132.3743
1016.41        98.63521
1016.79        60.39387
1017.17        35.77143
1017.55        26.62862
1017.93        25.00051
1018.31        27.03242
1018.69        31.38861
1019.06        37.99686
1019.44        48.02509
1019.82        63.97977
1020.20         85.8658
1020.58        112.5421
1020.95        145.1942
1021.33        190.7235
1021.71       -412.8177
1022.09        72.99625
1022.46        102.4789
1022.84         114.859
1023.22        126.6929
1023.60        151.1009
1023.97        369.6715
1024.35        1.625974
1024.73        41.95561
