SpectraSmart Spectrum 2.9.0.0
--------- Device Information -----------
Spectrum Name :  反射率_0
Saving Time :  2024/04/26 01:34:06
Spectro-Module Model Name : SE2030-DUVN
Spectro-Module Serial Number : OS361AC55029948
Wavelength Start : 200
Wavelength End : 1025
Wavelength Unit : Wavelength(nm)
Spectrum Unit : Reflectance(%)
-----------Spectrum Setting ------------
Integration Time : 20ms
Average : 10
Boxcar : 0
Background removal :  enabled
linearity correction :  enabled
SC :  disabled
Intensity correction :  disabled
DWT denoise :  enabled
savitzky-golay :  disabled
FFT :  disabled
Running average :  disabled
Kalman :  disabled
High pass :  disabled
---------------BEGIN--------------------
Wavelength(nm)             Reflectance(%)
200.29               0
200.75        95.91051
201.21        90.83212
201.67        83.72768
202.13        79.15569
202.58        77.96109
203.04        79.07208
203.50        81.41496
203.96        83.29341
204.42        84.03085
204.88        84.18714
205.34        84.49369
205.80         85.8541
206.26        89.03297
206.72        95.77272
207.18        108.0435
207.64        116.5585
208.10        105.4469
208.55        87.67379
209.01        77.45131
209.47        74.88623
209.93        76.76984
210.39        82.04166
210.85        87.53753
211.31        86.53132
211.77        77.41863
212.23        62.81311
212.69        48.88516
213.14        45.12909
213.60        52.95534
214.06        69.50029
214.52         88.1272
214.98        98.47403
215.44        98.04408
215.90        90.49625
216.36        80.11875
216.81        72.89491
217.27        70.69775
217.73        71.35645
218.19        72.80958
218.65        72.54272
219.11        69.62162
219.57        63.99361
220.02        56.75437
220.48        53.50554
220.94        56.70854
221.40        64.42683
221.86        70.38154
222.32        68.45066
222.77        59.96249
223.23        49.11993
223.69        40.18678
224.15        37.47718
224.61        40.41809
225.06        46.78296
225.52        53.41903
225.98        56.41737
226.44        55.03236
226.90        50.87024
227.36        46.05831
227.81         43.4379
228.27        43.88957
228.73         46.2186
229.19        49.13339
229.65        50.78379
230.10        50.82579
230.56         50.1077
231.02        49.44178
231.48        49.71235
231.93        50.96247
232.39        52.80081
232.85        54.75801
233.31        56.21543
233.77        56.99409
234.22        57.31289
234.68        57.37142
235.14        57.48228
235.60        57.78648
236.05        58.17919
236.51        58.63665
236.97        59.14787
237.43        59.79374
237.88        60.81591
238.34        62.28624
238.80        64.39066
239.26        67.00636
239.71        70.03082
240.17        72.95551
240.63        75.65234
241.08        78.09015
241.54         80.0694
242.00        81.81577
242.46        83.95287
242.91        87.65489
243.37        95.06326
243.83        115.9056
244.28        179.1528
244.74        242.2457
245.20        195.9118
245.66        159.4401
246.11        150.6223
246.57        158.3642
247.03          191.65
247.48        291.0295
247.94        239.2213
248.40        132.8602
248.85         100.376
249.31        91.21852
249.77         91.3614
250.22        97.19089
250.68        109.1911
251.14        127.6616
251.59        142.6461
252.05        142.4645
252.51        130.6725
252.96        116.2716
253.42        108.9054
253.88        108.4281
254.33        111.2105
254.79        116.2445
255.25        121.5446
255.70        125.7005
256.16        129.6648
256.62        131.9307
257.07        130.7672
257.53         127.355
257.99        122.1682
258.44        116.8413
258.90        114.5649
259.35          114.15
259.81        114.6527
260.27        114.2087
260.72         111.033
261.18         106.096
261.63        99.99728
262.09        94.23624
262.55         89.5782
263.00        86.02807
263.46        83.47385
263.91        81.27758
264.37        79.30964
264.83        77.21209
265.28        74.91917
265.74         72.6283
266.19          70.291
266.65        68.26514
267.11        66.51763
267.56        64.90951
268.02        63.31267
268.47        61.53774
268.93        59.64304
269.38        57.74657
269.84        56.29953
270.30        55.42797
270.75        55.02696
271.21        54.81448
271.66        54.33995
272.12        53.49305
272.57        52.38137
273.03        51.27719
273.48        50.48623
273.94        50.10237
274.39         49.9273
274.85        49.76727
275.31        49.29586
275.76        48.43631
276.22        47.37289
276.67         46.2161
277.13        45.26728
277.58         44.5277
278.04        43.96209
278.49         43.4496
278.95        42.93948
279.40        42.34159
279.86        41.75528
280.31        41.11379
280.77        40.46766
281.22        39.78601
281.68        39.12701
282.13         38.5129
282.59        38.05456
283.04         37.7395
283.50        37.58208
283.95        37.49742
284.41        37.40179
284.86        37.25241
285.32        37.09167
285.77        36.97143
286.22          37.054
286.68        37.33126
287.13        37.69517
287.59        38.00657
288.04        38.02996
288.50        37.76476
288.95        37.26958
289.41        36.70783
289.86        36.18624
290.32        35.82896
290.77         35.5933
291.22        35.53244
291.68        35.67693
292.13        36.02409
292.59        36.57894
293.04         37.3059
293.50        38.14954
293.95        39.05988
294.40        40.01151
294.86        40.97698
295.31        41.92719
295.77        42.86944
296.22         43.8131
296.68        44.75798
297.13        45.67687
297.58        46.58276
298.04        47.49334
298.49        48.47907
298.95        49.70825
299.40        51.17892
299.85        52.82946
300.31        54.49681
300.76        55.91567
301.21         57.0092
301.67        57.90861
302.12        58.67323
302.58        59.50866
303.03        60.44506
303.48        61.46357
303.94        62.65267
304.39        64.07466
304.84        65.73267
305.30        67.59607
305.75         69.4441
306.20        70.97023
306.66        72.13125
307.11        72.95148
307.57        73.67545
308.02        74.54568
308.47        75.68064
308.93         77.0163
309.38        78.38383
309.83        79.57398
310.29        80.53124
310.74        81.29807
311.19         82.0279
311.65        82.94698
312.10        84.08618
312.55        85.38059
313.00         86.6234
313.46        87.48937
313.91        87.88641
314.36        87.92717
314.82        87.88548
315.27        88.12766
315.72        88.77849
316.18        89.73356
316.63         90.7796
317.08        91.52128
317.53        91.85042
317.99          91.872
318.44        91.84415
318.89        92.18609
319.35        92.96061
319.80        94.05345
320.25        95.11873
320.70        95.58862
321.16        95.34195
321.61         94.5844
322.06        93.68291
322.51        93.20836
322.97        93.28936
323.42        93.79018
323.87        94.48375
324.32         94.9791
324.78        95.13206
325.23        95.10618
325.68        94.98077
326.13         94.9072
326.59        94.92269
327.04        94.99811
327.49          95.127
327.94        95.34888
328.39        95.65957
328.85        96.03473
329.30        96.47913
329.75        96.81744
330.20        97.02602
330.66        97.14084
331.11        97.28987
331.56        97.60257
332.01        98.13077
332.46        98.80823
332.92        99.57824
333.37         100.535
333.82        101.5611
334.27        102.6374
334.72        103.5623
335.17        104.0105
335.63        103.9274
336.08        103.4608
336.53        102.8889
336.98        102.7107
337.43        103.0637
337.88        103.8078
338.34        104.7555
338.79        105.6833
339.24        106.4421
339.69        107.1232
340.14        107.6542
340.59        107.9078
341.05        107.8972
341.50        107.6354
341.95        107.3424
342.40         107.384
342.85        107.8276
343.30        108.5712
343.75        109.3955
344.20        109.9008
344.66        109.9831
345.11        109.7564
345.56        109.3646
346.01         109.024
346.46        108.8201
346.91        108.6897
347.36        108.6418
347.81        108.6984
348.26        108.8478
348.72        109.1053
349.17        109.3777
349.62        109.5507
350.07        109.5839
350.52        109.4913
350.97        109.3184
351.42        109.1493
351.87        109.0052
352.32        108.8601
352.77        108.6776
353.22        108.4036
353.67        108.0295
354.13        107.5932
354.58         107.111
355.03        106.6627
355.48        106.2614
355.93        105.8836
356.38        105.4815
356.83        104.9795
357.28        104.3625
357.73        103.6624
358.18         102.923
358.63        102.2104
359.08        101.5506
359.53         100.932
359.98        100.3359
360.43        99.73242
360.88        99.10242
361.33        98.43867
361.78        97.76191
362.23        97.10803
362.68        96.48579
363.13        95.89806
363.58         95.2722
364.03        94.49149
364.48        93.54613
364.93        92.47374
365.38        91.41981
365.83        90.62083
366.28         90.1135
366.73        89.80815
367.18        89.53703
367.63        89.02583
368.08         88.2184
368.53        87.23798
368.98        86.18623
369.43        85.20588
369.88        84.35346
370.33        83.57509
370.78        82.93145
371.23        82.53022
371.68        82.36765
372.13        82.41174
372.58        82.49159
373.03        82.31139
373.48        81.80431
373.93        81.06085
374.38        80.24389
374.83        79.60773
375.28        79.21666
375.72        78.97806
376.17        78.83029
376.62        78.64866
377.07        78.37669
377.52        78.03603
377.97        77.63298
378.42         77.1743
378.87        76.67719
379.32        76.16102
379.77        75.60001
380.22        74.95133
380.67        74.21765
381.11        73.41516
381.56        72.66651
382.01        72.17796
382.46        71.99519
382.91        72.07218
383.36        72.20753
383.81        72.07542
384.26        71.60987
384.71        70.90209
385.15        70.16517
385.60        69.78595
386.05        69.78391
386.50        70.01831
386.95         70.2508
387.40        70.09124
387.85        69.48936
388.29        68.61125
388.74        67.74504
389.19        67.03123
389.64        66.50065
390.09        66.04306
390.54        65.72749
390.98        65.67892
391.43        65.88716
391.88        66.30572
392.33        66.66154
392.78         66.4769
393.23        65.73376
393.67        64.70945
394.12        63.85828
394.57        63.06314
395.02        63.31158
395.47        63.72884
395.91        64.42084
396.36        64.97688
396.81        65.25417
397.26        65.30621
397.71        65.15691
398.15        64.75828
398.60        64.22179
399.05        63.74582
399.50         63.3326
399.95        62.41607
400.39        61.48665
400.84        61.25817
401.29        61.71945
401.74        61.87753
402.18        61.65617
402.63        61.56398
403.08        61.69701
403.53        61.93208
403.97        62.25833
404.42        62.66503
404.87        62.97289
405.32        62.88035
405.76        62.34056
406.21         61.5486
406.66        60.72797
407.11        60.14565
407.55         59.9365
408.00        60.10749
408.45         60.5153
408.90        60.84171
409.34        60.87687
409.79        60.44367
410.24         59.7593
410.68        59.41641
411.13        59.49444
411.58        59.66148
412.03        59.86565
412.47        60.15914
412.92        60.45423
413.37        60.75866
413.81        60.97783
414.26        61.00647
414.71        60.81787
415.15        60.43428
415.60        59.98966
416.05        59.72285
416.49         59.7005
416.94         59.8862
417.39        60.11432
417.83        60.08138
418.28        59.74587
418.73        59.22113
419.17        58.75049
419.62        58.71758
420.07        59.15197
420.51        59.90412
420.96        60.71876
421.41        61.10201
421.85        60.90733
422.30        60.56893
422.74        60.16499
423.19        59.48767
423.64        58.77441
424.08        58.94373
424.53        59.85468
424.98        60.36667
425.42        60.34348
425.87        60.59973
426.31        61.08183
426.76         60.9975
427.21        60.59222
427.65        60.87136
428.10        61.68169
428.54         62.7327
428.99        62.88271
429.44        63.03233
429.88        62.93991
430.33        63.66672
430.77        64.61263
431.22        63.57133
431.66        61.12508
432.11        60.02566
432.56        60.46153
433.00        61.17907
433.45        62.08962
433.89        63.31068
434.34        64.64899
434.78        66.04118
435.23        62.50787
435.67        61.24771
436.12        62.91999
436.57        63.87083
437.01        64.31292
437.46        64.56203
437.90        64.81666
438.35        64.23563
438.79        65.05286
439.24        65.04674
439.68        64.88411
440.13        64.58279
440.57        64.47238
441.02        65.17966
441.46        66.41718
441.91        67.54202
442.35         68.0736
442.80        67.19012
443.24        65.43187
443.69        65.65038
444.13         67.5396
444.58        67.53059
445.02         65.8504
445.47        65.64861
445.91        66.92996
446.36        67.36387
446.80        66.89496
447.24        66.61075
447.69        66.64264
448.13        66.77805
448.58        67.04538
449.02        67.43498
449.47        67.83682
449.91        68.09734
450.36        68.17366
450.80        68.09383
451.25        67.91618
451.69         67.7054
452.13         67.5135
452.58        67.32841
453.02        67.17863
453.47        67.14696
453.91         67.2215
454.36        67.38422
454.80        67.56406
455.24        67.55845
455.69         67.3472
456.13        67.10508
456.58        66.92209
457.02        66.51713
457.46        66.10545
457.91        66.34855
458.35        67.03813
458.79        67.30206
459.24        67.13564
459.68        66.82947
460.13         66.4084
460.57        66.26801
461.01        66.59847
461.46        65.36518
461.90         65.1844
462.34        66.18409
462.79        65.30125
463.23        65.52916
463.68        65.69566
464.12        65.91207
464.56        66.08147
465.01        66.15908
465.45        66.06947
465.89        66.06985
466.34        66.00657
466.78        65.08275
467.22         63.8488
467.67        63.09117
468.11        64.46716
468.55          65.089
468.99        65.12915
469.44        64.78676
469.88        64.25639
470.32        64.19355
470.77        64.52249
471.21        64.48264
471.65        64.04252
472.10        63.72403
472.54        63.72843
472.98        63.75959
473.42        63.83936
473.87        64.19707
474.31         64.6177
474.75        64.41117
475.20        63.72949
475.64        63.47993
476.08        63.72263
476.52        63.69236
476.97        63.35801
477.41        63.52535
477.85        64.02966
478.29        63.57441
478.74         63.9665
479.18        64.11504
479.62        63.08701
480.06        63.58136
480.50        63.77093
480.95        64.12304
481.39        64.24519
481.83        63.17205
482.27        63.22608
482.72        63.26076
483.16        61.90516
483.60        62.07721
484.04        63.29305
484.48        63.77401
484.93         63.8728
485.37        65.23492
485.81        65.92174
486.25        64.68529
486.69        89.07256
487.14        72.47136
487.58        44.32035
488.02        54.55602
488.46        61.34508
488.90        60.94241
489.34        62.14547
489.79        61.27956
490.23        63.15467
490.67        63.71963
491.11        62.59182
491.55        62.60795
491.99        63.35083
492.43        63.33369
492.88        62.60851
493.32        62.56096
493.76        62.75367
494.20        62.94987
494.64        62.92319
495.08        62.98666
495.52        63.16643
495.96          62.961
496.41        62.45385
496.85        62.95509
497.29        64.09836
497.73        63.09421
498.17         60.8624
498.61        60.86002
499.05        63.10878
499.49        63.49313
499.93        63.36814
500.37        63.06242
500.82        62.53677
501.26        62.61723
501.70        63.20906
502.14         63.4775
502.58        63.31438
503.02        63.14049
503.46        62.96035
503.90        62.49936
504.34        61.92746
504.78        61.69038
505.22        61.85625
505.66        62.21476
506.10        62.61956
506.54        63.00885
506.98         63.1757
507.42         62.8323
507.86          62.019
508.30        61.57986
508.74        61.85416
509.18         62.1901
509.62        62.51435
510.06        62.71014
510.50        62.71463
510.94        62.57492
511.38        62.38235
511.82        62.27865
512.26        62.30305
512.70        62.40467
513.14        62.53808
513.58         62.6348
514.02        62.66524
514.46        62.65326
514.90        62.61296
515.34        62.54207
515.78        62.43532
516.22        62.36853
516.66         62.3494
517.10        62.17697
517.54        61.85527
517.98        62.17095
518.42        62.02891
518.86        62.20414
519.30        62.35912
519.74        62.57827
520.18        62.81393
520.62        62.97878
521.06        63.06208
521.50        63.07472
521.93        63.03777
522.37        62.98867
522.81        62.94873
523.25        62.91539
523.69        62.89634
524.13        62.90293
524.57         62.9365
525.01        62.99258
525.45        63.06951
525.89        63.16225
526.32        63.25293
526.76        63.33475
527.20        63.37515
527.64        63.34186
528.08        63.24862
528.52        63.06113
528.96        62.79407
529.40        62.64816
529.83         62.6767
530.27        62.18793
530.71        62.41996
531.15        62.39766
531.59         62.4841
532.03        62.63269
532.46        62.84247
532.90        63.08069
533.34        63.30859
533.78        63.52248
534.22        63.66795
534.66        63.67652
535.09        63.53439
535.53        63.29077
535.97        63.00309
536.41        62.78255
536.85        62.66711
537.28        62.63577
537.72        62.65665
538.16        62.68406
538.60        62.69981
539.04        62.66897
539.47        62.60175
539.91        62.68015
540.35        62.83703
540.79        62.79957
541.22        62.59371
541.66        62.51613
542.10        62.57523
542.54        62.60366
542.97        62.59958
543.41        62.65857
543.85        62.76657
544.29        62.91279
544.72        63.02242
545.16        62.99572
545.60        62.81097
546.04        62.52872
546.47         62.2675
546.91        62.16489
547.35        62.28896
547.79        62.73702
548.22        63.27395
548.66        63.45104
549.10        63.16019
549.53        62.44841
549.97        61.63667
550.41        61.26517
550.84         61.4339
551.28        61.92878
551.72        62.53901
552.15        62.90786
552.59        62.92018
553.03        62.86357
553.46        62.52637
553.90        62.38089
554.34        62.38872
554.77        62.41079
555.21        62.40289
555.65        62.52431
556.08        62.78238
556.52        62.33987
556.96        62.65421
557.39        62.55967
557.83        62.51905
558.27        62.47028
558.70        62.44861
559.14         62.5316
559.57        62.70128
560.01        62.85989
560.45        62.97364
560.88        63.19513
561.32         63.4352
561.75        63.22889
562.19        62.72427
562.63        62.42273
563.06        62.38244
563.50        62.40835
563.93        62.45411
564.37        62.56668
564.80        62.68021
565.24        62.74317
565.68          62.737
566.11        62.70761
566.55        62.70655
566.98        62.64056
567.42         62.5624
567.85        62.64203
568.29        62.88785
568.72        62.94771
569.16        62.99186
569.60        63.38995
570.03        63.79822
570.47        63.99729
570.90        63.86626
571.34        62.22646
571.77         63.0409
572.21        63.41113
572.64        62.90155
573.08        62.11675
573.51        59.35382
573.95        61.57229
574.38         65.3095
574.82        63.94638
575.25         63.5316
575.69        61.40272
576.12         60.4687
576.56        59.48116
576.99        60.84422
577.42        63.51068
577.86        63.86347
578.29        63.32143
578.73        66.76628
579.16        61.54075
579.60        56.06345
580.03        58.28774
580.47        62.46604
580.90        63.58572
581.33        62.67382
581.77        61.87093
582.20        68.42618
582.64        68.46533
583.07        58.40539
583.51        56.87471
583.94        55.58541
584.37        57.86977
584.81        60.98316
585.24        64.23354
585.68        65.53815
586.11          64.907
586.54        60.38887
586.98        58.71854
587.41         58.7874
587.85        62.03979
588.28        64.37918
588.71        61.22434
589.15        59.38177
589.58        60.35163
590.01        60.90852
590.45         61.7966
590.88        62.33095
591.31        61.56689
591.75        61.05285
592.18        60.95242
592.61         62.1551
593.05        62.99038
593.48        65.41455
593.91        66.72176
594.35        61.42686
594.78        59.83829
595.21        59.26453
595.65        61.86149
596.08        64.60986
596.51         61.9374
596.94        60.14414
597.38        60.58978
597.81        62.93712
598.24        64.69957
598.68        63.28114
599.11        62.04015
599.54         64.8672
599.97        66.07545
600.41         61.5863
600.84        61.63842
601.27        63.03841
601.70        62.07513
602.14         62.1903
602.57        61.15862
603.00        61.33972
603.43        63.05758
603.87        64.41653
604.30        63.98831
604.73        61.85773
605.16        60.75814
605.60        61.42146
606.03        62.49412
606.46        63.52921
606.89        63.18679
607.32        61.17312
607.76        61.38329
608.19        63.19683
608.62        62.42379
609.05        61.33213
609.48        61.73426
609.92        61.58998
610.35        61.35058
610.78        63.35028
611.21        64.01385
611.64        60.85147
612.07        61.43896
612.50        61.91527
612.94        62.32227
613.37        61.71826
613.80        61.74633
614.23         62.2261
614.66        62.10699
615.09        62.48494
615.52        62.55804
615.96        62.48548
616.39        62.54935
616.82        61.70251
617.25        61.22635
617.68        61.71208
618.11        62.21482
618.54        62.69778
618.97        62.31514
619.40        61.44685
619.84        61.21456
620.27         62.3157
620.70        62.92841
621.13        63.10388
621.56        62.27735
621.99        61.49829
622.42        62.12285
622.85          63.875
623.28         63.7453
623.71        63.02442
624.14        63.01807
624.57        62.62049
625.00          62.542
625.43        62.57463
625.86        62.03222
626.29        62.16309
626.72        62.51303
627.15        62.31606
627.58        62.48574
628.01        62.63267
628.44        62.72062
628.87        62.81107
629.30        62.61509
629.73        63.03452
630.16        63.16592
630.59        63.02105
631.02        62.68127
631.45        62.21134
631.88        61.93952
632.31        61.90551
632.74        61.94953
633.17         62.0259
633.60        62.12392
634.03        62.21389
634.46        62.29572
634.89        62.35618
635.32        62.37569
635.75        62.35273
636.18        62.28591
636.61        62.20301
637.04        62.15559
637.47        62.15489
637.89        62.19682
638.32        62.23847
638.75        62.24638
639.18        62.20956
639.61        62.14769
640.04        62.06873
640.47        61.98354
640.90         61.9048
641.33        61.82541
641.76        61.74841
642.18        61.76954
642.61        61.89148
643.04        61.94605
643.47        61.86741
643.90        62.35492
644.33        62.10722
644.76        62.17493
645.18         62.1749
645.61        62.12682
646.04        62.02568
646.47        61.86848
646.90         61.7322
647.33        61.69923
647.75        61.79906
648.18        62.02814
648.61        62.23455
649.04        62.19356
649.47        61.86089
649.89        61.19639
650.32        60.52401
650.75        60.40306
651.18        60.85357
651.61        61.53379
652.03        62.11668
652.46        62.18954
652.89        62.00614
653.32         61.4838
653.74         61.0337
654.17        61.95272
654.60        62.89164
655.03        60.61893
655.46        61.23895
655.88        64.75873
656.31        69.51866
656.74        161.4152
657.16        105.3712
657.59        36.76863
658.02        27.06645
658.45        46.64617
658.87        59.39498
659.30        62.07273
659.73        61.19966
660.15        59.09169
660.58        61.25814
661.01        62.91448
661.44        61.02942
661.86        60.48302
662.29         60.5373
662.72        61.06147
663.14        61.92025
663.57        61.93594
664.00        61.27725
664.42         61.1973
664.85        61.73889
665.27        62.03957
665.70        61.95084
666.13         61.7609
666.55        61.46539
666.98        60.97168
667.41        60.44843
667.83        60.22448
668.26        60.36689
668.69        60.74783
669.11        61.14183
669.54        61.48318
669.96        61.12426
670.39        60.63961
670.82        60.08316
671.24        59.83972
671.67        60.01991
672.09        60.48718
672.52         60.9696
672.94        61.47377
673.37        60.92696
673.80        60.76803
674.22        60.76312
674.65        60.72801
675.07        60.66332
675.50         60.5722
675.92        60.49797
676.35        60.53901
676.77        60.70132
677.20        60.89098
677.62        61.06633
678.05        61.16133
678.47        61.15137
678.90        61.07652
679.32        60.98402
679.75        60.83699
680.17        60.89081
680.60        60.92445
681.02        60.97472
681.45         60.9374
681.87        60.80265
682.30        60.68117
682.72        60.60144
683.15        60.43299
683.57        60.29908
684.00        60.51132
684.42        61.14768
684.85        61.43868
685.27        61.37052
685.70        61.25336
686.12        61.14567
686.54        61.06972
686.97        61.04797
687.39        61.07258
687.82        61.08669
688.24        61.08429
688.66        61.02262
689.09        60.84179
689.51        60.63291
689.94        60.59502
690.36        60.76165
690.78        61.03554
691.21        61.32513
691.63        61.51348
692.06        61.56103
692.48        61.50351
692.90        61.40485
693.33        61.35484
693.75        61.38476
694.17        61.47741
694.60        61.59055
695.02        61.64779
695.44        61.60243
695.87        61.60666
696.29        61.70925
696.71        61.55696
697.14        61.30016
697.56        61.84721
697.98        62.92115
698.41        62.79783
698.83        62.11039
699.25        61.58169
699.68        61.49339
700.10        61.32008
700.52        61.10503
700.94        61.16014
701.37        61.43102
701.79        61.73882
702.21        62.00075
702.64        62.27111
703.06        62.46472
703.48        62.43481
703.90        62.17984
704.33        61.74606
704.75         61.2617
705.17        61.01733
705.59        61.09081
706.01        61.30431
706.44        61.54207
706.86        62.14472
707.28        62.22229
707.70        62.44755
708.12        62.56069
708.55        62.55272
708.97        62.41259
709.39        62.14869
709.81        61.85748
710.23        61.70044
710.66        61.72503
711.08        61.92276
711.50        62.15965
711.92        62.22823
712.34        62.08218
712.76        61.77066
713.19        61.44962
713.61        61.39648
714.03        61.65508
714.45        62.13792
714.87        62.62798
715.29        62.78473
715.71        62.53897
716.13         62.0028
716.56        61.40007
716.98        61.12024
717.40        61.25688
717.82        61.68476
718.24        62.21252
718.66        62.53572
719.08        62.54935
719.50        62.31128
719.92        61.95715
720.34        61.75675
720.76         61.7787
721.19        61.81784
721.61         62.0085
722.03        62.15307
722.45          62.269
722.87        62.37541
723.29        62.46764
723.71        62.52469
724.13        62.54197
724.55         62.5177
724.97          62.462
725.39        62.40178
725.81        62.34742
726.23        62.29705
726.65        62.25857
727.07        62.23701
727.49        62.23861
727.91        62.27723
728.33        62.33638
728.75        62.38591
729.17        62.41652
729.59        62.42114
730.01        62.45321
730.43        62.59265
730.85        62.84931
731.27        63.21855
731.69        63.57304
732.10         63.6888
732.52        63.52497
732.94        63.18607
733.36        62.87027
733.78        62.77689
734.20        62.96078
734.62        63.62694
735.04         64.5146
735.46        64.55177
735.88         63.9203
736.30         64.1016
736.72        65.07484
737.13        65.40549
737.55        64.89986
737.97        64.80843
738.39        65.12527
738.81        64.40211
739.23        63.08714
739.65        63.76836
740.06         65.9621
740.48         66.2053
740.90        64.55713
741.32        63.73888
741.74        64.02557
742.16        64.18437
742.57        64.27454
742.99        64.97176
743.41        66.04053
743.83         66.7057
744.25        66.81858
744.67        66.57313
745.08        66.18173
745.50        65.99574
745.92         66.1325
746.34        66.47163
746.75        66.87506
747.17        67.11174
747.59        67.13577
748.01        67.02218
748.42        66.92828
748.84        67.08109
749.26        67.52863
749.68        68.17252
750.09        68.82673
750.51         69.1904
750.93        69.20388
751.35        68.91037
751.76        68.47498
752.18        68.32353
752.60         68.4544
753.01        68.46748
753.43        68.37368
753.85        68.52862
754.27        68.94314
754.68        69.44514
755.10         69.9174
755.52        70.30875
755.93        70.55879
756.35        70.62208
756.77        70.62352
757.18        70.65968
757.60        70.76133
758.02         71.2144
758.43        71.74399
758.85        71.26169
759.26        70.10031
759.68        69.82555
760.10         70.4211
760.51        70.83914
760.93        70.79061
761.34        70.10056
761.76        69.68612
762.18        68.99942
762.59        68.55597
763.01        68.90469
763.42         69.9675
763.84        70.68986
764.26        70.90806
764.67        70.90952
765.09        70.75457
765.50        70.76712
765.92        70.80312
766.33        69.79037
766.75        68.18046
767.16        67.68753
767.58        68.44438
768.00        69.66723
768.41        71.00706
768.83        71.90602
769.24        72.00543
769.66        71.41697
770.07        70.50351
770.49        69.35645
770.90        68.32185
771.32        68.97555
771.73        70.79108
772.15        70.35567
772.56        68.09235
772.97        67.78748
773.39        69.33733
773.80        69.92489
774.22        69.34106
774.63        69.28899
775.05        69.73563
775.46         69.9128
775.88        69.74467
776.29        69.45777
776.70         69.1555
777.12           69.03
777.53         69.1408
777.95        69.38049
778.36        69.62584
778.77        69.66177
779.19        69.47337
779.60        69.12881
780.02        68.78184
780.43        68.75504
780.84        69.15002
781.26        69.45979
781.67        69.66774
782.09        70.58983
782.50         71.7498
782.91        70.96005
783.33        68.80533
783.74        68.06902
784.15        68.89075
784.57        69.44585
784.98        69.48278
785.39         69.5281
785.81        69.52042
786.22        69.18293
786.63        68.77433
787.04        68.81573
787.46        69.34859
787.87        70.18678
788.28        71.06825
788.70        71.52046
789.11         71.4173
789.52        71.00365
789.93        70.44994
790.35        69.79765
790.76        69.23032
791.17        69.14236
791.58        69.45169
792.00         69.6062
792.41         69.5362
792.82        69.52836
793.23        69.70164
793.65        69.84695
794.06        70.04298
794.47        70.95382
794.88        72.02238
795.29         71.5853
795.71        69.66582
796.12        68.03483
796.53        67.12313
796.94        66.84315
797.35        67.24935
797.76        68.22436
798.18        69.30042
798.59        69.98471
799.00        69.99762
799.41        69.28699
799.82        68.22997
800.23        67.61386
800.64        67.60999
801.06        67.90593
801.47        68.39635
801.88        68.80875
802.29        69.02744
802.70        69.17027
803.11        69.22665
803.52        69.15334
803.93        68.97617
804.34        68.66801
804.75        68.36924
805.17        68.39676
805.58        68.83449
805.99        69.35661
806.40        69.75087
806.81        70.24615
807.22        70.46869
807.63        69.20994
808.04        67.06777
808.45        66.10961
808.86        66.55642
809.27        67.42336
809.68        68.32073
810.09        68.92079
810.50        69.00146
810.91        68.68604
811.32        68.17123
811.73         67.7646
812.14        67.56709
812.55        67.46739
812.96        67.49225
813.37        67.62191
813.78        67.86752
814.19        68.43141
814.60         69.0203
815.01        69.02592
815.42        68.38157
815.83        67.26807
816.24        66.14256
816.65        65.76968
817.05        66.38045
817.46        67.72379
817.87        69.22168
818.28        69.83952
818.69        69.30404
819.10         67.8953
819.51         66.2643
819.92        65.51113
820.33        65.92588
820.74        67.16082
821.14        68.64011
821.55        69.33408
821.96        69.00262
822.37        68.00567
822.78        66.79477
823.19        66.02812
823.60        65.89563
824.00        66.20921
824.41        66.72691
824.82        67.15842
825.23        67.34721
825.64        67.41457
826.04        67.38052
826.45        67.24279
826.86        67.02505
827.27        66.69501
827.68        66.33105
828.08        66.11727
828.49        66.05919
828.90        66.17614
829.31        66.38486
829.72        66.50896
830.12        66.51311
830.53        66.41451
830.94        66.34184
831.35        66.46471
831.75         66.8548
832.16        67.40556
832.57        68.00293
832.97        68.39378
833.38        68.44393
833.79        68.21878
834.20        67.91439
834.60         67.8261
835.01        68.03616
835.42        68.44844
835.82        68.83323
836.23        68.72877
836.64        68.08627
837.04        67.09515
837.45        66.07943
837.86        65.54908
838.26        65.63805
838.67        66.15772
839.08        66.91632
839.48         67.5502
839.89        67.87971
840.29        68.02303
840.70        67.97208
841.11        67.70652
841.51        67.27448
841.92        66.64699
842.33         66.0276
842.73         65.7795
843.14        65.94141
843.54        66.45419
843.95        67.02897
844.35        67.22237
844.76        66.91145
845.17        66.26343
845.57         65.5052
845.98         64.9823
846.38        64.79761
846.79        64.82174
847.19        65.00439
847.60        65.19044
848.00        65.33721
848.41        65.45526
848.81        65.55112
849.22          65.547
849.62         65.4867
850.03        65.40136
850.43        65.32803
850.84        65.29651
851.24        65.35918
851.65        65.34261
852.05        65.48598
852.46        66.01257
852.86        66.91483
853.27        68.12998
853.67          68.992
854.07        68.59423
854.48        66.92857
854.88         64.3364
855.29        61.77774
855.69         60.6555
856.10        61.26905
856.50        63.39415
856.90         66.2935
857.31        68.20982
857.71        68.51081
858.12        67.61765
858.52        66.23556
858.92        65.29471
859.33        65.03208
859.73        65.16518
860.13        65.58088
860.54        66.07642
860.94        66.59139
861.34        67.19684
861.75        67.79918
862.15        68.30354
862.55        68.64434
862.96        68.81676
863.36         68.8577
863.76        68.83881
864.17        68.79639
864.57         68.7574
864.97        68.79277
865.38        69.00415
865.78         69.4349
866.18        69.97076
866.58         70.4934
866.99        70.78806
867.39        70.83181
867.79        70.71546
868.19        70.35734
868.60         69.6245
869.00        68.56779
869.40        67.27229
869.80         66.3129
870.21        66.54616
870.61        68.18979
871.01         70.9892
871.41        74.07912
871.81        75.96249
872.22        76.24203
872.62        75.29401
873.02        73.91866
873.42        73.67663
873.82         74.6241
874.22        75.73906
874.63        76.72667
875.03        77.01858
875.43        76.31404
875.83        76.27794
876.23        74.11027
876.63        72.63934
877.03        71.43867
877.44        70.50751
877.84        108.9564
878.24          76.996
878.64        78.95333
879.04        82.10584
879.44        76.91286
879.84        74.36121
880.24        80.73915
880.64        82.85098
881.04         82.1011
881.44        81.20731
881.84        80.32944
882.24        79.30554
882.65        78.61564
883.05        78.34679
883.45        78.51213
883.85        79.49686
884.25        80.91228
884.65        81.65478
885.05        81.44495
885.45        80.61391
885.85         79.7038
886.25        79.49098
886.65        80.12469
887.05        81.33429
887.45        82.72538
887.85        83.59905
888.25        83.69926
888.65         83.2487
889.04        82.51172
889.44         81.9398
889.84        81.66621
890.24        81.55212
890.64        81.50546
891.04        81.40417
891.44        81.19669
891.84        80.93983
892.24          80.682
892.64        80.46565
893.04        80.34834
893.44        80.38493
893.83        80.48676
894.23        80.53385
894.63        80.50493
895.03        80.34894
895.43        80.37527
895.83        81.13055
896.23        82.65237
896.63        84.74364
897.02        86.58271
897.42        86.84699
897.82        85.33495
898.22        82.56818
898.62        79.59308
899.01        77.93945
899.41        77.96778
899.81        79.15305
900.21        80.89584
900.61        82.21957
901.00        82.76531
901.40        82.83253
901.80        82.56655
902.20        82.17305
902.59        81.76291
902.99        81.23608
903.39        80.65029
903.79        80.16519
904.18        79.85163
904.58        79.77124
904.98        79.93994
905.38          80.339
905.77        80.90451
906.17        81.57434
906.57        82.23099
906.96        82.76417
907.36        83.05238
907.76        83.10247
908.15        82.91142
908.55        82.38248
908.95        81.60262
909.34        80.64271
909.74        79.66757
910.14        78.73633
910.53         77.9209
910.93        77.24114
911.33        76.94707
911.72        77.47428
912.12        78.70544
912.52        80.34583
912.91        81.86366
913.31        82.59419
913.70        82.48397
914.10        81.64987
914.49        80.25897
914.89        78.93127
915.29        78.10439
915.68        77.61666
916.08        77.57619
916.47        77.91237
916.87        78.55342
917.26        79.55645
917.66        80.51526
918.05        80.78654
918.45        80.23812
918.84        79.08276
919.24        77.87373
919.64         77.4306
920.03        77.95522
920.42        79.19154
920.82        80.72603
921.21        81.94164
921.61        82.43895
922.00        82.44587
922.40         81.9883
922.79        81.16977
923.19        80.18917
923.58        78.76606
923.98         77.0041
924.37        76.18332
924.77        76.87955
925.16        74.21557
925.55        76.69549
925.95        77.43723
926.34        78.87834
926.74        80.55835
927.13        82.12246
927.52        82.60773
927.92        81.89878
928.31        80.35957
928.70        78.42528
929.10        76.88291
929.49        75.94019
929.89        75.40803
930.28        75.43768
930.67        76.27249
931.07        77.72957
931.46         79.8088
931.85        81.66285
932.24        82.02519
932.64        80.69315
933.03        77.81316
933.42        74.26889
933.82        72.02499
934.21        71.65164
934.60        72.64542
934.99        73.88401
935.39        74.30797
935.78        73.76746
936.17        71.70104
936.56        67.99258
936.96        69.95084
937.35        68.61385
937.74        70.80882
938.13        72.80365
938.53        74.38255
938.92        75.63371
939.31        76.88102
939.70        77.92992
940.09        77.96053
940.49        76.85842
940.88        75.00199
941.27         73.2025
941.66        72.42942
942.05        72.76596
942.44        73.89507
942.84        75.42306
943.23        76.66866
943.62        77.27376
944.01        77.43758
944.40        77.15106
944.79        76.39455
945.18        75.19334
945.57        73.42561
945.97        71.47545
946.36        70.29308
946.75         70.3157
947.14        71.21911
947.53        72.32948
947.92        72.91277
948.31        72.89774
948.70        72.50815
949.09        71.92634
949.48        71.58096
949.87        71.66237
950.26        71.95854
950.65        72.40543
951.04        72.94751
951.43        73.51353
951.82        74.13465
952.21        74.54258
952.60        74.30598
952.99        73.36671
953.38        71.84621
953.77        70.20992
954.16          69.132
954.55        68.77517
954.94        69.07117
955.33        69.52195
955.72        69.26414
956.11        68.12277
956.50        66.30356
956.89        64.68279
957.28         64.8379
957.66        67.18031
958.05        70.93571
958.44        74.77924
958.83        76.77081
959.22        76.47444
959.61        74.43012
960.00        71.62087
960.39        69.68124
960.78        69.12421
961.16        69.51745
961.55        70.24607
961.94        70.21359
962.33        69.16218
962.72        67.62454
963.11        66.13941
963.49        65.34162
963.88        65.34203
964.27        65.89764
964.66        66.79419
965.04        67.60983
965.43        68.01229
965.82        68.14834
966.21        68.07693
966.60        67.88512
966.98        67.64697
967.37          67.273
967.76         66.8467
968.15         66.5517
968.53        66.45055
968.92        66.44994
969.31        66.50514
969.69        66.49996
970.08        66.39664
970.47        66.26009
970.86        65.99583
971.24        65.43293
971.63        64.58718
972.02        63.49787
972.40         62.4897
972.79        62.16948
973.17        62.77866
973.56        64.10339
973.95        65.75088
974.33         66.8923
974.72        67.10269
975.11        66.54787
975.49        65.66779
975.88        65.14436
976.26        65.07904
976.65        65.33425
977.04        65.38523
977.42        64.15385
977.81        61.53381
978.19        58.13052
978.58        55.42817
978.96        54.77348
979.35        56.33298
979.74        59.93745
980.12        64.78864
980.51          67.989
980.89         68.5978
981.28        67.21552
981.66        65.30549
982.05        64.78733
982.43        65.91125
982.82        67.89528
983.20        70.13197
983.59         71.7972
983.97        72.69058
984.35        73.08125
984.74        72.78291
985.12        71.75009
985.51        69.94492
985.89        67.33186
986.28        64.48127
986.66        62.06878
987.04        60.58693
987.43         60.0526
987.81        59.91695
988.20         59.3162
988.58        57.87909
988.96        55.19066
989.35        51.79673
989.73        50.52324
990.12        53.28916
990.50        58.88858
990.88        63.46783
991.27        63.90948
991.65         60.7827
992.03        55.01048
992.42        49.11613
992.80        47.54538
993.18        51.27365
993.56         57.6198
993.95        64.08179
994.33        68.54234
994.71         70.5405
995.10        71.21389
995.48        70.68579
995.86        68.85484
996.24          65.844
996.63        61.24237
997.01        56.23935
997.39        54.59685
997.77        57.84608
998.15          65.198
998.54        72.96013
998.92        76.04925
999.30        73.01289
999.68        65.02092
1000.06        54.41055
1000.45         46.9537
1000.83        45.00558
1001.21        46.73811
1001.59        50.14209
1001.97        53.02722
1002.35        54.83084
1002.73        56.49612
1003.12        57.55386
1003.50        56.41373
1003.88        52.92664
1004.26        48.15321
1004.64        43.84217
1005.02        41.30093
1005.40        40.45372
1005.78        40.95681
1006.16         44.0013
1006.54        50.47298
1006.92        57.16496
1007.30        61.70844
1007.69        63.57225
1008.07        63.34148
1008.45         60.9066
1008.83        54.35363
1009.21        36.66945
1009.59       -11.33085
1009.97       -116.6775
1010.35       -225.8066
1010.73       -167.5017
1011.11       -77.00571
1011.49       -21.32778
1011.86         14.9916
1012.24        34.61147
1012.62        42.68663
1013.00         43.8806
1013.38        39.83301
1013.76         32.4212
1014.14        29.27567
1014.52        36.95955
1014.90        56.88509
1015.28        83.08437
1015.66        95.68855
1016.04        83.26984
1016.41        52.14925
1016.79        19.65315
1017.17        2.778925
1017.55       0.6393961
1017.93        3.986978
1018.31        9.281672
1018.69        15.83435
1019.06        23.94789
1019.44        35.01125
1019.82        50.79828
1020.20        68.16803
1020.58        80.33768
1020.95        78.10625
1021.33        27.58457
1021.71        936.7365
1022.09        207.9096
1022.46        172.6111
1022.84         166.507
1023.22        177.0453
1023.60        218.7468
1023.97        650.7754
1024.35       -85.51124
1024.73       -6.566235
