SpectraSmart Spectrum 2.9.0.0
--------- Device Information -----------
Spectrum Name :  反射率_0
Saving Time :  2024/04/26 01:26:01
Spectro-Module Model Name : SE2030-DUVN
Spectro-Module Serial Number : OS361AC55029948
Wavelength Start : 200
Wavelength End : 1025
Wavelength Unit : Wavelength(nm)
Spectrum Unit : Reflectance(%)
-----------Spectrum Setting ------------
Integration Time : 20ms
Average : 10
Boxcar : 0
Background removal :  enabled
linearity correction :  enabled
SC :  disabled
Intensity correction :  disabled
DWT denoise :  enabled
savitzky-golay :  disabled
FFT :  disabled
Running average :  disabled
Kalman :  disabled
High pass :  disabled
---------------BEGIN--------------------
Wavelength(nm)             Reflectance(%)
200.29               0
200.75        98.50439
201.21        88.37607
201.67         75.7254
202.13        66.97443
202.58        63.19896
203.04        63.05187
203.50        65.33351
203.96         67.9455
204.42        69.79201
204.88        71.22878
205.34        72.77377
205.80        75.33824
206.26        79.93443
206.72        88.85307
207.18        104.4722
207.64        114.4456
208.10        99.41331
208.55        77.23748
209.01        65.03758
209.47        62.85776
209.93        66.75233
210.39        75.09992
210.85        84.93842
211.31        89.15046
211.77        85.16543
212.23        75.70615
212.69        65.34132
213.14        61.13807
213.60        64.43451
214.06         73.1279
214.52        83.77944
214.98        91.12608
215.44        93.47313
215.90        92.43414
216.36        89.59937
216.81        86.95832
217.27        85.52544
217.73        84.62537
218.19         83.2574
218.65        80.01096
219.11        74.04747
219.57        64.37535
220.02         52.0006
220.48        44.01157
220.94        44.57963
221.40         52.4117
221.86        60.03411
222.32        59.34425
222.77        51.37119
223.23        40.66768
223.69        31.98364
224.15        30.19565
224.61        34.62453
225.06        42.67017
225.52        50.73006
225.98        54.24368
226.44         52.4149
226.90        47.25018
227.36        41.20509
227.81        37.57807
228.27        37.39155
228.73        39.23583
229.19        42.03043
229.65        44.21689
230.10        45.26095
230.56        45.75893
231.02         45.8902
231.48        45.76067
231.93         45.4683
232.39        44.96809
232.85        44.39714
233.31         44.0821
233.77        44.07089
234.22        44.26168
234.68        44.58081
235.14        44.76645
235.60        44.74184
236.05        44.67813
236.51        44.50867
236.97        44.06577
237.43        43.36892
237.88        42.42497
238.34        41.71732
238.80        42.61902
239.26        45.64716
239.71        50.53342
240.17        55.89185
240.63        59.69412
241.08        61.36887
241.54        61.33225
242.00        60.49952
242.46        60.29924
242.91        61.62627
243.37        65.04939
243.83        77.20492
244.28        124.8303
244.74        194.0403
245.20        176.1367
245.66        149.2923
246.11        139.7207
246.57          139.53
247.03        146.0846
247.48        158.4086
247.94        114.7623
248.40        91.88963
248.85        89.34527
249.31        90.23573
249.77        91.29189
250.22         92.4379
250.68        94.17139
251.14        95.87637
251.59         94.4647
252.05        88.59335
252.51         80.6151
252.96         73.5828
253.42        70.12114
253.88        69.38608
254.33        70.34804
254.79        72.87691
255.25        76.06983
255.70        79.06304
256.16        81.89026
256.62        83.27614
257.07        81.94356
257.53        78.64832
257.99        73.80285
258.44        68.90169
258.90        66.57198
259.35        65.99313
259.81        66.26507
260.27        65.70573
260.72        62.67696
261.18        57.92875
261.63        52.24144
262.09        47.14039
262.55        43.75757
263.00        42.02464
263.46        41.39107
263.91        41.02075
264.37        40.27529
264.83        38.97145
265.28         37.2572
265.74        35.57088
266.19        34.32696
266.65        33.72045
267.11        33.48967
267.56        33.28834
268.02        32.68522
268.47        31.58683
268.93        30.15312
269.38        28.60559
269.84        27.53874
270.30         27.1015
270.75        27.13282
271.21        27.32275
271.66        27.20986
272.12        26.66841
272.57        25.85385
273.03         25.0055
273.48        24.40543
273.94        24.14629
274.39        24.08236
274.85        24.07765
275.31        23.93539
275.76        23.59493
276.22        23.15133
276.67        22.65675
277.13        22.26444
277.58        21.96468
278.04        21.73076
278.49        21.48219
278.95        21.15488
279.40        20.71467
279.86        20.24498
280.31        19.75149
280.77        19.34014
281.22        19.00124
281.68        18.72713
282.13        18.51468
282.59        18.38273
283.04        18.31677
283.50        18.33152
283.95        18.34339
284.41        18.23749
284.86        17.99435
285.32        17.65726
285.77        17.34995
286.22        17.31451
286.68        17.55826
287.13         17.9765
287.59        18.36767
288.04        18.43272
288.50        18.14088
288.95        17.59056
289.41        16.97717
289.86        16.49688
290.32        16.25905
290.77         16.1887
291.22        16.26577
291.68        16.42373
292.13        16.64017
292.59         16.9347
293.04        17.30712
293.50        17.75062
293.95         18.2416
294.40        18.74244
294.86        19.21238
295.31        19.60915
295.77        19.93427
296.22        20.21494
296.68         20.4785
297.13        20.73912
297.58        21.03345
298.04        21.38015
298.49        21.83495
298.95        22.51383
299.40        23.41747
299.85        24.50284
300.31        25.65191
300.76        26.68492
301.21        27.53044
301.67        28.25106
302.12        28.87538
302.58        29.51047
303.03        30.17515
303.48        30.85376
303.94        31.59999
304.39        32.45791
304.84        33.43548
305.30        34.51867
305.75        35.59529
306.20        36.49905
306.66        37.21671
307.11        37.77469
307.57        38.30886
308.02        38.94694
308.47        39.75905
308.93        40.70568
309.38        41.71743
309.83        42.71757
310.29        43.65956
310.74        44.53923
311.19        45.37541
311.65          46.202
312.10        47.02296
312.55        47.83532
313.00        48.56605
313.46        49.10303
313.91        49.42318
314.36        49.58315
314.82        49.75214
315.27        50.16487
315.72        50.88768
316.18        51.84872
316.63        52.89104
317.08         53.7172
317.53        54.23466
317.99        54.51048
318.44         54.6984
318.89        55.05662
319.35        55.63754
319.80        56.37754
320.25         57.0943
320.70        57.48836
321.16        57.49623
321.61        57.22565
322.06          56.891
322.51        56.82393
322.97          57.092
323.42        57.61803
323.87        58.22668
324.32        58.61589
324.78        58.69044
325.23        58.56749
325.68        58.36495
326.13         58.2905
326.59        58.39751
327.04        58.64121
327.49        58.96265
327.94        59.28631
328.39        59.57846
328.85        59.85387
329.30        60.14766
329.75        60.40801
330.20        60.63837
330.66        60.83196
331.11        61.06067
331.56          61.386
332.01        61.83254
332.46        62.36923
332.92        62.96053
333.37        63.64745
333.82        64.35978
334.27        65.09358
334.72        65.73243
335.17        66.09261
335.63        66.14552
336.08        65.96981
336.53        65.75176
336.98        65.82389
337.43        66.26877
337.88        66.99518
338.34        67.82838
338.79         68.5443
339.24        69.03191
339.69        69.37756
340.14        69.62126
340.59         69.8311
341.05        70.03986
341.50         70.1982
341.95        70.37079
342.40        70.68151
342.85        71.15086
343.30        71.76899
343.75        72.39079
344.20        72.75002
344.66        72.79208
345.11        72.57095
345.56        72.29147
346.01        72.26708
346.46        72.56322
346.91        73.08904
347.36         73.6446
347.81        73.91698
348.26        73.84975
348.72        73.57531
349.17        73.26817
349.62         73.2702
350.07        73.65665
350.52        74.29415
350.97        75.00867
351.42        75.54522
351.87        75.82879
352.32        75.94186
352.77        75.93633
353.22        75.89347
353.67        75.85046
354.13        75.78288
354.58        75.69729
355.03        75.66336
355.48        75.68458
355.93        75.75277
356.38        75.79935
356.83        75.70514
357.28        75.44635
357.73         75.0601
358.18        74.62064
358.63        74.24602
359.08        73.97372
359.53        73.77969
359.98        73.61269
360.43        73.39111
360.88        73.09168
361.33        72.73121
361.78        72.37012
362.23        72.10424
362.68         71.9482
363.13        71.87064
363.58        71.76752
364.03        71.47784
364.48        70.97798
364.93        70.32566
365.38        69.65501
365.83        69.18294
366.28        68.95603
366.73        68.89523
367.18        68.88958
367.63        68.75598
368.08        68.44479
368.53        68.03474
368.98        67.56084
369.43         67.0679
369.88        66.58703
370.33        66.09671
370.78         65.6715
371.23        65.44356
371.68        65.42783
372.13        65.58534
372.58        65.78374
373.03        65.79034
373.48        65.54778
373.93        65.13272
374.38        64.65288
374.83        64.27547
375.28        64.05077
375.72         63.9148
376.17        63.86237
376.62        63.85474
377.07         63.8606
377.52         63.8795
377.97        63.87015
378.42        63.76258
378.87        63.54712
379.32        63.25321
379.77        62.90458
380.22        62.53723
380.67        62.16814
381.11        61.79145
381.56        61.45051
382.01        61.22073
382.46        61.11874
382.91        61.13686
383.36        61.18373
383.81        61.10825
384.26        60.88131
384.71        60.53974
385.15        60.18358
385.60        60.02406
386.05        60.05826
386.50        60.20931
386.95        60.34344
387.40        60.24055
387.85        59.87764
388.29        59.34475
388.74        58.83323
389.19        58.39862
389.64        58.06764
390.09        57.79229
390.54        57.63284
390.98        57.68839
391.43        57.94039
391.88        58.32183
392.33        58.65749
392.78        58.60707
393.23        58.14676
393.67        57.60617
394.12        57.18169
394.57         56.4846
395.02        55.80608
395.47        56.18948
395.91        57.45863
396.36        58.16294
396.81        58.12676
397.26        58.09237
397.71        58.10199
398.15        57.85865
398.60          57.473
399.05        57.04705
399.50        56.65371
399.95        56.18942
400.39        55.95016
400.84        55.85852
401.29        55.93382
401.74        55.97915
402.18        55.97093
402.63        55.94535
403.08        55.97422
403.53        56.12328
403.97         56.3955
404.42        56.75199
404.87        57.03708
405.32        56.99344
405.76        56.57803
406.21        55.92875
406.66        55.27119
407.11        54.93766
407.55        55.00909
408.00        55.37486
408.45         55.8711
408.90        56.14244
409.34        56.07209
409.79        55.79672
410.24        55.46255
410.68        55.26371
411.13        55.26775
411.58        55.38762
412.03        55.60181
412.47         55.8923
412.92        56.18466
413.37        56.50393
413.81        56.76582
414.26         56.8763
414.71        56.80609
415.15        56.57054
415.60        56.26231
416.05         56.0575
416.49        56.00829
416.94        56.09034
417.39        56.19102
417.83        56.10195
418.28        55.80301
418.73        55.37878
419.17        55.01227
419.62        54.99112
420.07        55.33355
420.51        55.93147
420.96        56.58577
421.41        56.90105
421.85        56.75706
422.30        56.52323
422.74        56.25762
423.19        55.75971
423.64         55.2383
424.08        55.54146
424.53        56.50404
424.98        57.02199
425.42         56.9585
425.87        57.05582
426.31        57.33556
426.76        57.19508
427.21        56.83595
427.65        57.10937
428.10        57.91953
428.54        58.58255
428.99        59.03904
429.44        59.24919
429.88        59.23597
430.33        59.84343
430.77        60.55611
431.22        59.52415
431.66        57.27522
432.11        56.23097
432.56         56.6347
433.00        57.41544
433.45        58.40578
433.89        60.08207
434.34        61.25723
434.78        62.02628
435.23        58.88001
435.67        57.12221
436.12        59.10602
436.57        60.13984
437.01        60.76703
437.46        61.11012
437.90         61.2929
438.35         60.8736
438.79        61.37757
439.24        61.33565
439.68        61.22436
440.13        61.04392
440.57        61.02872
441.02        61.74025
441.46        62.89421
441.91        63.69643
442.35        63.87668
442.80        63.25175
443.24        62.18831
443.69        62.57291
444.13        64.09381
444.58        63.99537
445.02        62.49132
445.47        62.26466
445.91        63.24584
446.36        63.56713
446.80        63.15439
447.24        63.17188
447.69        63.30735
448.13        63.54505
448.58        63.78004
449.02        64.05676
449.47        64.33316
449.91        64.56377
450.36        64.73597
450.80        64.83589
451.25        64.86929
451.69        64.82039
452.13        64.71559
452.58        64.56857
453.02        64.42838
453.47        64.40501
453.91        64.49643
454.36        64.67487
454.80        64.87244
455.24        64.87098
455.69        64.64574
456.13        64.44344
456.58        64.34805
457.02        63.88019
457.46        63.43752
457.91        63.82619
458.35        64.81584
458.79        65.22428
459.24        65.01551
459.68        64.65125
460.13        64.25459
460.57        64.09219
461.01        64.32972
461.46         63.3919
461.90        63.88789
462.34        63.93336
462.79         63.5071
463.23        63.65184
463.68        64.08344
464.12        64.32364
464.56        64.42843
465.01        64.54642
465.45        64.57209
465.89        64.49509
466.34         64.2488
466.78        63.33995
467.22         62.2474
467.67         61.8597
468.11        62.99501
468.55         63.6038
468.99        63.64941
469.44        63.33883
469.88        62.86571
470.32        62.87172
470.77        63.28212
471.21        63.32351
471.65         62.9515
472.10        62.74364
472.54        62.78908
472.98        62.88884
473.42        63.02373
473.87        63.49762
474.31        64.06059
474.75        63.79826
475.20        62.94834
475.64        62.80965
476.08        63.37234
476.52        63.48289
476.97        63.10112
477.41        63.11457
477.85        63.57213
478.29        63.19782
478.74        63.38444
479.18         63.5314
479.62        62.84504
480.06        63.06037
480.50        63.60005
480.95        63.97778
481.39          64.129
481.83        63.20071
482.27        63.47525
482.72        63.25107
483.16         62.1454
483.60        62.33894
484.04        63.54845
484.48        63.96541
484.93        64.04354
485.37        65.57909
485.81        66.20151
486.25        65.52573
486.69        89.37777
487.14        72.11558
487.58        44.46528
488.02        55.22875
488.46        62.30701
488.90        61.70607
489.34        63.06279
489.79        63.04465
490.23        64.38853
490.67         65.0592
491.11        63.96126
491.55        64.01438
491.99        64.76913
492.43        64.74291
492.88        64.01817
493.32        63.99036
493.76        64.23149
494.20        64.53841
494.64        64.67989
495.08         64.9054
495.52        65.21916
495.96        65.19822
496.41        64.85606
496.85        65.27805
497.29        66.17092
497.73        65.01581
498.17        62.81506
498.61        63.02677
499.05        65.61714
499.49        66.18736
499.93        66.12358
500.37         65.8673
500.82        65.38065
501.26        65.58832
501.70        66.20258
502.14        66.44297
502.58        66.18169
503.02        65.98816
503.46         65.8756
503.90         65.4951
504.34        64.99502
504.78        64.78841
505.22        64.92917
505.66        65.28629
506.10        65.72507
506.54        65.98579
506.98        65.95184
507.42        65.74884
507.86        65.56532
508.30        65.01023
508.74        65.39293
509.18        65.56754
509.62        65.81234
510.06        65.98406
510.50         66.0475
510.94        66.03731
511.38        65.98149
511.82         65.9491
512.26        65.95932
512.70        65.98629
513.14        66.02757
513.58        66.08749
514.02        66.15333
514.46        66.21642
514.90        66.26281
515.34        66.24999
515.78        66.16129
516.22        66.08716
516.66        66.02793
517.10         65.7903
517.54        65.38584
517.98        65.53194
518.42        65.28806
518.86        65.44678
519.30         65.7071
519.74        66.11518
520.18        66.54562
520.62        66.78474
521.06        66.79416
521.50        66.63103
521.93        66.38088
522.37        66.19028
522.81        66.11451
523.25        66.10965
523.69        66.16932
524.13         66.2821
524.57        66.43267
525.01          66.632
525.45        66.82852
525.89        66.93301
526.32        66.91893
526.76        66.79953
527.20        66.63927
527.64        66.56443
528.08        66.61614
528.52        66.70496
528.96        66.73066
529.40        66.72317
529.83        66.69781
530.27        65.98089
530.71        65.98033
531.15         65.8043
531.59        65.87737
532.03        66.10606
532.46        66.43893
532.90        66.75886
533.34        66.99984
533.78        67.18983
534.22        67.30109
534.66        67.30128
535.09        67.18517
535.53         66.9851
535.97        66.74335
536.41        66.55251
536.85        66.44686
537.28        66.41701
537.72        66.43825
538.16        66.47562
538.60        66.51385
539.04        66.50671
539.47        66.46972
539.91        66.60472
540.35        66.83923
540.79         66.8835
541.22        66.73962
541.66        66.68386
542.10        66.72062
542.54        66.68362
542.97         66.6136
543.41        66.67866
543.85        66.87669
544.29        67.17702
544.72        67.45103
545.16        67.51362
545.60        67.32317
546.04        66.97202
546.47        66.63399
546.91        66.51302
547.35        66.70111
547.79        67.32111
548.22        68.06793
548.66        68.30708
549.10        67.92651
549.53        67.13914
549.97        66.30363
550.41         65.8902
550.84        66.01128
551.28        66.59969
551.72        67.22871
552.15        67.64867
552.59        67.67786
553.03        67.51924
553.46        67.31658
553.90        67.00561
554.34        67.20947
554.77        67.31614
555.21        67.42315
555.65        67.60519
556.08        67.86461
556.52        67.39843
556.96        67.80113
557.39        67.57915
557.83        67.62882
558.27        67.57411
558.70        67.57331
559.14        67.67703
559.57        67.86136
560.01        68.08491
560.45         68.2706
560.88         68.3932
561.32        68.41253
561.75        68.15005
562.19        67.76107
562.63        67.46507
563.06        67.35373
563.50         67.5554
563.93        67.92558
564.37        68.09041
564.80        67.98141
565.24        67.83019
565.68         67.6953
566.11        67.61392
566.55        67.66058
566.98         67.7483
567.42        67.87867
567.85        68.18807
568.29        68.64053
568.72        68.73221
569.16        68.66379
569.60        69.15289
570.03        69.61147
570.47        69.66988
570.90        69.57204
571.34        67.71541
571.77         68.6731
572.21         68.9195
572.64        68.49109
573.08        67.45168
573.51        64.42903
573.95        67.04369
574.38           71.62
574.82        69.59849
575.25        69.33484
575.69        67.00568
576.12        65.81575
576.56        65.14726
576.99        66.27638
577.42         69.6935
577.86         69.7682
578.29        68.94388
578.73        73.31434
579.16        67.34601
579.60        61.35259
580.03         63.9038
580.47        67.97346
580.90          70.103
581.33        68.57454
581.77         67.7483
582.20        74.87875
582.64         74.5426
583.07        63.60313
583.51        62.17352
583.94        60.95633
584.37        63.65411
584.81        66.95587
585.24        70.52464
585.68        72.07674
586.11        70.99636
586.54        66.24885
586.98         64.0414
587.41         64.2606
587.85        67.84089
588.28        70.68633
588.71        67.10905
589.15        64.68423
589.58        66.30703
590.01        66.22048
590.45        67.20467
590.88        68.09901
591.31        67.41842
591.75        66.85703
592.18        66.84797
592.61        68.43878
593.05         68.7308
593.48        72.03556
593.91        72.95934
594.35         67.0108
594.78         65.3707
595.21        64.93729
595.65        67.80865
596.08        70.54873
596.51         67.7171
596.94        65.84814
597.38        66.45285
597.81        69.04089
598.24        71.08635
598.68         69.5098
599.11        68.46922
599.54        71.15238
599.97        73.01516
600.41        67.66326
600.84         67.9252
601.27          69.629
601.70        68.14005
602.14        68.46991
602.57        67.40805
603.00        67.97488
603.43         69.6149
603.87        71.36544
604.30        70.93756
604.73        68.75344
605.16        67.29288
605.60        68.13235
606.03        69.30183
606.46        70.46198
606.89        70.29306
607.32        68.12347
607.76        68.01184
608.19        70.40178
608.62        69.59998
609.05        68.43268
609.48        68.79765
609.92        68.52765
610.35         67.9641
610.78        70.46797
611.21        71.37897
611.64        67.82786
612.07        68.46883
612.50          68.967
612.94        69.42689
613.37        68.78291
613.80        69.14559
614.23        69.60376
614.66        69.58523
615.09        69.79776
615.52        69.78841
615.96        69.70773
616.39         69.7748
616.82        68.81359
617.25         68.7658
617.68        69.46585
618.11        70.12029
618.54        70.46611
618.97        69.92642
619.40        68.96356
619.84        68.57928
620.27        69.79809
620.70        70.49239
621.13        70.70425
621.56        70.06528
621.99        68.96082
622.42        69.60243
622.85        71.50596
623.28        71.54116
623.71        71.05038
624.14        70.96633
624.57        70.44817
625.00        69.99731
625.43         70.4155
625.86        69.92473
626.29        70.15968
626.72        70.49879
627.15        70.28389
627.58        70.36893
628.01        70.38644
628.44        70.41721
628.87        70.62406
629.30        70.28029
629.73        71.09946
630.16        71.61671
630.59        70.88845
631.02        70.45289
631.45        70.05506
631.88         69.7465
632.31        69.54572
632.74        69.73437
633.17        69.77703
633.60        69.90477
634.03        69.93596
634.46        69.92762
634.89        69.89171
635.32        69.85805
635.75        69.84438
636.18        69.82043
636.61        69.80899
637.04        69.85892
637.47        69.96936
637.89        70.13303
638.32        70.27244
638.75        70.30428
639.18        70.20738
639.61        70.01707
640.04        69.77745
640.47        69.55809
640.90        69.39098
641.33        69.25646
641.76        69.14426
642.18        69.13598
642.61        69.22598
643.04        69.23671
643.47        69.10117
643.90        69.60738
644.33        69.30775
644.76        69.37374
645.18        69.37224
645.61         69.3252
646.04        69.22144
646.47        69.03511
646.90        68.88341
647.33        68.91874
647.75        69.17842
648.18        69.65202
648.61        70.09781
649.04        70.12338
649.47        69.67399
649.89        68.79864
650.32        67.94075
650.75        67.79859
651.18        68.40429
651.61        69.36315
652.03        70.21297
652.46        70.29188
652.89        69.90156
653.32        69.15537
653.74        68.63263
654.17        69.78072
654.60        70.99251
655.03        68.82907
655.46        69.53069
655.88         72.9333
656.31        78.71023
656.74         180.666
657.16        117.6209
657.59        41.14684
658.02        30.61601
658.45        52.94751
658.87         67.3746
659.30        70.42209
659.73         69.7112
660.15        67.20872
660.58         69.6417
661.01        71.33793
661.44        69.07253
661.86        68.35326
662.29        68.37594
662.72        69.14239
663.14        70.39876
663.57        70.35539
664.00        69.26022
664.42        69.06255
664.85        69.83401
665.27        70.25162
665.70         70.1479
666.13        70.09203
666.55        70.02777
666.98        69.58934
667.41        68.95948
667.83        68.69724
668.26        68.87746
668.69         69.2298
669.11         69.5506
669.54        69.89249
669.96        69.54018
670.39        69.18331
670.82        68.77383
671.24        68.47189
671.67        68.46227
672.09        68.83941
672.52        69.34764
672.94        70.22833
673.37        69.81097
673.80        69.60767
674.22        69.29452
674.65        69.15108
675.07        69.20369
675.50        69.14949
675.92         69.0321
676.35        69.09958
676.77        69.35766
677.20        69.65765
677.62        69.92696
678.05        70.05207
678.47        69.99792
678.90        69.82698
679.32        69.63116
679.75        69.42314
680.17        69.50903
680.60        69.62458
681.02        69.77866
681.45        69.80006
681.87        69.66132
682.30        69.49714
682.72        69.37154
683.15        69.19042
683.57        69.09473
684.00        69.42788
684.42        70.17904
684.85        70.49972
685.27        70.34723
685.70        70.08583
686.12        69.82377
686.54         69.6528
686.97         69.6106
687.39         69.6781
687.82        69.77109
688.24        69.80618
688.66          69.743
689.09        69.62597
689.51         69.5149
689.94        69.49683
690.36        69.60432
690.78        69.72926
691.21        69.85393
691.63        70.11523
692.06        70.42141
692.48         70.4363
692.90        70.21919
693.33        70.15415
693.75        70.26798
694.17        70.35278
694.60        70.39984
695.02        70.44536
695.44        70.44993
695.87        70.65166
696.29        70.99361
696.71         70.7088
697.14        70.04827
697.56        70.48651
697.98        71.71339
698.41        71.78895
698.83         70.7822
699.25        70.26709
699.68        70.34869
700.10        70.29121
700.52        70.11346
700.94        70.22103
701.37        70.55806
701.79        70.90758
702.21         71.1832
702.64        71.44371
703.06        71.60992
703.48        71.55139
703.90        71.27517
704.33        70.82504
704.75        70.33587
705.17        70.11627
705.59        70.24292
706.01        70.51869
706.44        70.82282
706.86        71.50681
707.28        71.53748
707.70         71.8067
708.12        72.04005
708.55        71.69847
708.97        71.68285
709.39        71.28008
709.81        70.88959
710.23        70.70504
710.66        70.79253
711.08        71.12077
711.50        71.50178
711.92        71.66938
712.34        71.55531
712.76        71.22167
713.19         70.8536
713.61        70.78358
714.03        71.06727
714.45        71.59959
714.87        72.13436
715.29        72.28574
715.71        71.97613
716.13        71.33956
716.56        70.63412
716.98         70.2893
717.40        70.40878
717.82        70.88655
718.24        71.51724
718.66        71.81538
719.08        71.88616
719.50          71.672
719.92         71.3646
720.34        71.17936
720.76        71.18596
721.19        71.18616
721.61        71.35668
722.03        71.49728
722.45        71.63924
722.87        71.79957
723.29        71.95515
723.71        72.05083
724.13        72.07524
724.55        72.03783
724.97        71.97058
725.39        71.93673
725.81        71.95226
726.23        71.99657
726.65        72.05795
727.07        72.11266
727.49        72.15601
727.91        72.21074
728.33        72.25589
728.75        72.25563
729.17        72.20474
729.59        72.09873
730.01        72.01834
730.43        72.08459
730.85        72.31934
731.27          72.717
731.69        73.11785
732.10        73.24097
732.52        73.03025
732.94        72.60501
733.36        72.21278
733.78        72.11935
734.20        72.39426
734.62        73.25736
735.04        74.36466
735.46        74.44707
735.88        73.71673
736.30        73.79929
736.72        74.72453
737.13        75.23649
737.55        75.03511
737.97        74.82627
738.39        74.69981
738.81        73.96497
739.23        73.02934
739.65        73.80112
740.06         75.7909
740.48         75.9371
740.90        74.35345
741.32        73.69233
741.74        74.17055
742.16        74.38474
742.57        74.36836
742.99        74.90932
743.41        75.83932
743.83         76.4349
744.25        76.57508
744.67        76.44549
745.08        76.20586
745.50        76.11337
745.92         76.2589
746.34        76.54124
746.75        76.87521
747.17        77.11419
747.59        77.24665
748.01        77.32867
748.42        77.44551
748.84        77.77949
749.26        78.36862
749.68        78.90273
750.09        79.32187
750.51        80.05931
750.93        80.83076
751.35        80.43727
751.76        79.16758
752.18        78.66701
752.60        78.98086
753.01        78.99387
753.43        78.71268
753.85        78.85624
754.27         79.4486
754.68        80.21246
755.10        80.95712
755.52        81.53265
755.93        81.82835
756.35        81.80722
756.77        81.67535
757.18        81.59663
757.60        81.61985
758.02        82.23278
758.43        82.98338
758.85        82.17483
759.26        79.96622
759.68        79.79073
760.10        81.36803
760.51        82.25054
760.93        81.96657
761.34        80.86595
761.76        80.16541
762.18        79.50403
762.59        79.39581
763.01        79.86112
763.42        80.79462
763.84        81.51855
764.26        81.88218
764.67        81.96699
765.09        81.80861
765.50        81.72828
765.92         81.6022
766.33         80.4692
766.75        78.81352
767.16        78.21706
767.58        78.89394
768.00        80.40953
768.41        82.36971
768.83        83.72585
769.24        83.93143
769.66        83.25181
770.07         82.1291
770.49        80.47985
770.90        78.89433
771.32        79.84565
771.73        82.58503
772.15        82.26588
772.56        79.30937
772.97         78.6244
773.39        80.18468
773.80        80.70557
774.22         80.0004
774.63        80.04368
775.05         80.7264
775.46        81.04098
775.88        80.86146
776.29         80.4762
776.70         80.0495
777.12        79.88475
777.53        80.06329
777.95        80.41434
778.36        80.76288
778.77        80.81448
779.19        80.55531
779.60        80.09666
780.02        79.61357
780.43        79.55216
780.84        80.06508
781.26        80.27531
781.67        80.32964
782.09        81.85295
782.50        84.04235
782.91         82.9803
783.33        79.55887
783.74        78.42059
784.15        79.79264
784.57        80.87988
784.98        81.19871
785.39        81.15719
785.81        80.75168
786.22        80.23049
786.63        79.91029
787.04        79.92698
787.46        80.33918
787.87        81.24735
788.28        82.32324
788.70        82.80883
789.11        82.55116
789.52        81.92828
789.93        81.20818
790.35        80.48907
790.76        80.01469
791.17        80.30132
791.58        81.13719
792.00        81.55814
792.41        81.40925
792.82        81.21793
793.23        81.18636
793.65        80.96653
794.06        80.77918
794.47         81.7822
794.88        83.27531
795.29        82.76628
795.71         80.5181
796.12        78.57555
796.53        77.52548
796.94        77.26472
797.35        77.81825
797.76         78.8428
798.18        79.86626
798.59        80.65082
799.00        80.90959
799.41        80.41723
799.82        79.48052
800.23        78.87904
800.64        78.77751
801.06        78.85488
801.47        79.11558
801.88        79.47086
802.29        79.84621
802.70         80.3037
803.11        80.71636
803.52        80.83868
803.93        80.64011
804.34        80.16148
804.75        79.61316
805.17        79.42896
805.58        79.74686
805.99        80.18717
806.40        80.55443
806.81        81.14172
807.22        81.54689
807.63        80.47527
808.04        78.47264
808.45         77.5908
808.86        78.03378
809.27        78.78783
809.68        79.50961
810.09        79.98961
810.50        80.04531
810.91        79.77542
811.32         79.3344
811.73        78.96853
812.14        78.75912
812.55        78.58061
812.96        78.50638
813.37        78.66847
813.78        79.05959
814.19        79.69253
814.60        80.23343
815.01        80.15625
815.42        79.39083
815.83        78.05347
816.24        76.67178
816.65        76.17773
817.05        76.84294
817.46        78.36145
817.87        80.08162
818.28        80.83675
818.69        80.30691
819.10        78.80219
819.51        77.02434
819.92        76.15934
820.33        76.52792
820.74        77.76381
821.14        79.25001
821.55        79.88705
821.96        79.42789
822.37         78.2604
822.78        76.90916
823.19        76.13705
823.60        76.15392
824.00        76.75531
824.41        77.59051
824.82        78.19222
825.23        78.34758
825.64        78.23185
826.04        77.98071
826.45        77.77864
826.86        77.68597
827.27         77.5991
827.68        77.51393
828.08        77.48293
828.49         77.4448
828.90        77.46774
829.31        77.47433
829.72        77.30318
830.12        76.96652
830.53        76.51177
830.94        76.13701
831.35        76.10058
831.75        76.48965
832.16        77.16163
832.57        77.99379
832.97        78.69653
833.38        79.07403
833.79        79.18274
834.20        79.11607
834.60        79.02768
835.01        78.99567
835.42         78.9704
835.82        78.87236
836.23        78.49948
836.64        77.88307
837.04        77.13508
837.45        76.47384
837.86        76.23627
838.26        76.49185
838.67        77.08823
839.08        77.82815
839.48        78.33971
839.89        78.45701
840.29         78.3092
840.70        77.94855
841.11        77.44491
841.51        76.87451
841.92        76.19872
842.33        75.61728
842.73        75.47278
843.14        75.78822
843.54        76.51691
843.95        77.32577
844.35        77.70637
844.76        77.51112
845.17        76.89732
845.57        76.14879
845.98        75.71984
846.38        75.72749
846.79        76.01187
847.19         76.4228
847.60         76.6065
848.00        76.49903
848.41        76.20317
848.81        75.87538
849.22        75.65937
849.62        75.65347
850.03        75.80638
850.43        76.10531
850.84        76.44461
851.24        76.81653
851.65        77.06884
852.05        77.37127
852.46        77.82289
852.86        78.42608
853.27        79.16333
853.67        79.54089
854.07        78.93322
854.48         77.3782
854.88        75.11228
855.29        72.94965
855.69        72.05863
856.10        72.66258
856.50        74.62248
856.90        77.21292
857.31        78.74885
857.71        78.69804
858.12        77.47127
858.52        75.85207
858.92        74.87946
859.33        74.78214
859.73        75.27814
860.13        76.13552
860.54        76.87605
860.94        77.35303
861.34        77.67514
861.75        77.88786
862.15        78.14093
862.55        78.43959
862.96        78.71583
863.36          78.924
863.76        78.97034
864.17        78.85342
864.57        78.66883
864.97        78.57392
865.38        78.79517
865.78        79.39672
866.18        80.20373
866.58        81.03596
866.99        81.57453
867.39         81.7696
867.79        81.74822
868.19        81.41569
868.60        80.61142
869.00        79.42132
869.40        77.93285
869.80        76.83167
870.21        77.15469
870.61        79.14848
871.01         82.4877
871.41        86.16417
871.81        88.42966
872.22        88.78769
872.62        87.70457
873.02        86.07631
873.42        85.48486
873.82        86.16311
874.22        87.37908
874.63        88.71201
875.03        89.30544
875.43        88.73967
875.83         88.1213
876.23        86.50433
876.63        85.77042
877.03        85.91373
877.44        87.07108
877.84        103.1641
878.24        93.35265
878.64        93.77196
879.04        93.65253
879.44        90.47813
879.84         88.9706
880.24        92.12543
880.64        93.92226
881.04        94.88526
881.44        95.03404
881.84        93.81857
882.24        91.66222
882.65        89.67963
883.05         88.9319
883.45        89.57103
883.85        91.52119
884.25        94.05009
884.65        95.57811
885.05        95.58596
885.45          94.589
885.85        93.25559
886.25        92.50935
886.65         92.5824
887.05        93.14473
887.45        93.96986
887.85        94.68026
888.25        95.09368
888.65        95.37434
889.04        95.49944
889.44        95.44583
889.84        95.23275
890.24        94.83595
890.64        94.42416
891.04        94.29154
891.44        94.47445
891.84        94.89321
892.24        95.34397
892.64        95.43339
893.04        95.10506
893.44        94.57929
893.83        94.02061
894.23         93.6686
894.63         93.5742
895.03        93.58829
895.43        93.86968
895.83         94.6938
896.23        96.01919
896.63        97.75197
897.02        99.22163
897.42        99.33599
897.82         97.9518
898.22        95.47755
898.62        92.84827
899.01         91.4412
899.41        91.57187
899.81        92.76136
900.21        94.40942
900.61        95.52892
901.00        95.79659
901.40        95.55194
901.80        95.01183
902.20        94.49908
902.59         94.1556
902.99        93.83087
903.39        93.58521
903.79        93.56011
904.18         93.7708
904.58        94.25225
904.98        94.85368
905.38        95.31435
905.77        95.54681
906.17        95.58988
906.57        95.55969
906.96        95.69839
907.36        95.98119
907.76        96.33592
908.15        96.58983
908.55        96.35188
908.95        95.61721
909.34        94.51355
909.74        93.38055
910.14         92.5569
910.53        92.18149
910.93        92.20161
911.33        92.56568
911.72        93.18127
912.12        93.85432
912.52         94.4953
912.91        95.04967
913.31         95.4818
913.70        95.82192
914.10        96.04836
914.49        95.92952
914.89        94.96599
915.29        93.24017
915.68        91.06532
916.08        89.29803
916.47        88.61022
916.87        89.03525
917.26        90.36512
917.66         91.9519
918.05        92.75285
918.45        92.47348
918.84        91.43906
919.24        90.31074
919.64          90.063
920.03        90.94126
920.42        92.61225
920.82        94.51027
921.21        95.80906
921.61        96.07047
922.00        95.61983
922.40        94.72292
922.79        93.73186
923.19         92.8489
923.58        91.90102
923.98        90.88974
924.37        90.21716
924.77        90.19031
925.16        88.76125
925.55        89.81641
925.95         90.6266
926.34        92.27433
926.74        94.30216
927.13        96.22169
927.52        96.97598
927.92        96.44144
928.31        94.96445
928.70        92.99722
929.10        91.33412
929.49        90.20247
929.89        89.41937
930.28        89.15392
930.67        89.67784
931.07        90.83768
931.46        92.65113
931.85        94.34102
932.24        94.72928
932.64         93.6271
933.03        91.20465
933.42        88.21618
933.82        86.36629
934.21        86.11316
934.60        86.97341
934.99        88.11462
935.39        88.64764
935.78        88.43492
936.17         87.4071
936.56        85.39555
936.96         85.6496
937.35        84.15678
937.74         84.3049
938.13        84.70594
938.53        85.61099
938.92        87.02133
939.31        89.06049
939.70        91.19869
940.09        91.86376
940.49         90.5897
940.88         88.0358
941.27        85.37437
941.66        83.98828
942.05        84.05499
942.44        85.13235
942.84        86.76147
943.23        88.20172
943.62        89.03433
944.01         89.4512
944.40        89.50195
944.79        89.25921
945.18        88.76727
945.57        87.91917
945.97        86.74647
946.36        85.54216
946.75        84.63802
947.14        84.12474
947.53        84.01809
947.92        84.25038
948.31        84.76559
948.70        85.59666
949.09        86.60692
949.48        87.40346
949.87        87.76129
950.26         87.6896
950.65        87.38709
951.04        87.22594
951.43        87.30259
951.82        87.51149
952.21        87.64937
952.60         87.4119
952.99        86.73469
953.38        85.72505
953.77        84.67158
954.16        83.95572
954.55        83.66518
954.94        83.77507
955.33        83.90932
955.72        83.42661
956.11        82.22538
956.50        80.47584
956.89        78.92538
957.28        78.92496
957.66        80.84494
958.05        83.98653
958.44         87.2824
958.83        89.15792
959.22        89.20602
959.61         87.8224
960.00        85.65546
960.39        83.78393
960.78        82.60895
961.16        81.92699
961.55        81.40357
961.94        80.49848
962.33        79.15806
962.72        77.70187
963.11        76.63605
963.49        76.57197
963.88        77.57068
964.27        79.48096
964.66        81.68246
965.04        82.84506
965.43        82.39029
965.82        80.79478
966.21         78.9701
966.60         78.1184
966.98        78.47372
967.37        79.63383
967.76        81.10445
968.15        81.91122
968.53        81.71745
968.92        80.85094
969.31        79.74609
969.69        78.92446
970.08        78.53889
970.47        78.44634
970.86        78.44382
971.24          78.217
971.63        77.67346
972.02         76.9062
972.40         76.2822
972.79        76.39787
973.17        77.48828
973.56         79.2719
973.95        81.12403
974.33        81.85291
974.72        81.06654
975.11        79.17159
975.49        77.05623
975.88        75.93427
976.26        75.97552
976.65        76.92416
977.04        78.06685
977.42        77.73186
977.81         75.4643
978.19        72.04601
978.58         69.1942
978.96        68.58195
979.35        70.44353
979.74        74.41418
980.12        79.71795
980.51         83.3949
980.89        84.40208
981.28        83.38828
981.66        81.46184
982.05        80.09853
982.43        79.62452
982.82        79.55552
983.20        79.88085
983.59          80.687
983.97        82.01054
984.35        83.99361
984.74        86.05808
985.12         87.1199
985.51        86.44096
985.89        84.14828
986.28        81.04565
986.66        78.43115
987.04        77.01292
987.43         76.6003
987.81        76.55696
988.20        76.02257
988.58        74.64406
988.96        72.12833
989.35         69.0047
989.73        68.21525
990.12         71.4339
990.50         77.3774
990.88        82.08146
991.27        82.54507
991.65        79.27553
992.03        73.14163
992.42         66.7151
992.80        64.64945
993.18        67.97366
993.56        74.01952
993.95        80.06796
994.33        83.58575
994.71        84.16524
995.10        83.11929
995.48        80.91678
995.86        78.01003
996.24        74.69518
996.63        70.47341
997.01         66.3997
997.39        65.69728
997.77        69.55814
998.15        77.20026
998.54        85.18819
998.92        88.93942
999.30        87.12965
999.68        80.80728
1000.06        71.70927
1000.45        64.43438
1000.83        61.11641
1001.21         60.4904
1001.59        61.62956
1001.97        63.45253
1002.35        65.56054
1002.73        68.84227
1003.12        72.25551
1003.50        72.38537
1003.88        68.01438
1004.26        60.82586
1004.64        54.24699
1005.02        51.23381
1005.40         51.9793
1005.78        56.38186
1006.16        64.89297
1006.54        73.12582
1006.92        75.75112
1007.30        74.37753
1007.69        71.91261
1008.07        70.40479
1008.45         69.7456
1008.83        68.97826
1009.21        66.50523
1009.59        55.55188
1009.97        19.44198
1010.35       -35.33763
1010.73       -31.44691
1011.11       -1.419119
1011.49        21.07351
1011.86        37.98968
1012.24         47.8279
1012.62        52.75474
1013.00         54.9794
1013.38        55.33361
1013.76        55.79427
1014.14        61.68552
1014.52        76.88511
1014.90        102.5666
1015.28         130.744
1015.66        140.7917
1016.04        121.5967
1016.41        78.81452
1016.79        36.72237
1017.17        19.29625
1017.55        22.23289
1017.93        32.19783
1018.31        42.57409
1018.69        50.44887
1019.06        56.59244
1019.44        62.73731
1019.82        70.76782
1020.20        81.99813
1020.58        97.09166
1020.95        116.8655
1021.33        138.5918
1021.71        1.354876
1022.09        122.5124
1022.46        133.8893
1022.84        141.3284
1023.22        152.0769
1023.60        178.2011
1023.97        428.4405
1024.35        7.250531
1024.73        57.22314
