SpectraSmart Spectrum 2.9.0.0
--------- Device Information -----------
Spectrum Name :  反射率_0
Saving Time :  2024/04/26 02:03:56
Spectro-Module Model Name : SE2030-DUVN
Spectro-Module Serial Number : OS361AC55029948
Wavelength Start : 200
Wavelength End : 1025
Wavelength Unit : Wavelength(nm)
Spectrum Unit : Reflectance(%)
-----------Spectrum Setting ------------
Integration Time : 20ms
Average : 10
Boxcar : 0
Background removal :  enabled
linearity correction :  enabled
SC :  disabled
Intensity correction :  disabled
DWT denoise :  enabled
savitzky-golay :  disabled
FFT :  disabled
Running average :  disabled
Kalman :  disabled
High pass :  disabled
---------------BEGIN--------------------
Wavelength(nm)             Reflectance(%)
200.29               0
200.75         104.001
201.21        99.91618
201.67        93.33404
202.13        88.20594
202.58         85.3393
203.04        84.19238
203.50          83.602
203.96        81.95384
204.42        79.25866
204.88        76.36533
205.34        74.43858
205.80        74.64143
206.26        77.59233
206.72        85.24245
207.18        100.4382
207.64        112.9528
208.10        102.6179
208.55        83.32415
209.01        71.56603
209.47        68.21344
209.93        69.80312
210.39        74.70821
210.85        80.43733
211.31        81.55163
211.77        76.50706
212.23        67.65584
212.69        59.12334
213.14        57.25427
213.60        63.01163
214.06        74.27429
214.52        87.42409
214.98        96.95387
215.44        100.9439
215.90        100.9721
216.36        98.14953
216.81        93.87276
217.27        89.52104
217.73        85.00166
218.19        80.31012
218.65        75.13996
219.11        68.84071
219.57         60.3983
220.02        50.61311
220.48        45.11544
220.94        46.86184
221.40        54.73158
221.86        61.96514
222.32        61.46109
222.77        54.23889
223.23        44.34455
223.69        36.25689
224.15        34.62434
224.61        38.83884
225.06        46.54923
225.52        54.24235
225.98        57.45751
226.44        55.41342
226.90        49.96509
227.36        43.73858
227.81        40.28047
228.27        40.58144
228.73        43.19312
229.19        46.44163
229.65        47.92348
230.10        47.23772
230.56        45.49559
231.02        43.73379
231.48        43.04188
231.93         43.4712
232.39        44.51461
232.85        45.62719
233.31        46.08015
233.77        45.67773
234.22        44.68362
234.68        43.41664
235.14        42.43704
235.60        42.02583
236.05        42.04424
236.51        42.37168
236.97        42.81174
237.43        43.35107
237.88        44.21674
238.34        45.46755
238.80        47.14759
239.26        49.11322
239.71        51.24055
240.17        53.25061
240.63        55.33505
241.08        57.56998
241.54        59.74402
242.00        61.83144
242.46        64.06127
242.91        67.28381
243.37        73.29848
243.83        90.40311
244.28        146.1812
244.74        211.1758
245.20        176.8234
245.66        144.9087
246.11          136.93
246.57         143.788
247.03        172.8294
247.48        259.4678
247.94        215.0949
248.40        122.3973
248.85        94.09509
249.31        85.95583
249.77        85.56786
250.22        89.65851
250.68        98.35083
251.14        111.4148
251.59        120.5241
252.05        117.1166
252.51        104.8271
252.96        91.21106
253.42        83.63683
253.88        81.63947
254.33        82.52355
254.79        85.53867
255.25        89.11005
255.70        92.10036
256.16        94.97594
256.62        96.39052
257.07         94.8783
257.53        91.25751
257.99        85.90845
258.44        80.33929
258.90        77.32884
259.35        76.05329
259.81        75.68115
260.27        74.51271
260.72        70.88853
261.18        65.57997
261.63        59.30479
262.09        53.63534
262.55        49.71532
263.00        47.47746
263.46        46.41084
263.91        45.59228
264.37        44.30431
264.83        42.35319
265.28        39.92091
265.74        37.58636
266.19        35.99472
266.65         35.3709
267.11        35.33201
267.56         35.3641
268.02        34.85498
268.47        33.67752
268.93         32.0442
269.38        30.24323
269.84        28.99331
270.30        28.48905
270.75        28.53137
271.21        28.74887
271.66        28.59065
272.12        27.91201
272.57        26.89715
273.03        25.85611
273.48        25.17057
273.94        24.94418
274.39        24.98975
274.85         25.0778
275.31        24.87518
275.76        24.30782
276.22        23.53367
276.67        22.71066
277.13        22.14267
277.58        21.85201
278.04        21.76185
278.49        21.71566
278.95         21.5454
279.40        21.19111
279.86        20.76225
280.31        20.30997
280.77        20.00876
281.22        19.84873
281.68        19.78434
282.13        19.74969
282.59        19.68203
283.04        19.56278
283.50        19.45485
283.95        19.33298
284.41        19.16969
284.86         18.9701
285.32        18.74771
285.77        18.61136
286.22        18.78159
286.68        19.24574
287.13        19.89585
287.59        20.49454
288.04        20.68733
288.50        20.43694
288.95          19.853
289.41         19.1762
289.86        18.66891
290.32        18.46277
290.77        18.47445
291.22        18.65879
291.68        18.90419
292.13        19.18963
292.59         19.5675
293.04        20.08436
293.50        20.80137
293.95        21.70527
294.40        22.72614
294.86        23.78794
295.31        24.79796
295.77        25.73818
296.22        26.64478
296.68        27.53359
297.13        28.39778
297.58        29.26989
298.04          30.172
298.49        31.18553
298.95        32.48302
299.40        34.07887
299.85        35.91736
300.31        37.85982
300.76        39.67611
301.21        41.27395
301.67        42.73871
302.12        44.08578
302.58        45.43888
303.03         46.8177
303.48         48.2077
303.94        49.70486
304.39        51.40156
304.84        53.30677
305.30        55.38316
305.75        57.42503
306.20        59.13479
306.66        60.47417
307.11        61.48832
307.57        62.40635
308.02        63.46541
308.47        64.77813
308.93        66.27248
309.38        67.81573
309.83        69.24667
310.29        70.50027
310.74        71.59576
311.19        72.60094
311.65        73.61699
312.10        74.66027
312.55        75.71085
313.00        76.66126
313.46        77.34824
313.91        77.73363
314.36        77.89458
314.82        78.03839
315.27        78.43324
315.72        79.16925
316.18        80.16483
316.63        81.24958
317.08          82.097
317.53        82.60706
317.99        82.85548
318.44        83.02213
318.89         83.4083
319.35        84.06525
319.80        84.92343
320.25        85.74837
320.70        86.15796
321.16        86.07461
321.61        85.63459
322.06        85.11117
322.51        84.93159
322.97        85.17767
323.42         85.7513
323.87        86.43503
324.32        86.85338
324.78        86.88879
325.23        86.70598
325.68        86.42991
326.13         86.2885
326.59        86.34056
327.04         86.5329
327.49        86.84765
327.94        87.29076
328.39        87.83234
328.85        88.45705
329.30        89.09893
329.75        89.47853
330.20        89.55804
330.66        89.40402
331.11         89.2581
331.56        89.44382
332.01        90.06161
332.46        90.99841
332.92        92.10847
333.37        93.29269
333.82         94.3692
334.27        95.37035
334.72        96.14417
335.17        96.45487
335.63        96.29154
336.08        95.77344
336.53        95.18766
336.98          95.049
337.43        95.49239
337.88        96.37971
338.34        97.50613
338.79         98.6034
339.24        99.50854
339.69        100.3175
340.14        100.9503
340.59        101.2737
341.05        101.2986
341.50        101.0333
341.95        100.7297
342.40        100.8006
342.85        101.3275
343.30        102.2136
343.75        103.1948
344.20        103.7878
344.66        103.8711
345.11        103.5773
345.56        103.1445
346.01        102.9326
346.46         103.043
346.91        103.3636
347.36        103.7664
347.81        104.0603
348.26         104.197
348.72        104.2679
349.17        104.3295
349.62        104.5122
350.07        104.8362
350.52        105.2277
350.97        105.6114
351.42        105.8917
351.87        106.0359
352.32        106.0721
352.77        106.0099
353.22        105.8663
353.67        105.6568
354.13        105.3918
354.58        105.0749
355.03        104.7713
355.48        104.4947
355.93        104.2404
356.38        103.9715
356.83        103.6242
357.28        103.1815
357.73        102.6577
358.18         102.097
358.63        101.5676
359.08        101.0901
359.53        100.6584
359.98         100.211
360.43        99.65205
360.88        98.96228
361.33        98.15698
361.78        97.35496
362.23        96.74797
362.68        96.37359
363.13        96.18839
363.58        95.99836
364.03        95.49445
364.48        94.62479
364.93        93.48453
365.38        92.33063
365.83        91.58135
366.28        91.31831
366.73        91.38952
367.18        91.52917
367.63         91.3053
368.08        90.61322
368.53        89.62379
368.98        88.50903
369.43        87.51831
369.88        86.74009
370.33        86.09138
370.78        85.58461
371.23        85.24966
371.68         85.0666
372.13        85.03587
372.58        85.04842
373.03        84.90479
373.48        84.55761
373.93        84.05709
374.38        83.49937
374.83        83.04227
375.28        82.72509
375.72        82.48383
376.17        82.29369
376.62        82.09167
377.07        81.84155
377.52         81.5456
377.97        81.19508
378.42        80.77258
378.87        80.29149
379.32        79.78984
379.77        79.24918
380.22        78.63405
380.67        77.95019
381.11        77.20522
381.56        76.53111
382.01        76.14972
382.46        76.10207
382.91        76.33389
383.36        76.60332
383.81        76.52263
384.26         76.0146
384.71         75.1869
385.15        74.30689
385.60        73.84666
386.05        73.84177
386.50        74.13371
386.95        74.43427
387.40        74.26471
387.85        73.56733
388.29         72.5537
388.74        71.57951
389.19         70.8555
389.64        70.42225
390.09        70.13531
390.54        70.03335
390.98         70.1873
391.43        70.55264
391.88        71.08493
392.33        71.47961
392.78        71.25975
393.23        70.42525
393.67        69.21223
394.12        68.09507
394.57        67.39124
395.02        67.26392
395.47          67.842
395.91        68.89356
396.36        69.61219
396.81        69.79739
397.26        69.72561
397.71        69.48716
398.15        69.04674
398.60        68.55389
399.05        68.13456
399.50        67.76627
399.95        67.02515
400.39        66.35356
400.84        66.00266
401.29        66.07716
401.74        66.39587
402.18        66.79151
402.63        66.79559
403.08        66.53372
403.53        66.66312
403.97        67.19983
404.42        67.71112
404.87        67.98637
405.32        67.86314
405.76        67.29488
406.21        66.46593
406.66          65.635
407.11        65.07829
407.55         64.9558
408.00        65.36289
408.45        66.09135
408.90        66.57073
409.34        66.55171
409.79        66.01223
410.24        65.21544
410.68        64.74614
411.13        64.70917
411.58        64.79416
412.03        64.95794
412.47        65.25428
412.92        65.59399
413.37        65.98923
413.81        66.33165
414.26        66.49435
414.71        66.43704
415.15        66.17464
415.60        65.82976
416.05        65.63082
416.49         65.6401
416.94        65.81708
417.39        66.00014
417.83        65.89676
418.28        65.47372
418.73        64.85086
419.17         64.2795
419.62        64.15313
420.07        64.50826
420.51         65.2044
420.96        65.99097
421.41        66.39111
421.85        66.26006
422.30        65.98926
422.74         65.6552
423.19         65.1519
423.64        64.66314
424.08         64.8966
424.53        65.73484
424.98        66.25499
425.42        66.33206
425.87        66.71861
426.31        67.31442
426.76        67.09544
427.21        66.35589
427.65        66.59366
428.10        67.70726
428.54        68.50128
428.99         68.9104
429.44        69.10458
429.88        69.13778
430.33        69.97984
430.77        70.97302
431.22        69.84696
431.66        67.21791
432.11        65.92846
432.56        66.26295
433.00        67.23737
433.45        68.67406
433.89        70.47148
434.34        71.18716
434.78        72.97134
435.23        68.83437
435.67        67.02634
436.12        69.60719
436.57        70.79451
437.01         71.3122
437.46        71.54384
437.90        71.67094
438.35        71.42486
438.79         71.7556
439.24        71.67692
439.68        71.50681
440.13        71.17772
440.57        71.02284
441.02        71.94537
441.46        73.56302
441.91        74.59735
442.35        74.71518
442.80        73.91199
443.24         72.6552
443.69        73.08993
444.13        74.86886
444.58        74.87568
445.02        73.29277
445.47        72.98799
445.91         73.9092
446.36        74.20789
446.80        73.83091
447.24        73.72438
447.69        73.94328
448.13        74.19034
448.58        74.46699
449.02        74.79232
449.47        75.13387
449.91        75.44851
450.36        75.71129
450.80        75.93094
451.25        76.07079
451.69        75.97953
452.13        75.71403
452.58        75.46589
453.02        75.30094
453.47        75.23682
453.91        75.27345
454.36        75.45724
454.80        75.73793
455.24        75.77783
455.69        75.52721
456.13         75.4517
456.58        75.63863
457.02        74.74622
457.46        74.41151
457.91        74.76365
458.35        75.90317
458.79        76.36201
459.24        76.08895
459.68        75.75587
460.13        75.43605
460.57        75.15386
461.01        75.05604
461.46        74.32336
461.90        73.88128
462.34        74.59203
462.79        74.12285
463.23        74.48174
463.68        74.82246
464.12        75.14846
464.56        75.36959
465.01         75.5414
465.45        75.49135
465.89        75.33659
466.34         75.0294
466.78        73.86559
467.22        72.41277
467.67        72.32342
468.11        73.56996
468.55        74.46712
468.99        74.61574
469.44        74.25914
469.88        73.60189
470.32        73.38264
470.77        73.59918
471.21        73.49196
471.65        73.05485
472.10        72.91914
472.54        73.11486
472.98        73.31806
473.42        73.48389
473.87        73.91494
474.31        74.40133
474.75        74.20422
475.20         73.5202
475.64        73.36881
476.08        73.76945
476.52        73.83243
476.97        73.53972
477.41        73.59897
477.85        74.01115
478.29        73.66372
478.74        74.03893
479.18         73.8318
479.62        73.00931
480.06        73.58392
480.50         73.8124
480.95        74.20843
481.39        74.33435
481.83         73.3853
482.27        73.40453
482.72         73.7243
483.16        72.12688
483.60        72.46325
484.04         73.9819
484.48        74.26421
484.93         73.8979
485.37        75.23307
485.81        76.24729
486.25        74.39308
486.69        101.3403
487.14        81.71714
487.58        51.18114
488.02        63.01138
488.46        71.21294
488.90        71.17191
489.34        72.88601
489.79        72.20612
490.23        74.13304
490.67        74.98367
491.11        74.05682
491.55        74.02155
491.99        74.44643
492.43        74.22325
492.88         73.4641
493.32        73.43514
493.76        73.59769
494.20         73.8149
494.64        73.82483
495.08        73.90491
495.52         74.0894
495.96        73.96327
496.41        73.56638
496.85        74.03979
497.29        75.06396
497.73         73.9993
498.17        71.86622
498.61        72.11253
499.05        74.73866
499.49        75.30633
499.93        75.39728
500.37        75.05932
500.82        74.26195
501.26        74.31461
501.70        74.93342
502.14        75.22438
502.58        75.02317
503.02         74.8782
503.46        74.78854
503.90        74.42123
504.34        73.93936
504.78        73.76726
505.22        73.95255
505.66        74.36768
506.10        74.86613
506.54         75.0948
506.98        74.88804
507.42        74.69019
507.86        74.21687
508.30         73.3706
508.74        73.87795
509.18        74.08955
509.62        74.39274
510.06        74.57127
510.50        74.57809
510.94        74.45626
511.38         74.2799
511.82        74.20467
512.26        74.26557
512.70        74.40912
513.14        74.58218
513.58        74.70641
514.02        74.74984
514.46        74.73409
514.90        74.68955
515.34        74.64656
515.78        74.60808
516.22        74.61865
516.66        74.65108
517.10        74.51766
517.54        74.21545
517.98        74.29908
518.42        74.08064
518.86        74.16905
519.30        74.34799
519.74        74.64327
520.18        74.97198
520.62        75.19316
521.06        75.27705
521.50        75.26125
521.93        75.17928
522.37        75.08714
522.81        75.01797
523.25        74.95705
523.69        74.93446
524.13        74.99768
524.57        75.14762
525.01        75.37022
525.45        75.60674
525.89        75.75835
526.32        75.78799
526.76        75.71589
527.20         75.5816
527.64        75.47057
528.08        75.42663
528.52        75.37151
528.96         75.2481
529.40        75.17939
529.83        75.19989
530.27        74.51615
530.71        74.67262
531.15        74.59399
531.59        74.73526
532.03        75.00758
532.46        75.35892
532.90        75.66531
533.34        75.86646
533.78         76.0004
534.22        76.04789
534.66          75.992
535.09        75.83324
535.53        75.60027
535.97        75.35579
536.41        75.22526
536.85        75.23843
537.28        75.37132
537.72          75.536
538.16        75.59721
538.60        75.52441
539.04        75.30643
539.47        75.02461
539.91        75.02079
540.35         75.2368
540.79        75.31094
541.22        75.21374
541.66        75.20496
542.10        75.26728
542.54        75.23009
542.97         75.1274
543.41         75.1293
543.85        75.23883
544.29        75.42453
544.72        75.57825
545.16        75.56848
545.60        75.36657
546.04        75.01322
546.47        74.67038
546.91        74.63091
547.35        74.92783
547.79        75.44129
548.22        75.93427
548.66        76.12099
549.10        75.89607
549.53        75.22404
549.97        74.41862
550.41        74.03358
550.84        74.17574
551.28        74.61965
551.72        75.17497
552.15        75.55811
552.59        75.66994
553.03        75.60242
553.46        75.42323
553.90        75.31252
554.34        75.31351
554.77        75.28664
555.21        75.20942
555.65        75.29504
556.08        75.57609
556.52        75.07952
556.96        75.53197
557.39         75.4502
557.83        75.37675
558.27        75.27249
558.70          75.215
559.14        75.30031
559.57        75.51138
560.01        75.83382
560.45        76.14456
560.88         76.2705
561.32         76.1795
561.75        75.83894
562.19        75.41752
562.63        75.02085
563.06         74.7698
563.50        74.94528
563.93        75.39831
564.37        75.61552
564.80        75.50659
565.24        75.48124
565.68        75.36965
566.11        75.31294
566.55         75.3187
566.98        75.34002
567.42        75.38741
567.85        75.55579
568.29         75.8513
568.72        75.87962
569.16        75.83463
569.60        76.26121
570.03        76.80059
570.47        76.73111
570.90        76.37016
571.34        74.64751
571.77        75.63303
572.21        75.60353
572.64        75.00858
573.08        73.93585
573.51        70.91014
573.95        73.53631
574.38        77.83308
574.82        76.05038
575.25        75.29974
575.69        73.60942
576.12        72.09541
576.56        71.40381
576.99        72.82005
577.42        76.08672
577.86        76.08745
578.29        75.28479
578.73        79.36491
579.16        73.17535
579.60        67.19622
580.03        70.04824
580.47        74.60381
580.90        76.58648
581.33        75.16638
581.77        73.96195
582.20        80.93006
582.64        81.05525
583.07        68.99876
583.51         67.8942
583.94        66.81977
584.37        69.87498
584.81        73.38148
585.24        77.15824
585.68        78.80174
586.11        77.52236
586.54         72.2013
586.98        69.62177
587.41        70.24953
587.85        74.14854
588.28        77.13409
588.71        73.35502
589.15        71.05702
589.58        72.49848
590.01        72.42439
590.45        74.06283
590.88        74.78873
591.31        74.14955
591.75        73.54197
592.18        73.59899
592.61        75.34777
593.05        75.85127
593.48        79.09143
593.91        79.88032
594.35        73.12421
594.78        71.67688
595.21        71.42113
595.65        74.75903
596.08        77.64548
596.51        74.55687
596.94        72.34684
597.38        72.99837
597.81        75.91457
598.24        78.10034
598.68         76.4789
599.11        75.26588
599.54        78.25665
599.97        79.75366
600.41        74.31204
600.84        74.23211
601.27        75.98991
601.70        74.67369
602.14        74.83586
602.57        73.65188
603.00        74.08932
603.43        75.73523
603.87        77.59998
604.30        77.13802
604.73        74.79587
605.16        73.61918
605.60        74.47626
606.03         75.7615
606.46         76.9948
606.89        76.16074
607.32        73.90332
607.76        74.12499
608.19        76.23683
608.62        75.47242
609.05        74.22392
609.48        74.86601
609.92        74.81326
610.35        74.20551
610.78        76.50276
611.21        77.30035
611.64        73.85221
612.07        74.72234
612.50        75.28591
612.94        75.81729
613.37        75.13918
613.80          75.423
614.23        76.10344
614.66        75.56926
615.09        76.08797
615.52        76.09177
615.96        76.07452
616.39        76.37344
616.82          75.072
617.25        74.98389
617.68        75.56791
618.11        76.18504
618.54        76.54512
618.97        75.96986
619.40        74.90272
619.84         74.9138
620.27        75.99354
620.70        76.77621
621.13        77.07835
621.56        76.21014
621.99        75.28185
622.42        76.12949
622.85        78.39173
623.28        77.92715
623.71        77.16386
624.14         77.0388
624.57        76.53194
625.00        76.51456
625.43        76.56874
625.86        75.96727
626.29        76.09724
626.72        76.89436
627.15        76.44726
627.58        76.59994
628.01        76.67207
628.44        76.96321
628.87        77.00478
629.30        77.32648
629.73        77.67621
630.16         77.6918
630.59        77.34365
631.02        76.81046
631.45        76.27412
631.88        75.95925
632.31        75.93281
632.74        76.12938
633.17        76.43174
633.60        76.63522
634.03        76.67348
634.46        76.61262
634.89        76.49863
635.32        76.40702
635.75        76.36895
636.18        76.34621
636.61        76.35101
637.04        76.41513
637.47        76.53356
637.89        76.71155
638.32        76.87094
638.75        76.92923
639.18        76.86475
639.61        76.70721
640.04        76.50473
640.47        76.33617
640.90        76.23339
641.33        76.17345
641.76        76.12692
642.18        76.15408
642.61        76.24399
643.04        76.20969
643.47        76.00557
643.90        76.54348
644.33         76.2405
644.76        76.37285
645.18        76.43822
645.61        76.40693
646.04        76.25859
646.47        76.00055
646.90        75.76962
647.33        75.72853
647.75        75.92793
648.18        76.36463
648.61        76.78595
649.04        76.78618
649.47        76.31401
649.89        75.39066
650.32         74.4826
650.75        74.41064
651.18        75.16183
651.61        76.09382
652.03        76.78007
652.46        76.81065
652.89        76.48409
653.32        75.78618
653.74        75.26285
654.17        76.09651
654.60        77.32648
655.03        74.90684
655.46        75.89365
655.88        79.79883
656.31        84.98285
656.74        188.8103
657.16        123.0266
657.59        43.53698
658.02        32.85283
658.45        57.46146
658.87        73.72368
659.30        77.27583
659.73        76.19084
660.15        73.68568
660.58        75.90519
661.01        77.71523
661.44        75.27586
661.86        74.48008
662.29        74.46052
662.72        75.34323
663.14        76.83855
663.57        76.87702
664.00        75.72066
664.42        75.47352
664.85        76.19322
665.27        76.82545
665.70        76.54684
666.13        76.39551
666.55          76.177
666.98         75.7506
667.41        75.27634
667.83        75.08985
668.26        75.26331
668.69         75.6594
669.11        76.04938
669.54        76.43893
669.96          76.044
670.39        75.53995
670.82          74.951
671.24        74.71273
671.67        74.93082
672.09        75.40298
672.52        75.83402
672.94        76.34984
673.37        75.63576
673.80        75.41182
674.22        75.37922
674.65        75.32481
675.07        75.24015
675.50        75.14174
675.92        75.08488
676.35        75.14149
676.77        75.30389
677.20        75.68091
677.62        75.82374
678.05        75.98682
678.47        76.01575
678.90        75.95792
679.32        75.85445
679.75        75.63893
680.17        75.63987
680.60        75.60299
681.02        75.57927
681.45        75.48293
681.87        75.31601
682.30        75.09866
682.72        74.92516
683.15        74.95803
683.57        75.23073
684.00        75.60506
684.42        76.06657
684.85        76.26735
685.27        76.18391
685.70        75.90172
686.12        75.53611
686.54        75.32355
686.97        75.31031
687.39          75.446
687.82        75.63226
688.24        75.76187
688.66        75.77616
689.09        75.71916
689.51        75.66246
689.94        75.69112
690.36        75.83359
690.78        76.02966
691.21        76.21733
691.63         76.3407
692.06        76.36452
692.48        76.26172
692.90        76.09544
693.33        76.00384
693.75        76.01614
694.17        76.08766
694.60        76.19654
695.02        76.29237
695.44        76.33293
695.87        76.52955
696.29        76.84202
696.71        76.69876
697.14        76.29692
697.56        76.70832
697.98        77.62822
698.41        77.86006
698.83        76.71539
699.25         76.2794
699.68        76.40525
700.10        76.37651
700.52        76.19697
700.94        76.29996
701.37         76.6388
701.79        76.97636
702.21        77.22557
702.64        77.45188
703.06        77.57538
703.48        77.46333
703.90        77.12495
704.33        76.60734
704.75        76.05022
705.17        75.77346
705.59         75.8612
706.01        76.10541
706.44        76.36811
706.86        77.08055
707.28        77.14622
707.70        77.39605
708.12        77.51768
708.55        77.51615
708.97        77.37919
709.39        77.11304
709.81        76.82243
710.23        76.68044
710.66        76.73516
711.08        76.97888
711.50        77.25581
711.92          77.327
712.34        77.14131
712.76        76.75808
713.19        76.35743
713.61        76.26419
714.03        76.53046
714.45        77.05444
714.87        77.59662
715.29        77.77998
715.71        77.52397
716.13        76.95275
716.56        76.29971
716.98        75.97243
717.40        76.07095
717.82         76.4752
718.24         76.9935
718.66         77.3006
719.08        77.30195
719.50        77.10101
719.92        76.82234
720.34         76.6821
720.76        76.74151
721.19        76.79502
721.61        77.02261
722.03        77.18198
722.45        77.30437
722.87         77.4147
723.29        77.50607
723.71        77.55283
724.13        77.55387
724.55        77.51085
724.97        77.45589
725.39        77.45012
725.81         77.5055
726.23        77.60416
726.65        77.71719
727.07        77.79323
727.49        77.82279
727.91         77.8325
728.33        77.82848
728.75        77.82216
729.17        77.81847
729.59         77.7995
730.01        77.80933
730.43        77.91003
730.85        78.11029
731.27        78.42342
731.69         78.7272
732.10        78.79882
732.52        78.59689
732.94        78.22926
733.36        77.90872
733.78         77.8307
734.20        78.04955
734.62        78.83594
735.04         79.8768
735.46        79.88469
735.88        79.10204
736.30         79.2868
736.72        80.43021
737.13        80.96635
737.55        80.58617
737.97        80.42354
738.39        80.53325
738.81         79.6362
739.23        78.27673
739.65        79.22779
740.06        81.88305
740.48        82.22598
740.90        80.32981
741.32        79.42231
741.74        79.84041
742.16        80.09424
742.57        80.25172
742.99        81.15382
743.41        82.48229
743.83        83.22733
744.25        83.20905
744.67        82.69395
745.08        82.02476
745.50        81.75837
745.92        82.06232
746.34        82.74068
746.75        83.53387
747.17        84.01428
747.59        84.07952
748.01         83.8643
748.42        83.59783
748.84        83.61837
749.26        84.01926
749.68        84.66527
750.09        85.35579
750.51        85.77041
750.93        85.83984
751.35        85.60477
751.76         85.2243
752.18        85.15333
752.60        85.37048
753.01        85.40015
753.43        85.26617
753.85        85.44013
754.27        85.94664
754.68        86.55409
755.10        87.13675
755.52        87.66102
755.93        88.04716
756.35        88.23959
756.77        88.33074
757.18         88.3079
757.60        88.20159
758.02        88.47065
758.43        88.85042
758.85        87.97493
759.26        86.47433
759.68        86.24489
760.10        88.31027
760.51        89.02975
760.93        88.39069
761.34        87.02979
761.76        86.31693
762.18        85.59496
762.59        85.40122
763.01        85.94884
763.42        87.11056
763.84        87.94489
764.26        88.27148
764.67        88.42493
765.09        88.37338
765.50        88.05644
765.92        87.46931
766.33        86.14262
766.75        84.59255
767.16        84.13181
767.58        84.94547
768.00        86.63113
768.41        88.74731
768.83        90.32986
769.24        90.74879
769.66        89.78378
770.07        88.08475
770.49        86.46433
770.90        85.38658
771.32        86.41477
771.73        88.80421
772.15        88.33389
772.56        85.49522
772.97        85.02269
773.39        86.81009
773.80        87.39462
774.22        86.54894
774.63         86.3962
775.05        86.89941
775.46        87.11377
775.88        86.94119
776.29        86.65036
776.70        86.37133
777.12        86.33977
777.53        86.61522
777.95        87.06112
778.36        87.45523
778.77        87.41582
779.19        86.92143
779.60        86.10689
780.02        85.30006
780.43        85.10048
780.84        85.67918
781.26        86.35677
781.67        87.00491
782.09        88.43002
782.50        89.97274
782.91         88.9859
783.33         86.2546
783.74         85.3135
784.15        86.36254
784.57        87.10474
784.98        87.19395
785.39        87.23626
785.81        87.14143
786.22        86.58528
786.63        85.93448
787.04        85.89257
787.46        86.52946
787.87        87.61468
788.28        88.76817
788.70        89.32518
789.11        89.12483
789.52        88.45348
789.93         87.6345
790.35        87.00462
790.76        86.74712
791.17        87.01595
791.58        87.62793
792.00        87.95419
792.41        87.85729
792.82        87.74172
793.23        87.74871
793.65        87.39654
794.06        87.04658
794.47        88.20168
794.88        89.94543
795.29        90.12485
795.71        87.08247
796.12        84.81881
796.53        83.52844
796.94        83.33496
797.35         84.2535
797.76        85.67505
798.18        86.97906
798.59        87.89458
799.00        88.07242
799.41        87.18822
799.82        85.73089
800.23        84.85973
800.64        84.81423
801.06        85.15884
801.47        85.76862
801.88        86.32742
802.29        86.68428
802.70        86.97507
803.11        87.16634
803.52          87.162
803.93        86.98432
804.34        86.62013
804.75        86.21375
805.17        86.13976
805.58        86.51768
805.99        86.86655
806.40        87.04379
806.81        87.73932
807.22        88.42543
807.63        87.08814
808.04        84.40633
808.45        83.23265
808.86        83.82467
809.27        84.74962
809.68         85.5787
810.09        86.14529
810.50        86.22771
810.91        85.90787
811.32        85.39243
811.73        85.01498
812.14        84.87748
812.55        84.83083
812.96        84.89732
813.37        85.11557
813.78        85.45586
814.19        85.97124
814.60        86.38477
815.01         86.2506
815.42        85.51963
815.83        84.28243
816.24        83.03967
816.65        82.67443
817.05        83.44046
817.46        85.04402
817.87        86.83181
818.28        87.63223
818.69        87.12374
819.10         85.6005
819.51        83.79242
819.92        82.93807
820.33        83.36665
820.74        84.70765
821.14        86.27571
821.55         86.8522
821.96        86.17924
822.37        84.68946
822.78        83.02538
823.19        82.12595
823.60        82.23915
824.00        83.12254
824.41        84.30724
824.82        85.11202
825.23        85.25092
825.64        84.96629
826.04        84.49861
826.45        84.19919
826.86        84.16721
827.27        84.23209
827.68         84.3395
828.08        84.46503
828.49        84.50379
828.90        84.56217
829.31        84.53519
829.72        84.21223
830.12        83.61823
830.53        82.82346
830.94        82.13011
831.35        81.94258
831.75        82.37273
832.16        83.24252
832.57        84.33632
832.97        85.17863
833.38        85.50961
833.79        85.44811
834.20        85.17429
834.60        84.97675
835.01        84.96746
835.42        85.03986
835.82        85.08276
836.23        84.83924
836.64        84.31103
837.04        83.63118
837.45        82.99162
837.86        82.67919
838.26        82.77458
838.67        83.15302
839.08        83.68526
839.48        84.12238
839.89         84.3278
840.29        84.37378
840.70        84.29457
841.11        84.13184
841.51        83.91985
841.92        83.61063
842.33        83.28144
842.73        83.08162
843.14        83.00569
843.54        83.07465
843.95        83.13433
844.35        82.98978
844.76        82.59715
845.17        82.05106
845.57        81.51109
845.98        81.22829
846.38        81.25588
846.79        81.48038
847.19        81.82464
847.60        82.04935
848.00        82.11248
848.41        82.05773
848.81        81.93365
849.22        81.73721
849.62        81.54823
850.03        81.36699
850.43        81.30885
850.84        81.48524
851.24        81.96189
851.65        82.50125
852.05        83.18135
852.46         83.9312
852.86        84.68877
853.27        85.50416
853.67         85.8503
854.07        85.05515
854.48        83.19205
854.88        80.51523
855.29        78.00568
855.69         77.0905
856.10         78.0441
856.50        80.69268
856.90        84.12207
857.31         86.1881
857.71        86.17203
858.12        84.60197
858.52        82.47846
858.92        81.15136
859.33        80.91878
859.73        81.41883
860.13        82.35641
860.54        83.12825
860.94        83.55933
861.34        83.82174
861.75        83.99933
862.15        84.29038
862.55        84.69698
862.96        85.07744
863.36         85.3876
863.76        85.53833
864.17        85.51271
864.57        85.43596
864.97        85.33342
865.38        85.21692
865.78        85.16142
866.18        85.08361
866.58        85.12309
866.99        85.50014
867.39        86.30062
867.79        87.49651
868.19        88.64744
868.60        88.92082
869.00         88.1347
869.40        86.50346
869.80        84.87868
870.21        84.61008
870.61        86.08695
871.01        88.89944
871.41        92.07187
871.81        93.92972
872.22        93.99478
872.62         92.7716
873.02        91.14606
873.42        90.58344
873.82        91.34367
874.22        92.87092
874.63        94.63007
875.03        95.48207
875.43        94.90747
875.83        93.76717
876.23        92.19515
876.63        91.87278
877.03        93.08617
877.44         96.1301
877.84        99.66687
878.24        103.6198
878.64        102.7496
879.04        100.0787
879.44        97.26013
879.84        95.69501
880.24        97.17816
880.64        98.81414
881.04         100.732
881.44        101.9006
881.84        101.3716
882.24        99.69886
882.65        97.98206
883.05        97.48661
883.45        98.45283
883.85        100.5951
884.25        103.1625
884.65        104.7316
885.05        104.8215
885.45        103.9164
885.85         102.766
886.25        102.4108
886.65        103.0632
887.05        104.3235
887.45        105.7752
887.85        106.6832
888.25        106.7722
888.65        106.3656
889.04        105.5533
889.44        104.5023
889.84        103.3526
890.24        102.0486
890.64        100.9864
891.04        100.7792
891.44        101.4812
891.84        102.9499
892.24        104.5518
892.64        105.1098
893.04        104.3897
893.44        102.8561
893.83        101.2083
894.23        100.4788
894.63        100.8739
895.03        102.0127
895.43        103.6627
895.83        105.3763
896.23        106.8414
896.63        108.1554
897.02        108.9516
897.42        108.6414
897.82        107.2482
898.22        105.0241
898.62        102.6856
899.01        101.2935
899.41        101.1245
899.81        101.8437
900.21        103.0743
900.61        104.1601
901.00        104.8278
901.40        105.2583
901.80        105.4531
902.20        105.4229
902.59         105.214
902.99        104.7636
903.39        104.1917
903.79        103.7478
904.18        103.5315
904.58         103.571
904.98         103.798
905.38        104.0812
905.77        104.3339
906.17        104.5428
906.57        104.7561
906.96        105.0957
907.36        105.5037
907.76        105.9656
908.15        106.2156
908.55        105.7209
908.95        104.4785
909.34        102.6294
909.74        100.8242
910.14        99.90257
910.53        100.0974
910.93        101.2497
911.33        102.8213
911.72        103.8152
912.12        103.8681
912.52        103.2506
912.91        102.5394
913.31        102.5043
913.70        103.3286
914.10        104.8194
914.49        106.4251
914.89        106.6475
915.29        105.0732
915.68        102.2934
916.08        99.68415
916.47        98.50132
916.87        98.88546
917.26        100.4061
917.66        102.1906
918.05        102.8466
918.45        102.0128
918.84        100.2106
919.24        98.31039
919.64        97.56348
920.03        98.29553
920.42        100.0675
920.82        102.2707
921.21        103.9958
921.61        104.7173
922.00        104.7737
922.40        104.2977
922.79        103.4243
923.19         102.315
923.58        100.9477
923.98        99.58008
924.37        98.75478
924.77         98.7821
925.16         99.2686
925.55        100.4198
925.95        101.7486
926.34        103.1427
926.74         104.451
927.13        105.4023
927.52        105.3391
927.92        104.3031
928.31         102.499
928.70        100.4344
929.10        98.98449
929.49        98.35179
929.89        98.34651
930.28        98.91078
930.67        99.91104
931.07        101.0828
931.46        102.5071
931.85        103.6765
932.24         103.866
932.64        102.9961
933.03        101.1608
933.42        98.83153
933.82        97.16054
934.21        96.48424
934.60        96.57044
934.99        97.03324
935.39        97.36084
935.78        97.48029
936.17        97.55949
936.56        97.45049
936.96        97.37425
937.35        96.60674
937.74        95.84475
938.13        95.39352
938.53        95.85017
938.92        97.21027
939.31        99.45052
939.70        101.8483
940.09        102.5164
940.49         100.883
940.88         97.7741
941.27        94.59476
941.66        92.96463
942.05        93.09386
942.44        94.48141
942.84        96.50706
943.23        98.17249
943.62        98.96182
944.01        99.09734
944.40        98.86343
944.79        98.71456
945.18         98.7798
945.57        98.89548
945.97        98.64221
946.36        97.39887
946.75        95.32226
947.14        93.06298
947.53        91.37617
947.92         90.8475
948.31        91.43423
948.70        92.96651
949.09        95.07783
949.48        96.80949
949.87        97.62366
950.26         97.6463
950.65        97.23885
951.04        97.05701
951.43        97.27905
951.82        97.67129
952.21        97.91554
952.60        97.56034
952.99        96.53496
953.38        95.06567
953.77        93.58429
954.16         92.6504
954.55        92.39386
954.94        92.72652
955.33        93.19765
955.72        93.04517
956.11        92.10594
956.50        90.56201
956.89        89.14021
957.28        89.15963
957.66        90.99432
958.05        93.96639
958.44        97.03809
958.83        98.67514
959.22        98.50896
959.61         96.9509
960.00        94.73845
960.39         93.0835
960.78        92.39672
961.16        92.41964
961.55        92.65193
961.94        92.27274
962.33        91.10541
962.72         89.5063
963.11        88.08539
963.49        87.60781
963.88        88.16688
964.27        89.56652
964.66        91.13041
965.04        91.49165
965.43         90.1692
965.82        87.80132
966.21        85.43062
966.60        84.35066
966.98        84.77956
967.37        86.25124
967.76        88.22968
968.15        89.63431
968.53        90.00814
968.92         89.6512
969.31        88.87428
969.69         88.0522
970.08        87.35983
970.47        86.70996
970.86         86.0827
971.24        85.51548
971.63        85.02978
972.02        84.65314
972.40         84.6738
972.79        85.47091
973.17        87.19618
973.56         89.6195
973.95        91.99936
974.33         92.9341
974.72         92.0042
975.11        89.64128
975.49        87.03995
975.88        85.84889
976.26        86.31206
976.65        88.14142
977.04        90.29289
977.42        90.24818
977.81         87.2422
978.19        82.39056
978.58        78.14596
978.96        77.04064
979.35        79.42052
979.74        84.71123
980.12        91.65936
980.51        96.07331
980.89        96.48468
981.28        94.06933
981.66        90.53128
982.05        88.08597
982.43        87.18137
982.82        87.04972
983.20        87.61832
983.59        88.95811
983.97        91.06068
984.35        94.16505
984.74        97.37984
985.12        98.89737
985.51        97.61484
985.89         93.8141
986.28        88.86322
986.66        85.14787
987.04        83.68015
987.43        83.96555
987.81        84.93081
988.20        85.26388
988.58         84.6023
988.96        82.94324
989.35        80.98135
989.73        81.82072
990.12        86.57601
990.50        93.36043
990.88        98.24934
991.27        98.77584
991.65        95.46213
992.03        89.09494
992.42        81.98801
992.80        78.46604
993.18        79.80262
993.56        83.84605
993.95         88.1956
994.33        90.51116
994.71        90.40263
995.10        89.04806
995.48        86.99928
995.86        84.89171
996.24        83.03595
996.63        80.94231
997.01        79.30298
997.39        80.18285
997.77        84.12054
998.15         90.4444
998.54        96.43874
998.92        98.69956
999.30        96.28185
999.68        90.05618
1000.06        81.58179
1000.45        74.99783
1000.83        72.16628
1001.21         71.8696
1001.59        73.40903
1001.97        76.03291
1002.35        79.47679
1002.73        84.77798
1003.12         90.2743
1003.50        90.85536
1003.88        84.54786
1004.26        73.87506
1004.64        64.31259
1005.02        60.69799
1005.40        63.56471
1005.78        73.30164
1006.16        90.01084
1006.54        103.2557
1006.92         103.747
1007.30        96.80621
1007.69        89.79791
1008.07        87.09226
1008.45        88.87682
1008.83        95.54195
1009.21        110.9955
1009.59        136.3281
1009.97        147.2198
1010.35         89.7887
1010.73        25.49574
1011.11        23.49694
1011.49        39.57495
1011.86        56.35042
1012.24        67.32628
1012.62        72.50311
1013.00        74.05296
1013.38        73.61643
1013.76        73.10663
1014.14         77.8817
1014.52        92.06429
1014.90        115.8396
1015.28        143.2219
1015.66        158.6827
1016.04        152.1209
1016.41        125.9179
1016.79        92.87738
1017.17        68.12381
1017.55        55.74383
1017.93         50.4232
1018.31        49.85643
1018.69        53.58128
1019.06        61.55195
1019.44        75.27278
1019.82        97.79059
1020.20        128.0117
1020.58        162.9554
1020.95        201.2161
1021.33        255.7182
1021.71       -687.0918
1022.09        53.50077
1022.46        90.71192
1022.84        103.6417
1023.22        115.6725
1023.60        141.1766
1023.97        373.0475
1024.35       -16.41055
1024.73        30.64719
