SpectraSmart Spectrum 2.9.0.0
--------- Device Information -----------
Spectrum Name :  反射率_0
Saving Time :  2024/04/26 02:09:38
Spectro-Module Model Name : SE2030-DUVN
Spectro-Module Serial Number : OS361AC55029948
Wavelength Start : 200
Wavelength End : 1025
Wavelength Unit : Wavelength(nm)
Spectrum Unit : Reflectance(%)
-----------Spectrum Setting ------------
Integration Time : 20ms
Average : 10
Boxcar : 0
Background removal :  enabled
linearity correction :  enabled
SC :  disabled
Intensity correction :  disabled
DWT denoise :  enabled
savitzky-golay :  disabled
FFT :  disabled
Running average :  disabled
Kalman :  disabled
High pass :  disabled
---------------BEGIN--------------------
Wavelength(nm)             Reflectance(%)
200.29               0
200.75         83.8568
201.21        81.76363
201.67         78.4108
202.13         75.9903
202.58        74.94353
203.04         75.0221
203.50        75.34683
203.96         74.7075
204.42        73.10526
204.88        71.16443
205.34        69.94869
205.80        70.65142
206.26        74.05094
206.72         82.3304
207.18        99.12543
207.64        115.3781
208.10        108.4205
208.55        89.79671
209.01        77.50465
209.47        73.50616
209.93        74.39088
210.39        78.29099
210.85         82.6407
211.31        82.15591
211.77        75.46709
212.23        64.91865
212.69        54.67962
213.14        51.03426
213.60        54.98721
214.06        64.79704
214.52        76.75541
214.98        85.05286
215.44        87.89805
215.90        86.92964
216.36         84.0373
216.81        81.77275
217.27        81.15203
217.73        81.19788
218.19        80.80648
218.65        78.50146
219.11        73.49895
219.57        65.06355
220.02        53.87724
220.48        45.89943
220.94        44.83939
221.40        49.88782
221.86        55.21003
222.32        54.25016
222.77        47.68166
223.23        39.18728
223.69        32.39643
224.15        31.04707
224.61        34.58999
225.06        40.99631
225.52        47.43375
225.98        50.47289
226.44        49.46644
226.90         45.9099
227.36        41.63477
227.81        39.06131
228.27        39.05045
228.73        40.60087
229.19        42.87187
229.65        44.64438
230.10        45.54147
230.56        45.99539
231.02         46.3457
231.48        46.95436
231.93        47.82585
232.39        48.76536
232.85        49.53685
233.31        49.85402
233.77        49.64477
234.22        49.04151
234.68        48.16704
235.14        47.23313
235.60         46.4418
236.05        45.84349
236.51        45.56219
236.97        45.69913
237.43        46.33863
237.88        47.68198
238.34        49.74276
238.80         52.3581
239.26        55.16747
239.71        58.00544
240.17        60.51032
240.63        62.87221
241.08        65.13683
241.54        66.97659
242.00        68.37957
242.46         69.4949
242.91         70.7747
243.37        72.68559
243.83        78.25385
244.28        99.32665
244.74          128.48
245.20        119.1411
245.66        107.6244
246.11        105.1021
246.57        108.9276
247.03        123.3034
247.48        165.8605
247.94        146.1389
248.40        101.2038
248.85        87.11226
249.31        83.17215
249.77        83.31627
250.22        86.00161
250.68        91.39373
251.14        99.51949
251.59        105.5547
252.05        104.4129
252.51        98.15283
252.96        90.86837
253.42        87.15771
253.88        86.68281
254.33        87.64301
254.79        90.01591
255.25        93.18089
255.70        96.24725
256.16         99.4141
256.62         101.168
257.07        99.89033
257.53        96.48247
257.99        91.45882
258.44        86.37975
258.90        84.09129
259.35        83.60513
259.81        83.94003
260.27        83.36179
260.72          80.201
261.18        75.27675
261.63        69.31139
262.09        63.76833
262.55        59.58849
263.00         56.7916
263.46        55.06166
263.91        53.71178
264.37        52.34654
264.83        50.71105
265.28        48.82926
265.74        47.03691
266.19        45.56109
266.65        44.61677
267.11        44.01993
267.56        43.45161
268.02         42.5336
268.47        41.14632
268.93         39.4251
269.38        37.61615
269.84        36.37885
270.30        35.87759
270.75        35.92857
271.21        36.14875
271.66        35.95629
272.12        35.20259
272.57        34.07076
273.03        32.87283
273.48         31.9895
273.94        31.54788
274.39        31.37299
274.85         31.2803
275.31        30.98895
275.76        30.42518
276.22        29.72054
276.67         28.9949
277.13        28.51427
277.58         28.2654
278.04         28.1786
278.49        28.06744
278.95        27.74368
279.40        27.14837
279.86        26.42516
280.31        25.65563
280.77        25.07549
281.22        24.69742
281.68        24.47586
282.13        24.35135
282.59        24.27931
283.04        24.22207
283.50        24.22737
283.95        24.22483
284.41        24.12704
284.86        23.91805
285.32        23.63135
285.77        23.38365
286.22        23.41926
286.68        23.74262
287.13        24.24083
287.59        24.70704
288.04        24.82289
288.50        24.55839
288.95        24.00919
289.41        23.38268
289.86        22.88001
290.32        22.62342
290.77        22.54103
291.22        22.61749
291.68        22.78772
292.13        23.03614
292.59        23.39666
293.04        23.88809
293.50        24.53298
293.95        25.30847
294.40        26.16229
294.86        27.03875
295.31        27.87105
295.77         28.6525
296.22        29.41493
296.68        30.17036
297.13        30.90626
297.58        31.65315
298.04        32.43404
298.49        33.33403
298.95        34.53072
299.40        36.03131
299.85        37.76896
300.31        39.58138
300.76         41.2085
301.21         42.5502
301.67        43.69685
302.12        44.68574
302.58        45.67207
303.03        46.68357
303.48        47.70832
303.94        48.81652
304.39         50.0605
304.84         51.4531
305.30        52.97733
305.75        54.49761
306.20        55.82119
306.66        56.92688
307.11        57.83021
307.57        58.67394
308.02        59.56782
308.47         60.5975
308.93        61.73228
309.38        62.91564
309.83        64.10523
310.29        65.26402
310.74         66.3699
311.19        67.42891
311.65        68.45224
312.10        69.42751
312.55        70.35322
313.00        71.15674
313.46        71.73187
313.91         72.0551
314.36        72.18542
314.82        72.28419
315.27        72.55502
315.72         73.0796
316.18        73.80643
316.63        74.63097
317.08        75.33321
317.53        75.83994
317.99        76.19341
318.44        76.51004
318.89          76.989
319.35        77.65221
319.80        78.45332
320.25        79.19454
320.70        79.55872
321.16        79.48429
321.61        79.07848
322.06        78.58837
322.51        78.40248
322.97        78.59649
323.42        79.09409
323.87        79.68709
324.32        80.01331
324.78        79.96619
325.23        79.69743
325.68         79.3636
326.13        79.24153
326.59        79.39327
327.04        79.75111
327.49        80.22218
327.94        80.68237
328.39        81.07549
328.85         81.4255
329.30        81.76068
329.75        81.98347
330.20        82.10316
330.66        82.12527
331.11         82.2067
331.56        82.53463
332.01        83.16615
332.46        84.04236
332.92        85.02957
333.37         86.0344
333.82        86.90709
334.27        87.66755
334.72        88.25811
335.17        88.60694
335.63        88.72123
336.08        88.65948
336.53        88.54357
336.98        88.61804
337.43        88.94979
337.88        89.47609
338.34        90.11606
338.79        90.80977
339.24        91.47447
339.69        92.15721
340.14        92.74724
340.59        93.05235
341.05        93.05739
341.50        92.80273
341.95        92.54084
342.40        92.67333
342.85        93.27561
343.30        94.23997
343.75        95.28744
344.20        95.91978
344.66        96.00905
345.11        95.69082
345.56        95.22503
346.01        95.00611
346.46        95.14181
346.91        95.51138
347.36        95.96143
347.81        96.25899
348.26        96.34856
348.72        96.33689
349.17         96.3064
349.62        96.43397
350.07        96.74895
350.52        97.15738
350.97        97.56273
351.42        97.83643
351.87        97.93771
352.32        97.91368
352.77        97.77491
353.22         97.5361
353.67         97.2256
354.13        96.86084
354.58        96.48197
355.03        96.21068
355.48        96.06287
355.93        96.00232
356.38        95.95189
356.83        95.78182
357.28        95.45189
357.73        94.99832
358.18        94.45039
358.63        93.85764
359.08        93.25194
359.53        92.63217
359.98        92.01746
360.43        91.43741
360.88        90.89327
361.33        90.37104
361.78        89.87503
362.23        89.40697
362.68         88.9616
363.13        88.54736
363.58        88.09943
364.03         87.5136
364.48        86.78278
364.93        85.94014
365.38        85.11262
365.83        84.50962
366.28        84.16578
366.73         84.0013
367.18          83.882
367.63        83.58643
368.08        83.06252
368.53        82.40646
368.98        81.67741
369.43         80.9579
369.88        80.28834
370.33        79.63167
370.78        79.06808
371.23         78.7374
371.68        78.65132
372.13        78.77526
372.58        78.93515
373.03        78.82827
373.48        78.38831
373.93        77.71098
374.38        76.97772
374.83        76.46936
375.28        76.25128
375.72        76.21886
376.17        76.27589
376.62        76.24004
377.07        76.04173
377.52          75.722
377.97        75.31713
378.42        74.88414
378.87        74.45337
379.32        74.02299
379.77        73.56026
380.22        73.01436
380.67        72.38188
381.11        71.68594
381.56        71.02837
382.01        70.57668
382.46        70.37504
382.91        70.39397
383.36        70.47201
383.81          70.349
384.26        69.97173
384.71         69.4036
385.15        68.83109
385.60        68.60247
386.05        68.72398
386.50        69.06841
386.95        69.37997
387.40        69.23708
387.85        68.59483
388.29        67.63927
388.74        66.70583
389.19         66.0011
389.64        65.56637
390.09        65.27367
390.54        65.15977
390.98        65.28793
391.43        65.62396
391.88        66.12958
392.33        66.52752
392.78         66.4021
393.23        65.74966
393.67        64.71476
394.12        63.73661
394.57        63.23449
395.02        63.29497
395.47        63.75762
395.91        64.45282
396.36        64.97693
396.81         65.1881
397.26        65.16363
397.71        64.95065
398.15        64.54714
398.60         64.0832
399.05        63.63673
399.50        63.22805
399.95        62.58432
400.39        62.08038
400.84        61.79269
401.29        61.80169
401.74        61.98751
402.18        62.23807
402.63        62.22203
403.08        62.03357
403.53        62.12517
403.97        62.50414
404.42        62.87155
404.87        63.06553
405.32         62.9255
405.76        62.40928
406.21        61.72017
406.66        61.05507
407.11        60.51377
407.55        60.27173
408.00        60.65828
408.45        61.46421
408.90        61.87761
409.34        61.68979
409.79        61.15365
410.24        60.52132
410.68        60.17177
411.13        60.19738
411.58        60.39305
412.03        60.68197
412.47        61.00615
412.92        61.26038
413.37        61.48516
413.81        61.62059
414.26        61.61308
414.71        61.44783
415.15        61.12899
415.60        60.75459
416.05        60.51105
416.49         60.4501
416.94        60.54354
417.39        60.66726
417.83        60.58934
418.28        60.28014
418.73        59.82768
419.17        59.41285
419.62        59.32608
420.07        59.58622
420.51        60.08271
420.96        60.62928
421.41        60.86047
421.85        60.66425
422.30        60.39801
422.74        60.09696
423.19        59.55981
423.64        58.97172
424.08        59.12345
424.53        59.89158
424.98         60.3106
425.42        60.26928
425.87        60.47027
426.31        60.87642
426.76        60.75128
427.21        60.29876
427.65        60.52439
428.10        61.34578
428.54        61.97857
428.99        62.37617
429.44        62.56565
429.88        62.54042
430.33        63.12754
430.77        63.80232
431.22        62.58632
431.66        60.09911
432.11         59.1501
432.56        59.85471
433.00        60.64647
433.45        61.43119
433.89        62.88432
434.34        63.71313
434.78        65.56527
435.23        61.97617
435.67        59.73351
436.12        62.36942
436.57        63.43318
437.01        64.02898
437.46        64.36169
437.90        64.61883
438.35        63.99717
438.79        64.52522
439.24        64.33409
439.68        64.07098
440.13        63.64348
440.57        63.35478
441.02        64.09979
441.46        65.50059
441.91        66.16214
442.35         65.9131
442.80        65.26197
443.24        64.54048
443.69        65.06033
444.13        66.45402
444.58        66.63912
445.02        65.07389
445.47        64.95966
445.91        65.98458
446.36        66.31982
446.80        65.89757
447.24        65.70808
447.69        65.84177
448.13        66.00733
448.58        66.21795
449.02        66.50347
449.47        66.80132
449.91        67.02035
450.36        67.13552
450.80        67.15555
451.25        67.09555
451.69        66.95481
452.13        66.76849
452.58        66.54227
453.02        66.34536
453.47        66.32068
453.91        66.46844
454.36        66.76105
454.80        67.10353
455.24         67.1561
455.69        66.85602
456.13        66.58415
456.58        66.54356
457.02        65.64847
457.46        65.67267
457.91        66.03169
458.35        66.44112
458.79        66.65033
459.24         66.4704
459.68        66.13801
460.13        65.71918
460.57        65.42181
461.01        65.38437
461.46        64.76456
461.90        64.53054
462.34        65.03118
462.79        64.42467
463.23         64.5451
463.68        64.86486
464.12        65.28156
464.56        65.65495
465.01        65.64867
465.45         65.2626
465.89        65.09774
466.34        65.03232
466.78        64.20695
467.22        63.14602
467.67        62.30954
468.11        63.83186
468.55        64.47253
468.99        64.55828
469.44        64.27176
469.88        63.80417
470.32        63.78634
470.77        64.15186
471.21         64.1622
471.65        63.78732
472.10        63.61988
472.54        63.68067
472.98         63.7133
473.42        63.70458
473.87        63.81466
474.31        63.95451
474.75        63.85699
475.20        63.58955
475.64        63.48563
476.08         63.5871
476.52        63.54071
476.97        63.31403
477.41        63.37214
477.85         63.7718
478.29        63.14215
478.74        63.57833
479.18        63.70954
479.62        62.75584
480.06        63.29744
480.50        63.57423
480.95        63.82051
481.39        63.60847
481.83        63.18489
482.27        62.91656
482.72         63.0214
483.16        61.77018
483.60        62.05547
484.04        63.47871
484.48        63.84779
484.93        63.61882
485.37        65.04039
485.81        65.67301
486.25        64.33316
486.69        86.17284
487.14        70.12362
487.58        43.83556
488.02         54.1549
488.46        61.70086
488.90        61.28499
489.34        62.43798
489.79        62.04934
490.23         63.7359
490.67        64.46918
491.11        63.39373
491.55        63.29718
491.99        63.78844
492.43        63.62642
492.88        62.90691
493.32        62.85032
493.76        62.99543
494.20         63.2019
494.64        63.25314
495.08        63.29246
495.52        63.38779
495.96        63.47563
496.41        63.49509
496.85        63.89008
497.29        64.43491
497.73        63.44712
498.17        61.80151
498.61        62.00594
499.05        64.06243
499.49        64.53286
499.93        64.74377
500.37         64.3863
500.82        63.48476
501.26        63.48335
501.70        64.12905
502.14        64.51202
502.58        64.30486
503.02          64.188
503.46        64.10302
503.90        63.72625
504.34        63.20919
504.78        62.94363
505.22        62.97976
505.66         63.2506
506.10        63.65034
506.54        63.77401
506.98        63.50839
507.42        63.57232
507.86        63.45393
508.30        62.82234
508.74        63.38004
509.18        63.58169
509.62        63.85828
510.06        63.98464
510.50        63.93474
510.94        63.74808
511.38        63.51672
511.82        63.42894
512.26        63.52413
512.70         63.7451
513.14        64.00641
513.58        64.17049
514.02         64.1913
514.46        64.10719
514.90        63.98317
515.34        63.90172
515.78        63.87516
516.22        63.94981
516.66        64.07637
517.10        63.97163
517.54        63.61683
517.98        63.79263
518.42        63.50856
518.86        63.59196
519.30        63.73913
519.74        64.00396
520.18          64.298
520.62        64.46848
521.06        64.49108
521.50        64.40741
521.93        64.27061
522.37        64.16825
522.81        64.13541
523.25        64.14371
523.69        64.19469
524.13         64.2926
524.57        64.42776
525.01        64.59951
525.45         64.7667
525.89        64.86002
526.32        64.85538
526.76        64.76584
527.20        64.62881
527.64        64.52501
528.08        64.48999
528.52        64.45189
528.96        64.35591
529.40        64.29546
529.83        64.29845
530.27        63.69561
530.71        63.80029
531.15        63.68189
531.59        63.73308
532.03        63.88047
532.46        64.11469
532.90        64.39074
533.34        64.65874
533.78        64.92087
534.22        65.10359
534.66        65.10609
535.09        64.91286
535.53        64.58499
535.97        64.20778
536.41        63.93871
536.85        63.82733
537.28        63.84213
537.72        63.93655
538.16        64.02914
538.60        64.08735
539.04         64.1216
539.47        64.06893
539.91        64.16946
540.35        64.33413
540.79        64.28397
541.22        64.05051
541.66        63.94862
542.10         63.9915
542.54        64.00786
542.97         63.9936
543.41        64.04031
543.85        64.13274
544.29         64.2635
544.72        64.36076
545.16        64.32419
545.60        64.13029
546.04        63.85094
546.47        63.60133
546.91        63.47406
547.35        63.54306
547.79        64.01022
548.22        64.62968
548.66        64.76745
549.10        64.37054
549.53        63.79222
549.97        63.27203
550.41         62.9739
550.84        62.97831
551.28         63.2528
551.72        63.65927
552.15        63.93447
552.59         64.0047
553.03        63.95037
553.46        63.82674
553.90         63.7816
554.34        63.84507
554.77        63.89677
555.21        63.89784
555.65        63.98959
556.08        64.19205
556.52        63.71384
556.96        64.04718
557.39         63.9185
557.83        63.82634
558.27        63.85232
558.70        64.00146
559.14        64.14748
559.57        64.24449
560.01        64.37064
560.45        64.48546
560.88        64.48779
561.32        64.38291
561.75        64.20709
562.19        64.02797
562.63        63.68739
563.06        63.31461
563.50        63.41104
563.93        63.85132
564.37        64.03278
564.80        63.88641
565.24         63.7672
565.68        63.71308
566.11        63.65485
566.55        63.64953
566.98        63.68008
567.42        63.74545
567.85        63.87404
568.29        64.07465
568.72        64.08544
569.16        64.07924
569.60        64.41252
570.03        64.77044
570.47        64.74194
570.90        64.58223
571.34        62.81686
571.77        63.60161
572.21        63.65039
572.64        63.15999
573.08        62.54094
573.51        59.82299
573.95        62.14821
574.38        65.84159
574.82         64.5022
575.25         63.6195
575.69         61.6802
576.12        60.53069
576.56        60.01546
576.99        61.56993
577.42        63.98108
577.86        64.28606
578.29        63.41497
578.73        66.71275
579.16        61.47908
579.60        56.67923
580.03        59.12579
580.47        62.84158
580.90        64.57146
581.33        63.07521
581.77        62.29803
582.20        68.34962
582.64        67.89482
583.07        58.11777
583.51         57.0362
583.94         55.9805
584.37        58.60529
584.81        61.85055
585.24        65.04347
585.68        66.10906
586.11        65.31649
586.54        60.74802
586.98        58.72792
587.41        59.17299
587.85        62.66962
588.28        64.54437
588.71        61.83496
589.15        59.60015
589.58        60.88923
590.01        61.43466
590.45        62.00135
590.88        63.02198
591.31        62.38757
591.75        61.99524
592.18        62.02121
592.61        63.33323
593.05        63.68874
593.48        66.05388
593.91        67.02992
594.35        61.41597
594.78        60.23369
595.21        59.91007
595.65        62.51341
596.08        64.79848
596.51        62.18558
596.94        60.56878
597.38        61.22231
597.81        63.72145
598.24        65.28926
598.68        63.92751
599.11        63.17791
599.54        65.33411
599.97        66.58892
600.41        62.18798
600.84        62.14538
601.27        63.66078
601.70        62.52242
602.14        62.61254
602.57        61.79626
603.00        62.48232
603.43        63.84513
603.87        65.05653
604.30        64.51233
604.73           62.63
605.16        61.33484
605.60        62.27134
606.03        63.29049
606.46        64.10184
606.89        64.19652
607.32        61.98931
607.76          61.813
608.19        63.87187
608.62        63.32219
609.05        62.09601
609.48        62.51687
609.92        62.35458
610.35        61.87111
610.78        64.23354
611.21        64.53829
611.64        61.88896
612.07        62.49044
612.50        62.86232
612.94        63.27616
613.37        62.79267
613.80        62.83761
614.23        63.25611
614.66        63.16389
615.09        63.42548
615.52        63.40348
615.96        63.18324
616.39        63.44277
616.82        62.58687
617.25        62.09287
617.68        62.88449
618.11        63.37075
618.54        63.68892
618.97        63.27676
619.40        62.50178
619.84        62.18894
620.27        63.14281
620.70        63.73523
621.13        64.00883
621.56        63.69148
621.99        63.02144
622.42        63.65648
622.85        65.13932
623.28        64.90791
623.71        64.35258
624.14        64.14509
624.57        64.07549
625.00        63.79814
625.43        63.93166
625.86        63.20921
626.29         63.0574
626.72         63.8116
627.15        63.36006
627.58         63.6578
628.01        63.88994
628.44        64.21847
628.87        64.32301
629.30        64.36456
629.73        64.48621
630.16        64.60938
630.59        64.44682
631.02        64.04144
631.45        63.44767
631.88         63.1154
632.31        63.09966
632.74        63.19577
633.17        63.33402
633.60        63.46265
634.03        63.54006
634.46        63.58569
634.89          63.602
635.32        63.58947
635.75          63.556
636.18         63.4988
636.61        63.46175
637.04        63.46938
637.47        63.58943
637.89        63.79171
638.32        64.02465
638.75        64.05786
639.18        63.83315
639.61        63.96891
640.04        63.52404
640.47        63.37877
640.90        63.27336
641.33        63.20768
641.76        63.15816
642.18        63.19658
642.61        63.32347
643.04        63.36827
643.47        63.27349
643.90        63.76596
644.33        63.51733
644.76        63.59433
645.18        63.59714
645.61        63.53804
646.04        63.40646
646.47        63.19867
646.90        63.00782
647.33         62.9314
647.75        63.01374
648.18        63.28252
648.61        63.54777
649.04        63.50629
649.47        63.11917
649.89         62.3614
650.32        61.64748
650.75        61.70626
651.18        62.49273
651.61        63.48758
652.03        64.22186
652.46        64.02882
652.89         63.3147
653.32        62.59856
653.74        62.21285
654.17        63.35942
654.60        63.92301
655.03        61.74451
655.46          62.611
655.88        66.61315
656.31        69.84532
656.74        155.1999
657.16        100.6321
657.59         35.8538
658.02        27.13995
658.45        47.14639
658.87        60.58574
659.30        63.64205
659.73        63.04032
660.15        60.89552
660.58        62.91677
661.01        64.51267
661.44        62.65047
661.86        61.98396
662.29         61.8203
662.72        62.40882
663.14        63.55186
663.57          63.539
664.00        62.58198
664.42        62.41547
664.85         63.0975
665.27        63.51498
665.70        63.47869
666.13        63.32434
666.55        63.03786
666.98        62.52115
667.41        61.96415
667.83        61.72613
668.26        61.88247
668.69        62.29791
669.11        62.73441
669.54        63.10839
669.96        62.74956
670.39         62.2612
670.82        61.69492
671.24        61.42006
671.67        61.55905
672.09        62.01427
672.52        62.50581
672.94        63.00226
673.37        62.40462
673.80        62.21357
674.22        62.18831
674.65         62.1268
675.07        62.03072
675.50        61.90783
675.92        61.81149
676.35        61.85449
676.77        62.03822
677.20        62.27081
677.62        62.49947
678.05        62.59554
678.47        62.51793
678.90        62.49926
679.32         62.2796
679.75        62.08247
680.17        62.08675
680.60        62.07706
681.02        62.10068
681.45        62.08836
681.87        62.03499
682.30        61.98837
682.72        61.96896
683.15        61.93461
683.57        61.94901
684.00        62.09956
684.42        62.48573
684.85         62.6062
685.27        62.47672
685.70        62.27401
686.12        62.06832
686.54        61.95318
686.97         61.9516
687.39        62.05138
687.82        62.17941
688.24        62.26171
688.66        62.25387
689.09        62.17925
689.51        62.09885
689.94         62.0881
690.36        62.17178
690.78        62.31969
691.21        62.46494
691.63        62.50864
692.06        62.43316
692.48        62.27774
692.90        62.12604
693.33        62.09462
693.75         62.2135
694.17        62.45147
694.60        62.72496
695.02        62.90071
695.44        62.91105
695.87        62.88429
696.29        62.89108
696.71         62.7039
697.14        62.45505
697.56        62.86377
697.98        63.69674
698.41        63.49498
698.83        62.84305
699.25        62.40579
699.68        62.42188
700.10        62.36478
700.52        62.25565
700.94        62.40615
701.37        62.74226
701.79        63.05096
702.21        63.24771
702.64        63.39992
703.06        63.45985
703.48        63.34221
703.90         63.0626
704.33        62.65203
704.75        62.21914
705.17        62.01978
705.59        62.11833
706.01        62.34629
706.44        62.58306
706.86        63.16994
707.28        63.20663
707.70        63.37913
708.12        63.44164
708.55        63.41344
708.97        63.29008
709.39        63.07457
709.81        62.85117
710.23        62.75839
710.66        62.83108
711.08        63.05868
711.50        63.31262
711.92        63.39634
712.34        63.26491
712.76        62.96681
713.19        62.63607
713.61        62.51606
714.03        62.65274
714.45        62.97744
714.87        63.32488
715.29        63.43407
715.71        63.24935
716.13        62.85405
716.56        62.41973
716.98        62.24735
717.40        62.40129
717.82        62.78712
718.24         63.2321
718.66        63.44699
719.08         63.3546
719.50        63.04873
719.92        62.66334
720.34        62.42492
720.76        62.40032
721.19        62.41822
721.61        62.60863
722.03        62.74384
722.45        62.83956
722.87        62.92154
723.29        63.00029
723.71        63.08167
724.13        63.16364
724.55        63.22942
724.97        63.26833
725.39        63.27509
725.81        63.24968
726.23        63.20037
726.65        63.13938
727.07        63.08012
727.49        63.03463
727.91        63.01239
728.33        63.01375
728.75        63.03678
729.17        63.07733
729.59        63.12423
730.01        63.19835
730.43        63.32585
730.85        63.50526
731.27        63.74501
731.69        63.96028
732.10        63.99629
732.52        63.82932
732.94        63.54741
733.36        63.30005
733.78        63.20669
734.20        63.30515
734.62        63.82557
735.04        64.56876
735.46        64.56421
735.88        64.01749
736.30        64.37817
736.72        65.56139
737.13        66.03111
737.55        65.56189
737.97        65.36613
738.39        65.51077
738.81        64.86103
739.23        63.80294
739.65        64.43752
740.06        66.34103
740.48        66.56579
740.90        65.19389
741.32        64.66693
741.74        65.17808
742.16        65.44842
742.57        65.50108
742.99        66.04195
743.41        66.89455
743.83        67.38201
744.25        67.39662
744.67        67.10633
745.08        66.73485
745.50        66.64581
745.92        66.94095
746.34        67.49477
746.75        68.09783
747.17        68.39713
747.59        68.32699
748.01        68.00401
748.42        67.65997
748.84        67.65076
749.26        68.06529
749.68        68.76228
750.09        69.54162
750.51        70.07439
750.93        70.26992
751.35        70.17337
751.76        69.88734
752.18        69.74419
752.60        69.73028
753.01         69.4738
753.43         69.0849
753.85        69.03844
754.27        69.37752
754.68        69.99963
755.10        70.76771
755.52        70.99698
755.93        71.53389
756.35        71.61478
756.77        71.60435
757.18        71.56908
757.60        71.54685
758.02        71.71268
758.43         71.8651
758.85        71.52656
759.26        70.16893
759.68        70.34073
760.10        71.55743
760.51        71.90583
760.93        71.17712
761.34        70.34463
761.76        69.72989
762.18        69.52784
762.59        69.86692
763.01        69.93538
763.42        70.76672
763.84        71.16998
764.26        71.40366
764.67        71.46112
765.09        71.33495
765.50        71.00743
765.92         70.5211
766.33         69.7013
766.75        68.88293
767.16        68.80712
767.58        69.54208
768.00        70.88573
768.41        72.46471
768.83        73.40233
769.24        73.35196
769.66        72.40145
770.07        71.11375
770.49        70.18526
770.90        69.79507
771.32        70.63387
771.73         72.1283
772.15        71.52124
772.56        69.26109
772.97        68.73892
773.39        69.90336
773.80        70.26854
774.22        69.68928
774.63        69.77092
775.05        70.41705
775.46        70.74475
775.88        70.63229
776.29        70.34972
776.70        70.01826
777.12        69.84868
777.53         69.9167
777.95        70.10954
778.36        70.31041
778.77        70.31904
779.19        70.11993
779.60        69.77733
780.02         69.4549
780.43        69.45347
780.84         69.8647
781.26        70.28209
781.67        70.64067
782.09        71.43394
782.50        72.28678
782.91        71.56657
783.33        69.79682
783.74        69.21957
784.15        69.94876
784.57        70.45495
784.98        70.51385
785.39        70.55772
785.81        70.52431
786.22        70.14908
786.63        69.68632
787.04        69.64985
787.46        70.08989
787.87        70.84322
788.28        71.62925
788.70        71.97112
789.11        71.75854
789.52        71.16728
789.93        70.47351
790.35        70.04393
790.76        69.99669
791.17        70.30207
791.58        70.77835
792.00        71.05264
792.41        71.01931
792.82         70.7691
793.23        70.53357
793.65        70.43185
794.06        70.58141
794.47         71.5038
794.88        72.58865
795.29        72.05085
795.71        70.13055
796.12        68.34077
796.53        67.25368
796.94        67.07739
797.35        67.82807
797.76        68.96253
798.18        69.97758
798.59          70.704
799.00        70.86145
799.41        70.17878
799.82        69.04853
800.23        68.39821
800.64         68.4119
801.06        68.73929
801.47        69.25642
801.88        69.65472
802.29        69.81407
802.70        69.88145
803.11        69.86414
803.52        69.73887
803.93        69.53066
804.34        69.19784
804.75        68.89761
805.17        68.91412
805.58        69.31432
805.99        69.96149
806.40        70.56354
806.81        70.76506
807.22        70.38825
807.63        69.26433
808.04        67.85631
808.45        67.16633
808.86        67.35859
809.27        68.04135
809.68        68.90275
810.09        69.46227
810.50        69.52388
810.91        69.25033
811.32        68.81126
811.73        68.48159
812.14        68.34824
812.55        68.26929
812.96        68.27161
813.37        68.41632
813.78        68.68561
814.19        69.12074
814.60        69.46964
815.01        69.32735
815.42        68.64999
815.83        67.52272
816.24        66.40388
816.65        66.10157
817.05        66.84016
817.46        68.34603
817.87        70.01864
818.28        70.78802
818.69         70.3586
819.10        69.00643
819.51        67.36766
819.92        66.52489
820.33        66.77741
820.74        67.79976
821.14        69.05012
821.55        69.55477
821.96        69.09841
822.37        68.03001
822.78        66.81557
823.19        66.12752
823.60        66.15064
824.00        66.70286
824.41        67.47011
824.82        68.02209
825.23         68.1638
825.64        68.04484
826.04        67.80485
826.45        67.63685
826.86        67.59665
827.27        67.58248
827.68        67.55095
828.08        67.47735
828.49        67.29975
828.90        67.10749
829.31        66.88857
829.72        66.60364
830.12        66.30321
830.53        65.99181
830.94        65.81625
831.35        65.96603
831.75        66.49605
832.16         67.2825
832.57        68.18047
832.97        68.85626
833.38        69.12645
833.79        69.07277
834.20        68.82742
834.60        68.60506
835.01        68.50195
835.42        68.44351
835.82        68.38698
836.23        68.19579
836.64        67.87987
837.04        67.51865
837.45        67.18659
837.86        66.99179
838.26        66.96736
838.67        67.04694
839.08        67.19482
839.48        67.33932
839.89        67.42052
840.29        67.46431
840.70        67.44698
841.11        67.32401
841.51        67.10477
841.92        66.78004
842.33        66.44365
842.73        66.26255
843.14         66.2406
843.54        66.36684
843.95        66.49788
844.35        66.45221
844.76        66.17743
845.17        65.75915
845.57         65.3137
845.98        65.01566
846.38        64.91474
846.79        64.93574
847.19        65.05637
847.60        65.16475
848.00        65.24982
848.41        65.31261
848.81        65.36826
849.22        65.36365
849.62        65.33971
850.03        65.30583
850.43         65.3194
850.84        65.43301
851.24        65.69108
851.65        65.92899
852.05        66.24797
852.46        66.65218
852.86        67.11929
853.27        67.65797
853.67        67.88442
854.07        67.31969
854.48        66.00788
854.88        64.14088
855.29        62.35252
855.69        61.54784
856.10        61.90349
856.50        63.31691
856.90        65.28904
857.31          66.628
857.71        66.93871
858.12           66.45
858.52        65.63641
858.92        65.13063
859.33        65.08881
859.73        65.33492
860.13         65.7504
860.54        66.10336
860.94        66.35758
861.34        66.58109
861.75        66.79388
862.15         67.0985
862.55        67.47701
862.96         67.8877
863.36         68.2859
863.76        68.57674
864.17        68.72541
864.57        68.79736
864.97        68.86662
865.38        69.04343
865.78        69.39518
866.18        69.80983
866.58        70.21519
866.99        70.48681
867.39        70.62418
867.79        70.68868
868.19        70.59071
868.60        70.16086
869.00         69.4145
869.40        68.44589
869.80        67.71874
870.21        67.92453
870.61        69.26236
871.01        71.50524
871.41        74.00546
871.81        75.64484
872.22        76.10321
872.62        75.64265
873.02        74.78574
873.42        74.65323
873.82         75.2392
874.22        75.67946
874.63        75.85114
875.03         75.6714
875.43        75.05211
875.83        75.47806
876.23         73.8471
876.63        72.96716
877.03         72.4259
877.44        72.42999
877.84        108.0597
878.24         79.4855
878.64        80.46066
879.04        82.28972
879.44        75.96975
879.84        72.75873
880.24        79.60762
880.64        82.29997
881.04        82.25467
881.44        81.78172
881.84        80.68389
882.24        78.98772
882.65        77.63091
883.05        77.26672
883.45        77.99223
883.85        80.03024
884.25        82.62432
884.65        83.98746
885.05        83.61839
885.45        82.11839
885.85        80.32432
886.25        79.39137
886.65        79.57922
887.05        80.48362
887.45         81.7464
887.85        82.73767
888.25        83.18684
888.65        83.33546
889.04        83.21832
889.44        82.91206
889.84        82.47451
890.24        81.82639
890.64        81.19389
891.04          80.957
891.44        81.16633
891.84        81.77101
892.24        82.41145
892.64        82.41349
893.04        81.68844
893.44        80.53812
893.83         79.4529
894.23        79.12715
894.63        79.67347
895.03        80.79922
895.43        82.25812
895.83        83.58052
896.23        84.49757
896.63        85.13531
897.02        85.25781
897.42        84.52063
897.82        83.01871
898.22        80.95808
898.62        79.01141
899.01        78.16213
899.41        78.60094
899.81        79.98304
900.21        81.80739
900.61        83.22939
901.00        83.93225
901.40        84.12441
901.80         83.9319
902.20        83.56764
902.59        83.14213
902.99        82.58205
903.39         81.9395
903.79        81.34373
904.18        80.87563
904.58         80.6185
904.98        80.63052
905.38        80.96085
905.77        81.54295
906.17        82.26762
906.57        82.99235
906.96        83.56064
907.36        83.84995
907.76        83.92912
908.15        83.72411
908.55        83.02858
908.95        81.92771
909.34        80.48457
909.74        79.15206
910.14        78.44599
910.53        78.51138
910.93        79.28443
911.33        80.44621
911.72        81.40508
912.12        81.85057
912.52        81.86017
912.91        81.73264
913.31        81.84216
913.70        82.30666
914.10        83.05605
914.49        83.63888
914.89        83.07843
915.29        81.22312
915.68        78.57969
916.08         76.3347
916.47        75.59881
916.87        76.40724
917.26         78.3907
917.66        80.64592
918.05        81.69003
918.45        81.11797
918.84        79.44629
919.24        77.53517
919.64        76.64853
920.03        77.13272
920.42        78.56455
920.82         80.4334
921.21        81.97052
921.61        82.68706
922.00        82.86426
922.40        82.53374
922.79        81.79112
923.19        80.83836
923.58        79.39026
923.98        77.53904
924.37        76.54391
924.77        77.01757
925.16        74.12593
925.55        76.42891
925.95        77.09325
926.34        78.58952
926.74        80.43388
927.13         82.2412
927.52        82.99821
927.92        82.55839
928.31        81.27505
928.70        79.54661
929.10        78.11047
929.49        77.15738
929.89        76.49958
930.28        76.31804
930.67        76.91255
931.07        78.13756
931.46        80.01938
931.85        81.70675
932.24        81.90508
932.64        80.42274
933.03        77.42685
933.42        73.89455
933.82        71.94207
934.21        72.11253
934.60        73.75992
934.99        75.61734
935.39        76.48569
935.78        76.19243
936.17        74.30196
936.56        70.65806
936.96        71.98969
937.35        70.15031
937.74          71.631
938.13         73.0863
938.53        74.39254
938.92        75.58721
939.31         76.9452
939.70        78.23474
940.09        78.49751
940.49        77.53999
940.88        75.79833
941.27        74.03267
941.66         73.1588
942.05        73.27853
942.44        74.04949
942.84        75.27613
943.23        76.65334
943.62        77.86288
944.01        78.95147
944.40        79.53173
944.79        78.99212
945.18        77.19064
945.57        74.12511
945.97        70.44048
946.36        67.87975
946.75        67.35936
947.14        68.35585
947.53        69.95806
947.92        71.19141
948.31        71.92361
948.70        72.47752
949.09        72.95576
949.48        73.47599
949.87        74.02433
950.26        74.36966
950.65        74.55128
951.04        74.74883
951.43        74.99271
951.82        75.29971
952.21         75.4062
952.60        74.88289
952.99        73.69345
953.38        71.97861
953.77         70.2951
954.16        69.43084
954.55         69.5287
954.94        70.46301
955.33        71.50177
955.72        71.39648
956.11        69.88284
956.50        67.26663
956.89        64.69353
957.28        64.27189
957.66        66.59775
958.05         70.7373
958.44         75.1704
958.83        77.65224
959.22        77.63603
959.61        75.75504
960.00        72.97479
960.39        70.88994
960.78        70.03668
961.16        69.98435
961.55        70.23045
961.94         69.9159
962.33        68.84218
962.72        67.46103
963.11        66.22849
963.49        65.65154
963.88        65.80678
964.27        66.52616
964.66        67.51061
965.04        68.16747
965.43        68.17983
965.82        67.77879
966.21        67.32619
966.60        67.31328
966.98        67.85791
967.37        68.75561
967.76        69.78243
968.15           70.48
968.53        70.65594
968.92        70.39095
969.31        69.90221
969.69         69.4566
970.08        69.11882
970.47        68.83038
970.86         68.4212
971.24        67.59768
971.63        66.34988
972.02        64.83608
972.40        63.42656
972.79        62.76667
973.17        63.13378
973.56        64.26199
973.95        65.89351
974.33        67.42539
974.72        68.37849
975.11        68.76677
975.49        68.65633
975.88        68.28339
976.26        67.70145
976.65        66.85792
977.04        65.52686
977.42        63.45409
977.81        60.93087
978.19        58.30335
978.58        56.63832
978.96          56.794
979.35        58.81508
979.74        62.63175
980.12        67.45792
980.51        70.41389
980.89        70.61279
981.28        68.68863
981.66        66.08344
982.05        64.66972
982.43          64.759
982.82        65.67318
983.20         67.0451
983.59        68.36729
983.97        69.53587
984.35        70.82714
984.74         71.8853
985.12        72.12855
985.51        71.16001
985.89          68.859
986.28        66.05123
986.66        63.97599
987.04        63.17752
987.43        63.44451
987.81         63.7681
988.20        62.68899
988.58        59.66171
988.96        54.10521
989.35        46.76842
989.73        42.85479
990.12        46.50454
990.50        55.57063
990.88        64.10142
991.27        67.38931
991.65        65.99236
992.03        61.32055
992.42        55.68891
992.80        53.15446
993.18        54.95441
993.56        58.84744
993.95        63.00157
994.33        66.03059
994.71         67.4797
995.10        68.21665
995.48        68.12585
995.86        66.69496
996.24         63.8824
996.63        59.41522
997.01        54.30006
997.39        51.94764
997.77        53.87337
998.15        59.44881
998.54        65.56362
998.92        67.92682
999.30          65.258
999.68        58.57847
1000.06        49.98425
1000.45         44.4836
1000.83         43.8577
1001.21        46.28852
1001.59        49.83427
1001.97        52.45518
1002.35        53.62567
1002.73        54.14675
1003.12        53.40075
1003.50        49.98036
1003.88        44.42915
1004.26        38.34967
1004.64        33.52327
1005.02        30.94916
1005.40        30.45864
1005.78        31.79948
1006.16        36.81622
1006.54        46.81896
1006.92        56.94234
1007.30        63.64645
1007.69        66.37894
1008.07        66.10619
1008.45        62.87161
1008.83        54.13948
1009.21        30.96535
1009.59       -29.93441
1009.97       -158.1972
1010.35       -281.7711
1010.73       -201.8927
1011.11       -91.29736
1011.49       -25.47794
1011.86        16.19186
1012.24        38.23455
1012.62        46.73716
1013.00        46.92463
1013.38        40.38335
1013.76        28.58746
1014.14        19.39083
1014.52        20.13703
1014.90        33.02225
1015.28        53.01374
1015.66        60.41301
1016.04        44.80957
1016.41        13.93612
1016.79        -12.3153
1017.17       -17.17342
1017.55       -7.128607
1017.93        6.014331
1018.31        17.04543
1018.69        23.98152
1019.06        27.62653
1019.44        28.70069
1019.82        27.61758
1020.20        24.78971
1020.58        19.22286
1020.95        7.436394
1021.33       -44.44549
1021.71        1148.605
1022.09        218.2455
1022.46        178.0721
1022.84        172.7536
1023.22        185.3928
1023.60        232.0153
1023.97        719.8677
1024.35       -110.3332
1024.73        -16.7757
