SpectraSmart Spectrum 2.9.0.0
--------- Device Information -----------
Spectrum Name :  反射率_0
Saving Time :  2024/04/26 02:05:13
Spectro-Module Model Name : SE2030-DUVN
Spectro-Module Serial Number : OS361AC55029948
Wavelength Start : 200
Wavelength End : 1025
Wavelength Unit : Wavelength(nm)
Spectrum Unit : Reflectance(%)
-----------Spectrum Setting ------------
Integration Time : 20ms
Average : 10
Boxcar : 0
Background removal :  enabled
linearity correction :  enabled
SC :  disabled
Intensity correction :  disabled
DWT denoise :  enabled
savitzky-golay :  disabled
FFT :  disabled
Running average :  disabled
Kalman :  disabled
High pass :  disabled
---------------BEGIN--------------------
Wavelength(nm)             Reflectance(%)
200.29               0
200.75        87.63757
201.21        79.75009
201.67        71.68164
202.13        67.30759
202.58        66.97546
203.04        69.88867
203.50        74.48324
203.96        77.88309
204.42        79.06206
204.88        78.80708
205.34        78.36012
205.80        79.26012
206.26        82.32701
206.72         89.0275
207.18        101.1467
207.64        108.6515
208.10        96.05698
208.55        78.13678
209.01         67.8817
209.47        64.59296
209.93        65.16806
210.39          68.548
210.85         72.6336
211.31        73.03419
211.77        68.57276
212.23        60.85696
212.69        53.83667
213.14        53.70655
213.60        61.24552
214.06        74.54265
214.52        88.87973
214.98        97.10142
215.44        97.43834
215.90        92.22855
216.36         84.8744
216.81        80.08348
217.27        79.23683
217.73        80.69585
218.19        82.12717
218.65        80.43487
219.11        74.44098
219.57        63.53323
220.02        49.24454
220.48         40.5483
220.94        42.58357
221.40        52.93002
221.86         62.8421
222.32         63.1494
222.77        54.95758
223.23        43.54839
223.69        33.85529
224.15        30.82637
224.61        33.92354
225.06        40.53893
225.52        47.44957
225.98        50.72873
226.44        49.59365
226.90          45.758
227.36         41.1315
227.81        38.21186
228.27        37.87472
228.73        39.01495
229.19        40.84593
229.65        42.27597
230.10          42.933
230.56        43.22263
231.02        43.33986
231.48        43.43087
231.93        43.52905
232.39        43.56296
232.85        43.46795
233.31         43.2273
233.77        42.83591
234.22        42.30168
234.68        41.77205
235.14        41.44342
235.60        41.43307
236.05        41.79661
236.51        42.35352
236.97        42.80196
237.43        43.15555
237.88        43.55021
238.34        44.45844
238.80        46.96254
239.26         51.2983
239.71         57.1285
240.17        62.98909
240.63        66.97787
241.08        68.60812
241.54        68.16306
242.00        66.96138
242.46        67.06131
242.91        69.88821
243.37        77.63672
243.83        101.1064
244.28        170.3022
244.74        234.9314
245.20        182.9859
245.66        143.3361
246.11        132.6158
246.57        137.9991
247.03        165.2046
247.48        249.1778
247.94        211.6252
248.40        122.8182
248.85        95.02797
249.31        87.04476
249.77        87.01882
250.22        91.82168
250.68        101.8047
251.14        116.6659
251.59         126.857
252.05        122.7094
252.51        108.3827
252.96        93.28355
253.42        86.52283
253.88        87.41434
254.33        92.37666
254.79         99.0393
255.25        103.6272
255.70        105.0283
256.16         105.138
256.62        103.8773
257.07        100.9107
257.53        97.05067
257.99        92.11117
258.44        87.08469
258.90        84.25613
259.35        82.75403
259.81        82.03068
260.27         80.5976
260.72        76.97587
261.18        71.91494
261.63        65.96784
262.09        60.55633
262.55        56.61517
263.00        54.10331
263.46        52.66786
263.91        51.50732
264.37         50.0795
264.83         48.1573
265.28        45.82745
265.74          43.585
266.19        41.92659
266.65        41.08711
267.11        40.77172
267.56        40.49279
268.02        39.66674
268.47        38.16217
268.93        36.17544
269.38         34.0672
269.84        32.70066
270.30        32.29658
270.75        32.60374
271.21        33.10819
271.66        33.03704
272.12        32.20184
272.57          30.855
273.03        29.42593
273.48        28.47258
273.94         28.1546
274.39        28.23565
274.85        28.42374
275.31        28.28916
275.76        27.73017
276.22        26.93024
276.67        26.09602
277.13        25.61048
277.58        25.48057
278.04        25.57862
278.49        25.65235
278.95         25.4184
279.40        24.80602
279.86        23.99614
280.31        23.11804
280.77        22.46813
281.22        22.08223
281.68        21.89481
282.13        21.83008
282.59        21.81433
283.04        21.80593
283.50        21.85771
283.95        21.91601
284.41        21.91283
284.86        21.82967
285.32        21.68137
285.77         21.5559
286.22        21.65442
286.68        21.97644
287.13        22.43238
287.59        22.83896
288.04        22.91607
288.50        22.64636
288.95        22.11707
289.41        21.53917
289.86        21.12259
290.32        20.98139
290.77        21.03826
291.22        21.25251
291.68        21.52006
292.13        21.81979
292.59        22.20019
293.04        22.70011
293.50          23.373
293.95        24.21124
294.40        25.15895
294.86        26.16226
295.31        27.15842
295.77        28.13583
296.22        29.11685
296.68        30.10723
297.13        31.08226
297.58        32.05971
298.04        33.06085
298.49        34.14399
298.95        35.45068
299.40        36.99279
299.85        38.72561
300.31        40.54399
300.76        42.27333
301.21        43.83592
301.67        45.30156
302.12        46.66031
302.58        48.00221
303.03        49.33189
303.48        50.64394
303.94        52.04168
304.39        53.62495
304.84        55.41066
305.30         57.3674
305.75        59.28506
306.20         60.8613
306.66        62.06734
307.11        62.95656
307.57        63.79102
308.02        64.85162
308.47        66.25043
308.93        67.89116
309.38        69.59436
309.83        71.12667
310.29        72.40354
310.74        73.46525
311.19        74.40163
311.65        75.35012
312.10        76.34138
312.55         77.3436
313.00        78.25842
313.46        78.93997
313.91        79.34677
314.36        79.54835
314.82        79.72718
315.27        80.10822
315.72        80.77516
316.18        81.66526
316.63        82.62129
317.08        83.34057
317.53        83.73869
317.99        83.88569
318.44        83.98679
318.89        84.38216
319.35        85.12224
319.80        86.12381
320.25        87.09686
320.70         87.5641
321.16        87.42271
321.61        86.83498
322.06        86.12746
322.51        85.81128
322.97        85.99513
323.42        86.56536
323.87        87.27715
324.32          87.707
324.78        87.72301
325.23          87.503
325.68        87.20641
326.13         87.1148
326.59         87.2915
327.04        87.65902
327.49        88.13562
327.94        88.62556
328.39        89.07536
328.85        89.50124
329.30         89.9052
329.75        90.12679
330.20        90.16775
330.66        90.06087
331.11        90.01099
331.56        90.27662
332.01        90.93634
332.46        91.90591
332.92        93.03253
333.37        94.20454
333.82        95.24087
334.27        96.16065
334.72        96.86147
335.17        97.20081
335.63        97.17717
336.08        96.87891
336.53        96.49552
336.98        96.38284
337.43        96.64833
337.88        97.21563
338.34        97.97732
338.79        98.82693
339.24        99.65791
339.69         100.521
340.14        101.3108
340.59        101.8417
341.05          102.08
341.50        102.0335
341.95        101.9066
342.40        102.0454
342.85        102.5242
343.30         103.262
343.75        104.0332
344.20        104.4337
344.66        104.3799
345.11        103.9938
345.56        103.5196
346.01        103.3193
346.46         103.482
346.91        103.8877
347.36        104.3756
347.81        104.7002
348.26        104.7982
348.72        104.7744
349.17        104.6934
349.62        104.7065
350.07        104.8524
350.52        105.0595
350.97        105.2852
351.42        105.4805
351.87        105.6161
352.32        105.7054
352.77        105.7177
353.22        105.6015
353.67         105.356
354.13        105.0146
354.58        104.6035
355.03        104.2259
355.48        103.9107
355.93        103.6397
356.38        103.3862
356.83        103.1014
357.28         102.766
357.73        102.3905
358.18        101.9818
358.63        101.5492
359.08        101.0964
359.53        100.6213
359.98        100.1073
360.43        99.53319
360.88        98.89365
361.33        98.18932
361.78        97.47066
362.23        96.81741
362.68        96.25682
363.13        95.79327
363.58          95.339
364.03        94.74963
364.48        94.00031
364.93        93.11877
365.38        92.26575
365.83        91.70315
366.28        91.46518
366.73         91.4573
367.18        91.43536
367.63        91.00663
368.08        90.10191
368.53        88.87965
368.98        87.58751
369.43        86.59402
369.88        85.99638
370.33        85.67831
370.78        85.52649
371.23          85.354
371.68        85.08317
372.13        84.76974
372.58        84.41859
373.03        84.03457
373.48        83.63409
373.93        83.20644
374.38        82.77464
374.83        82.38145
375.28        82.03593
375.72        81.72392
376.17        81.45346
376.62         81.2063
377.07        80.96445
377.52        80.70612
377.97         80.4231
378.42        80.10596
378.87        79.75425
379.32        79.39166
379.77        78.96911
380.22        78.40767
380.67        77.70458
381.11        76.88148
381.56        76.08348
382.01        75.55712
382.46        75.36272
382.91        75.45081
383.36        75.60126
383.81        75.45721
384.26        74.94743
384.71        74.17268
385.15        73.38196
385.60        73.01452
386.05        73.09813
386.50        73.48431
386.95        73.87524
387.40         73.7792
387.85        73.12836
388.29        72.12068
388.74        71.14738
389.19        70.46897
389.64        70.13536
390.09        70.00988
390.54        70.04866
390.98        70.18015
391.43        70.33815
391.88        70.52312
392.33        70.60712
392.78        70.32926
393.23        69.69706
393.67        68.96835
394.12        68.37885
394.57        67.64794
395.02         67.0233
395.47        67.35275
395.91        68.45779
396.36        69.05774
396.81        68.97854
397.26        68.82465
397.71        68.68672
398.15        68.35674
398.60        67.95783
399.05        67.66321
399.50        67.41006
399.95        66.69333
400.39        65.94893
400.84        65.49399
401.29        65.45904
401.74        65.61591
402.18        65.86076
402.63        65.92413
403.08         65.8653
403.53        66.05348
403.97        66.47168
404.42        66.82627
404.87        66.96397
405.32         66.7541
405.76         66.1787
406.21         65.4401
406.66        64.73336
407.11         64.2196
407.55        64.07304
408.00          64.464
408.45        65.11612
408.90        65.89799
409.34        66.37366
409.79        65.81098
410.24        64.57343
410.68        63.98358
411.13        64.17471
411.58        64.41808
412.03        64.62764
412.47        64.98329
412.92        65.37748
413.37         65.7844
413.81        66.09039
414.26        66.16046
414.71        65.96183
415.15        65.52889
415.60        65.01118
416.05        64.67382
416.49        64.59573
416.94        64.73356
417.39        64.93098
417.83        64.89604
418.28        64.58475
418.73        64.10809
419.17         63.6803
419.62        63.64309
420.07        64.01804
420.51        64.67043
420.96         65.3765
421.41        65.69283
421.85        65.48594
422.30        65.19681
422.74        64.87758
423.19        64.24541
423.64        63.55657
424.08        63.85593
424.53        64.97209
424.98        65.63004
425.42        65.67393
425.87        65.90951
426.31        66.35036
426.76         66.3942
427.21        66.21175
427.65        66.51925
428.10         67.2178
428.54        67.83288
428.99         68.3303
429.44        68.41984
429.88        68.21793
430.33        69.03439
430.77        70.15736
431.22         69.1484
431.66        66.59167
432.11        65.12299
432.56        65.09898
433.00        66.27462
433.45        68.40288
433.89        69.96825
434.34        69.61913
434.78        71.63343
435.23        68.23938
435.67        66.11083
436.12        68.85189
436.57        69.75964
437.01        70.16599
437.46        70.39428
437.90         70.6674
438.35        70.50174
438.79        71.03968
439.24        71.06384
439.68        70.93501
440.13        70.62141
440.57        70.45969
441.02        71.21455
441.46        72.55072
441.91         73.5806
442.35        73.90685
442.80        72.94437
443.24         71.2797
443.69        71.84383
444.13        74.20112
444.58        74.35872
445.02        72.51068
445.47        72.19733
445.91        73.38926
446.36        73.77222
446.80        73.26618
447.24        73.23753
447.69        73.72578
448.13         73.5212
448.58        73.65063
449.02        73.99075
449.47         74.7104
449.91          75.153
450.36        75.27021
450.80          75.372
451.25        75.45925
451.69        75.38497
452.13        75.18586
452.58         74.9173
453.02        74.67739
453.47        74.66064
453.91        74.86949
454.36         75.2475
454.80        75.68246
455.24         75.7792
455.69        75.46653
456.13        75.21762
456.58        75.18779
457.02        74.13075
457.46        73.78733
457.91        74.04865
458.35        75.05039
458.79        75.44792
459.24        75.18902
459.68        74.84011
460.13        74.48438
460.57        74.22992
461.01        74.22536
461.46        73.45314
461.90        73.28692
462.34         73.7548
462.79        72.91507
463.23         73.1843
463.68        73.76051
464.12        74.19394
464.56        74.37171
465.01        74.56135
465.45        74.57482
465.89         74.5784
466.34        74.08311
466.78         72.8306
467.22        71.36254
467.67        70.62122
468.11        72.10807
468.55        72.94918
468.99        73.18682
469.44        72.96284
469.88        72.46287
470.32        72.41348
470.77        72.78277
471.21        72.79649
471.65        72.43021
472.10        72.31718
472.54        72.45033
472.98        72.48152
473.42        72.41093
473.87        72.45285
474.31        72.48296
474.75        72.24265
475.20        71.97453
475.64        71.35501
476.08        72.32988
476.52        72.39135
476.97        72.03681
477.41        72.08578
477.85        72.62838
478.29        71.86906
478.74        72.01528
479.18        72.45354
479.62        71.25305
480.06        71.98051
480.50        72.35175
480.95        72.77845
481.39        72.73794
481.83         72.0654
482.27        72.33983
482.72        71.62692
483.16         70.6245
483.60        70.70387
484.04        72.28156
484.48        72.63509
484.93        72.35744
485.37        74.15063
485.81        74.27252
486.25        73.57521
486.69        98.63201
487.14        80.14989
487.58        49.97309
488.02        61.65976
488.46         70.0166
488.90        69.72124
489.34        71.22726
489.79        70.47934
490.23        72.51909
490.67        73.36532
491.11        72.33278
491.55          72.342
491.99        72.94096
492.43        72.81637
492.88        72.05756
493.32        72.00496
493.76        72.15226
494.20        72.36778
494.64        72.39671
495.08        72.50951
495.52        72.73473
495.96        72.60739
496.41        72.17992
496.85        72.71922
497.29        73.85189
497.73        72.71063
498.17        70.33829
498.61          70.408
499.05        72.98727
499.49        73.57774
499.93        73.71162
500.37        73.68269
500.82        73.33053
501.26         73.2267
501.70        73.47761
502.14        73.71213
502.58        73.83293
503.02        73.74438
503.46        73.43556
503.90        72.95404
504.34        72.47521
504.78        72.25752
505.22        72.35561
505.66         72.7095
506.10        73.15341
506.54        73.37247
506.98        73.27959
507.42        73.07964
507.86        72.71963
508.30        72.59343
508.74        72.69692
509.18        72.95384
509.62        73.25076
510.06        73.41516
510.50        73.40148
510.94        73.27335
511.38        73.11253
511.82        73.03947
512.26        73.09254
512.70        73.21986
513.14        73.34901
513.58        73.48453
514.02        73.61761
514.46        73.54301
514.90        73.23751
515.34        73.76164
515.78        73.34102
516.22        73.45007
516.66        73.52784
517.10        73.41555
517.54        73.09711
517.98        73.16778
518.42        72.93915
518.86        73.04546
519.30         73.2644
519.74        73.61749
520.18        73.99437
520.62        74.21094
521.06        74.23027
521.50        74.10609
521.93        73.90124
522.37        73.71998
522.81         73.6114
523.25         73.5485
523.69          73.547
524.13        73.63072
524.57        73.79178
525.01        74.02341
525.45        74.26901
525.89        74.43167
526.32        74.47568
526.76        74.41874
527.20        74.29819
527.64        74.19903
528.08        74.16357
528.52        74.11137
528.96        73.99256
529.40        73.93749
529.83        73.98021
530.27        73.33939
530.71        73.51587
531.15         73.4208
531.59        73.50084
532.03        73.68079
532.46        73.94187
532.90        74.21761
533.34        74.45659
533.78        74.66912
534.22        74.80544
534.66         74.8022
535.09        74.64669
535.53        74.38828
535.97        74.08453
536.41        73.85181
536.85        73.73109
537.28        73.70416
537.72        73.73635
538.16        73.77905
538.60        73.81276
539.04        73.79153
539.47        73.73194
539.91        73.85789
540.35         74.0881
540.79        74.09512
541.22        73.89203
541.66        73.80399
542.10        73.83531
542.54        73.79715
542.97        73.70673
543.41        73.70525
543.85        73.79174
544.29        73.95511
544.72        74.09531
545.16        74.08835
545.60         73.9061
546.04        73.57594
546.47        73.26917
546.91        73.28967
547.35        73.66473
547.79        74.28761
548.22        74.87504
548.66        75.02666
549.10        74.65211
549.53        73.83604
549.97        72.93683
550.41        72.49766
550.84        72.63608
551.28        73.16311
551.72        73.85246
552.15        74.29504
552.59         74.3521
553.03        74.30592
553.46        74.04862
553.90        73.86162
554.34        73.71716
554.77         73.9321
555.21        73.63816
555.65        73.77419
556.08        74.17265
556.52        73.57797
556.96        73.78141
557.39        73.63573
557.83         73.7046
558.27        73.80357
558.70        73.91634
559.14        74.05746
559.57        74.19217
560.01        74.28987
560.45        74.35799
560.88        74.53275
561.32        74.72878
561.75         74.5893
562.19        74.19795
562.63        73.69382
563.06        73.26845
563.50        73.32436
563.93        73.76025
564.37        74.10991
564.80        74.24809
565.24        74.14799
565.68        73.88745
566.11        73.74415
566.55        73.82928
566.98        73.83045
567.42        73.78436
567.85        73.97404
568.29        74.37103
568.72        74.41287
569.16        74.31011
569.60        74.67484
570.03        75.14817
570.47        75.10812
570.90        74.87637
571.34        72.83306
571.77        73.85643
572.21        73.76883
572.64        73.53013
573.08        72.39263
573.51        69.38216
573.95        72.01454
574.38        76.48922
574.82        74.27258
575.25        74.06415
575.69        71.52408
576.12        70.49638
576.56        69.67704
576.99        71.19847
577.42        74.80243
577.86        74.58598
578.29        73.93312
578.73        77.43451
579.16        71.23327
579.60        65.44482
580.03        68.45299
580.47        72.70333
580.90        74.43961
581.33        73.02817
581.77        72.18839
582.20        79.09225
582.64        78.52904
583.07        67.27589
583.51        66.11557
583.94        65.12054
584.37        68.17133
584.81        71.67895
585.24        75.41425
585.68        77.07581
586.11         75.5944
586.54        70.37941
586.98        68.19982
587.41        69.09367
587.85        72.44359
588.28         75.2122
588.71        71.46172
589.15        69.31126
589.58        70.94105
590.01        71.24328
590.45        72.57781
590.88        73.03217
591.31         72.2872
591.75        71.91469
592.18        71.90794
592.61        73.26208
593.05        74.04393
593.48         77.2683
593.91        77.86005
594.35        71.81869
594.78        69.89635
595.21        69.72363
595.65        72.84854
596.08        75.85226
596.51        72.47926
596.94        71.28112
597.38        71.63594
597.81        74.42415
598.24        76.70551
598.68        74.47241
599.11        73.51114
599.54        76.23325
599.97        77.48042
600.41        72.38304
600.84        72.49933
601.27        73.92657
601.70        73.16522
602.14        73.18494
602.57        72.12057
603.00          72.487
603.43        74.04821
603.87         75.6207
604.30        75.28235
604.73         73.2569
605.16        72.01247
605.60        72.62251
606.03        73.83561
606.46        75.22655
606.89        74.68356
607.32        72.43501
607.76        72.49648
608.19        74.72519
608.62        73.82315
609.05        72.59361
609.48          73.101
609.92        72.90634
610.35        72.65829
610.78        74.97086
611.21        75.70827
611.64        72.33482
612.07         73.0245
612.50        73.38321
612.94        73.79984
613.37        73.18626
613.80        73.39851
614.23         73.8988
614.66        73.87717
615.09        74.22165
615.52         74.2674
615.96        74.11068
616.39        74.26939
616.82        73.54289
617.25        72.85522
617.68        73.60385
618.11         74.6581
618.54        74.60574
618.97        74.19304
619.40        73.28963
619.84        73.31332
620.27         74.1745
620.70        74.75716
621.13        74.90194
621.56         74.3133
621.99        73.47756
622.42        74.30382
622.85        76.26192
623.28        76.04108
623.71        75.21828
624.14        75.10877
624.57        74.84119
625.00        74.56598
625.43        74.80178
625.86        74.27606
626.29        74.63753
626.72        75.02795
627.15        74.78555
627.58        74.90923
628.01        75.00569
628.44        75.11798
628.87         75.3557
629.30        74.94248
629.73        75.36089
630.16        75.94509
630.59        75.33987
631.02        75.04462
631.45        74.66511
631.88        74.44707
632.31        74.41093
632.74        74.49345
633.17        74.63276
633.60        74.71059
634.03        74.69395
634.46        74.61662
634.89        74.52299
635.32        74.48747
635.75        74.52944
636.18        74.61228
636.61        74.71275
637.04        74.80299
637.47        74.86648
637.89        74.92164
638.32        74.92975
638.75        74.87893
639.18        74.77058
639.61         74.6176
640.04         74.4431
640.47        74.28367
640.90        74.15908
641.33        74.06236
641.76        73.97997
642.18        73.99187
642.61        74.09532
643.04         74.1022
643.47        73.95639
643.90        74.52914
644.33        74.27465
644.76        74.43622
645.18        74.53837
645.61        74.57741
646.04         74.5306
646.47        74.38646
646.90        74.24823
647.33        74.22939
647.75        74.37381
648.18        74.70063
648.61         74.9815
649.04        74.86896
649.47        74.33663
649.89        73.34481
650.32        72.37833
650.75         72.4144
651.18        73.39563
651.61        74.36077
652.03         74.8625
652.46         74.9631
652.89        74.96707
653.32        74.13389
653.74        72.95683
654.17        74.47756
654.60         75.6236
655.03        72.97472
655.46          73.945
655.88        78.04207
656.31        82.86395
656.74        182.5956
657.16        118.8821
657.59        42.07162
658.02        32.13671
658.45        55.73858
658.87        71.54145
659.30        74.96678
659.73        73.86693
660.15         71.5913
660.58        74.07898
661.01        75.87242
661.44        73.31901
661.86        72.69839
662.29        73.09077
662.72        74.02195
663.14         75.2131
663.57        75.08257
664.00        73.93552
664.42         73.6853
664.85         74.4182
665.27        74.86044
665.70        74.80882
666.13        74.67371
666.55         74.4368
666.98         73.9777
667.41        73.45925
667.83        73.20837
668.26        73.29684
668.69        73.58884
669.11         73.8923
669.54        74.26384
669.96        73.94756
670.39        73.59361
670.82        73.16786
671.24        72.98156
671.67        73.13131
672.09        73.48757
672.52        73.81071
672.94        74.28406
673.37        73.63333
673.80        73.47234
674.22        73.49459
674.65        73.50521
675.07         73.4874
675.50        73.42469
675.92        73.34949
676.35         73.3668
676.77        73.48375
677.20        73.58278
677.62        73.66504
678.05        73.74238
678.47        73.79902
678.90        73.84966
679.32        73.88595
679.75        73.75632
680.17        73.75508
680.60        73.66221
681.02        73.56102
681.45        73.42068
681.87        73.25918
682.30        73.08489
682.72         72.9652
683.15        73.00523
683.57         73.2347
684.00          73.565
684.42         74.0034
684.85        74.17468
685.27        74.08271
685.70        73.80887
686.12        73.43309
686.54        73.23444
686.97        73.36194
687.39        73.10802
687.82        73.92677
688.24        74.08884
688.66        73.96825
689.09        73.67915
689.51        73.38758
689.94        73.28537
690.36         73.4193
690.78        73.70847
691.21        74.02592
691.63        74.19847
692.06        74.18338
692.48        74.04939
692.90        73.89767
693.33        73.86724
693.75        73.99011
694.17        74.22252
694.60        74.50427
695.02        74.68483
695.44        74.69514
695.87        74.84745
696.29         75.1072
696.71        74.71141
697.14        73.93478
697.56          74.281
697.98        75.44943
698.41        75.45606
698.83        74.42785
699.25        73.93818
699.68        74.09293
700.10        74.09467
700.52        73.94829
700.94        74.08746
701.37        74.44065
701.79        74.76135
702.21        74.96323
702.64        75.11445
703.06        75.17761
703.48         75.0882
703.90        74.86541
704.33        74.53387
704.75        74.17611
705.17        74.01707
705.59        74.10851
706.01        74.26886
706.44        74.40933
706.86         74.9782
707.28         74.9216
707.70        75.18163
708.12        75.40925
708.55        75.16246
708.97        74.68174
709.39         74.5938
709.81        74.92433
710.23        75.00933
710.66        74.82529
711.08        74.81388
711.50        74.93628
711.92        74.95089
712.34        74.84332
712.76        74.66302
713.19        74.50845
713.61        74.56882
714.03        74.85689
714.45        75.30995
714.87        75.73353
715.29        75.82554
715.71        75.53151
716.13        74.94891
716.56        74.30356
716.98        73.99514
717.40        74.11601
717.82        74.55052
718.24        75.09866
718.66        75.41642
719.08         75.4031
719.50        75.16539
719.92        74.83046
720.34        74.61913
720.76        74.60062
721.19        74.57986
721.61        74.74162
722.03        74.86675
722.45        74.98846
722.87        75.12119
723.29        75.25977
723.71        75.38005
724.13        75.47102
724.55        75.52951
724.97        75.54651
725.39        75.51907
725.81        75.45363
726.23        75.35762
726.65        75.26481
727.07        75.22342
727.49        75.24952
727.91         75.3421
728.33        75.46647
728.75         75.5609
729.17        75.60234
729.59        75.59272
730.01        75.58582
730.43        75.65988
730.85        75.83267
731.27        76.11002
731.69        76.37638
732.10        76.42432
732.52        76.21706
732.94        75.86002
733.36        75.56139
733.78        75.51029
734.20        75.75179
734.62        76.54403
735.04        77.57497
735.46        77.56213
735.88        76.74007
736.30         76.8883
736.72        77.99527
737.13        78.40995
737.55        77.91941
737.97        77.88941
738.39        78.31519
738.81        77.74776
739.23        76.57979
739.65        77.26183
740.06        79.33914
740.48         79.4722
740.90        77.80053
741.32        77.14942
741.74        77.74821
742.16        78.10639
742.57         78.2451
742.99         78.9999
743.41        80.13676
743.83        80.80054
744.25        80.84834
744.67        80.49273
745.08        80.00728
745.50        79.83995
745.92        80.12305
746.34        80.69918
746.75         81.3449
747.17        81.68623
747.59        81.65171
748.01        81.36835
748.42         81.0584
748.84        81.08179
749.26        81.53253
749.68        82.17737
750.09        82.84509
750.51         83.4711
750.93         83.8779
751.35        83.62084
751.76         82.8999
752.18        82.63474
752.60        82.83525
753.01        82.76807
753.43        82.49252
753.85        82.65685
754.27        83.29668
754.68        84.13147
755.10        84.95798
755.52        85.61048
755.93        85.97519
756.35        86.03866
756.77        85.95155
757.18        85.79372
757.60        85.61687
758.02        85.87493
758.43        86.27614
758.85        85.40646
759.26        83.85151
759.68        83.85655
760.10        85.30231
760.51         86.6014
760.93        85.63857
761.34        84.53467
761.76        84.23976
762.18        83.67255
762.59        83.41706
763.01        83.69775
763.42        84.72091
763.84        85.43803
764.26        85.78477
764.67        86.06767
765.09        86.18184
765.50        85.97066
765.92        85.43394
766.33        84.13638
766.75        82.54919
767.16        82.35648
767.58        82.89806
768.00        84.52188
768.41        86.57478
768.83        88.23293
769.24        88.82305
769.66        87.91454
770.07        86.14307
770.49        84.46162
770.90         83.3251
771.32        84.14697
771.73        86.22572
772.15         85.5909
772.56        82.75462
772.97        82.23705
773.39        83.94428
773.80        84.61569
774.22         83.9883
774.63        83.95644
775.05        84.46105
775.46        84.68002
775.88        84.51759
776.29        84.16257
776.70        83.77485
777.12        83.68941
777.53        83.98135
777.95        84.47746
778.36        84.95927
778.77        85.05096
779.19        84.71762
779.60        84.09253
780.02        83.42918
780.43        83.24372
780.84        83.70814
781.26        84.07816
781.67        84.33378
782.09        85.74165
782.50        87.59243
782.91        86.52399
783.33         83.6187
783.74        82.67177
784.15        83.95518
784.57        84.98139
784.98        85.30097
785.39        85.26571
785.81        84.85276
786.22        84.22552
786.63        83.72745
787.04        83.62973
787.46        84.01052
787.87        84.91148
788.28        85.98595
788.70        86.51138
789.11        86.33677
789.52        85.71395
789.93        84.96316
790.35        84.52248
790.76        84.51373
791.17         84.8408
791.58        85.32391
792.00        85.58825
792.41         85.5182
792.82         85.3268
793.23        85.19981
793.65        84.83143
794.06        84.49214
794.47        85.53974
794.88        87.22002
795.29         86.7209
795.71        84.30073
796.12        82.25873
796.53        81.22828
796.94        80.94191
797.35        81.49054
797.76        82.86014
798.18          84.428
798.59        85.40205
799.00        85.41578
799.41        84.49148
799.82         83.1273
800.23        82.31522
800.64        82.28542
801.06        82.65148
801.47        83.28239
801.88        83.84481
802.29        84.19232
802.70        84.47233
803.11        84.64585
803.52        84.61414
803.93        84.39021
804.34        83.94463
804.75        83.48338
805.17        83.41497
805.58        83.85237
805.99        84.51344
806.40        85.09087
806.81        85.49202
807.22        85.38274
807.63        83.95226
808.04        81.83866
808.45         80.8661
808.86        81.26157
809.27        82.21539
809.68        83.26916
810.09        83.86891
810.50        83.76393
810.91        83.15582
811.32        82.36079
811.73        81.88432
812.14        81.87334
812.55        82.11549
812.96        82.54235
813.37        83.03334
813.78        83.48723
814.19         83.9902
814.60         84.3045
815.01        84.04849
815.42        83.20128
815.83        81.84016
816.24        80.46438
816.65        79.96131
817.05        80.59508
817.46        82.08768
817.87        83.82208
818.28        84.67633
818.69        84.32979
819.10        83.05139
819.51        81.49837
819.92        80.79141
820.33        81.22524
820.74        82.45905
821.14        83.85616
821.55        84.28804
821.96        83.53274
822.37         82.0015
822.78         80.3295
823.19        79.44422
823.60        79.58123
824.00         80.4957
824.41        81.71103
824.82        82.51688
825.23        82.61684
825.64        82.26454
826.04        81.68694
826.45        81.21306
826.86        80.95321
827.27        80.75543
827.68        80.63712
828.08        80.69031
828.49        80.84788
828.90        81.18766
829.31        81.53335
829.72        81.53246
830.12        81.14061
830.53        80.43738
830.94        79.76377
831.35        79.59634
831.75        80.06854
832.16        80.99004
832.57        82.09349
832.97         82.8194
833.38        82.90559
833.79        82.51292
834.20        81.94865
834.60        81.67665
835.01        81.83887
835.42        82.28742
835.82        82.75829
836.23        82.73059
836.64        82.13393
837.04        81.16783
837.45        80.19647
837.86        79.78609
838.26         80.0774
838.67        80.85686
839.08        81.81823
839.48        82.40632
839.89        82.40467
840.29        82.00425
840.70        81.40427
841.11        80.88631
841.51        80.55759
841.92         80.3019
842.33        80.13316
842.73        80.09885
843.14           80.15
843.54        80.33242
843.95        80.50697
844.35        80.49281
844.76        80.24273
845.17        79.83144
845.57        79.37946
845.98         79.0902
846.38        79.01839
846.79        79.07426
847.19        79.25244
847.60        79.44127
848.00        79.62725
848.41        79.80865
848.81        79.95665
849.22        79.95312
849.62        79.84205
850.03        79.65114
850.43        79.51499
850.84         79.5886
851.24        79.96126
851.65        80.39462
852.05        80.96725
852.46        81.61503
852.86        82.28167
853.27        83.01659
853.67        83.32561
854.07        82.57829
854.48        80.83504
854.88        78.32422
855.29        75.94022
855.69        74.98013
856.10        75.68781
856.50        77.90844
856.90        80.81226
857.31          82.475
857.71        82.28658
858.12        80.73722
858.52        78.74519
858.92        77.52563
859.33        77.34243
859.73        77.87004
860.13        78.83575
860.54        79.67477
860.94        80.21093
861.34        80.58388
861.75         80.8628
862.15        81.23569
862.55        81.71003
862.96        82.17345
863.36        82.56336
863.76        82.76139
864.17        82.74961
864.57        82.64231
864.97         82.5575
865.38        82.65704
865.78        83.01675
866.18        83.49519
866.58        84.03628
866.99        84.52614
867.39        84.97267
867.79        85.45464
868.19        85.74291
868.60         85.4117
869.00        84.44137
869.40        82.95331
869.80        81.71799
870.21        81.93234
870.61        83.89413
871.01        87.22584
871.41        90.85152
871.81        92.92239
872.22        92.92785
872.62        91.40771
873.02        89.37377
873.42        88.51617
873.82        89.13854
874.22        90.58094
874.63        92.31484
875.03        93.21001
875.43         92.7296
875.83        91.83134
876.23        90.31986
876.63        90.02695
877.03        91.18826
877.44        94.09125
877.84        100.3529
878.24        101.6513
878.64        100.8374
879.04        98.43526
879.44        95.15384
879.84        93.32748
880.24        95.33284
880.64        97.07745
881.04        98.82032
881.44         99.8914
881.84        99.40266
882.24        97.83421
882.65        96.21465
883.05        95.69637
883.45        96.48266
883.85        98.31224
884.25        100.4836
884.65        101.6536
885.05        101.3951
885.45        100.2167
885.85        98.78637
886.25        97.99012
886.65        98.04647
887.05        98.64745
887.45        99.56996
887.85        100.4238
888.25        101.0088
888.65        101.4697
889.04         101.738
889.44        101.7417
889.84        101.4839
890.24        100.9387
890.64        100.3324
891.04        100.0471
891.44        100.1415
891.84        100.5365
892.24        100.9531
892.64        100.8648
893.04         100.219
893.44        99.30829
893.83        98.45245
894.23        98.11246
894.63         98.3648
895.03        98.98302
895.43         99.9798
895.83         101.351
896.23        102.9434
896.63         104.734
897.02        106.1163
897.42        106.1174
897.82        104.6623
898.22        102.1235
898.62         99.4841
899.01        98.20235
899.41        98.58752
899.81        100.1184
900.21        102.1128
900.61         103.436
901.00        103.7249
901.40        103.3832
901.80        102.6306
902.20        101.7983
902.59        101.0654
902.99        100.2827
903.39        99.66178
903.79        99.59644
904.18        100.1468
904.58         101.267
904.98        102.5746
905.38        103.4435
905.77        103.6881
906.17        103.4411
906.57        102.9898
906.96        102.8454
907.36         103.051
907.76        103.4526
908.15        103.7438
908.55        103.3199
908.95        102.1359
909.34        100.4118
909.74        98.65834
910.14        97.46231
910.53        97.03765
910.93        97.27872
911.33        97.99899
911.72        98.84805
912.12        99.55908
912.52         100.119
912.91        100.6269
913.31        101.2807
913.70        102.1722
914.10        103.2462
914.49        104.1371
914.89        103.8689
915.29        102.2858
915.68        99.80643
916.08        97.59582
916.47        96.67893
916.87        97.15559
917.26         98.6978
917.66        100.4942
918.05        101.2302
918.45        100.5549
918.84        98.92533
919.24         97.1753
919.64        96.51246
920.03        97.25843
920.42        99.02574
920.82        101.1712
921.21        102.7306
921.61        103.1896
922.00        102.8786
922.40        102.1128
922.79        101.2949
923.19        100.5982
923.58        99.91604
923.98        99.17343
924.37        98.25495
924.77        97.38129
925.16         96.0295
925.55        95.79418
925.95        96.14253
926.34        97.53572
926.74        99.49452
927.13        101.4673
927.52        102.3145
927.92         101.885
928.31        100.5574
928.70        98.70079
929.10        96.96253
929.49        95.57294
929.89        94.38573
930.28        93.78429
930.67        94.41423
931.07        96.16856
931.46         98.8895
931.85        101.5448
932.24        102.5745
932.64        101.6742
933.03        99.16556
933.42        95.78032
933.82        93.24216
934.21        92.16595
934.60        92.15115
934.99        92.68687
935.39        93.18591
935.78        93.53618
936.17         93.8486
936.56        93.93861
936.96        94.46454
937.35        93.59622
937.74        92.83309
938.13        92.23936
938.53        92.48118
938.92        93.57023
939.31        95.45702
939.70        97.54946
940.09        98.23242
940.49        97.01672
940.88        94.61897
941.27         92.1755
941.66        91.01344
942.05        91.30141
942.44        92.56992
942.84         94.3676
943.23        96.00057
943.62        97.02254
944.01        97.58492
944.40        97.66507
944.79        97.22166
945.18        96.26203
945.57        94.69775
945.97        92.62155
946.36        90.61714
946.75        89.21557
947.14        88.48519
947.53        88.37537
947.92        88.70937
948.31        89.39188
948.70        90.50088
949.09        91.82796
949.48        92.80762
949.87        93.13026
950.26        92.78004
950.65        92.13772
951.04        91.88342
951.43        92.16243
951.82        92.80921
952.21        93.32533
952.60        92.90453
952.99        91.44556
953.38        89.30341
953.77        87.20229
954.16        86.15976
954.55        86.38007
954.94        87.59174
955.33        89.12524
955.72        89.85781
956.11        89.47723
956.50        88.25706
956.89        86.89272
957.28        86.66566
957.66        88.01019
958.05        90.29063
958.44        92.67949
958.83        93.96267
959.22        93.83434
959.61        92.62001
960.00        90.93479
960.39         89.7634
960.78        89.41043
961.16        89.66096
961.55        89.95062
961.94         89.3556
962.33        87.73474
962.72        85.52783
963.11        83.51481
963.49        82.67551
963.88        83.16945
964.27        84.78739
964.66        86.87215
965.04        88.00998
965.43        87.57838
965.82        86.07156
966.21        84.43976
966.60        83.94297
966.98        84.79607
967.37        86.54846
967.76        88.48882
968.15        89.26024
968.53        88.46889
968.92        86.63345
969.31        84.51608
969.69        83.07194
970.08        82.54147
970.47        82.65253
970.86        83.07714
971.24        83.26492
971.63        83.01001
972.02        82.48798
972.40         82.0419
972.79        82.20079
973.17         83.2229
973.56        84.81493
973.95         86.4907
974.33        87.32224
974.72        86.96184
975.11        85.69212
975.49        84.27808
975.88        83.83821
976.26          84.544
976.65        86.19855
977.04        88.00056
977.42        88.00328
977.81        85.59808
978.19        81.62614
978.58        78.10536
978.96        77.06097
979.35        78.76073
979.74        82.76878
980.12        88.10796
980.51        91.35069
980.89        91.42327
981.28        89.26418
981.66        86.32844
982.05        84.47899
982.43        84.05198
982.82        84.39648
983.20        85.33067
983.59        86.74057
983.97        88.58407
984.35        91.03607
984.74         93.4733
985.12        94.74612
985.51        94.05292
985.89        91.59113
986.28        88.09969
986.66        84.85666
987.04        82.69652
987.43        81.53034
987.81        81.08298
988.20         80.9614
988.58        81.00957
988.96         81.3024
989.35        82.23748
989.73        84.66682
990.12        87.91758
990.50        91.04838
990.88        92.47386
991.27         91.4813
991.65        88.52292
992.03        83.91163
992.42        78.99529
992.80        76.26022
993.18        76.61497
993.56        78.70779
993.95        81.40913
994.33        83.88719
994.71        85.73347
995.10        87.46558
995.48        88.56562
995.86        88.02189
996.24        85.64915
996.63        81.25771
997.01        76.17767
997.39        74.31653
997.77        77.31703
998.15        84.21116
998.54        91.52086
998.92        94.53211
999.30        91.90779
999.68         84.9401
1000.06        75.64408
1000.45        68.98596
1000.83         67.0405
1001.21         68.0827
1001.59         70.8858
1001.97        74.27598
1002.35        77.91812
1002.73         82.8901
1003.12        87.67004
1003.50        87.62675
1003.88        81.10567
1004.26         70.5807
1004.64        60.97602
1005.02        56.35545
1005.40         56.9581
1005.78        62.77972
1006.16        74.37612
1006.54        85.55673
1006.92        89.04258
1007.30         86.9965
1007.69        83.95429
1008.07        83.24634
1008.45        85.42705
1008.83        91.12309
1009.21        102.8671
1009.59        118.3345
1009.97         109.672
1010.35        33.27527
1010.73       -17.36051
1011.11       0.7379435
1011.49        29.51514
1011.86        54.29291
1012.24        69.52242
1012.62        75.99567
1013.00        76.89477
1013.38        74.23382
1013.76        70.17713
1014.14        71.93599
1014.52        85.45852
1014.90        111.3343
1015.28        142.7207
1015.66        159.9997
1016.04        150.8064
1016.41        119.5025
1016.79          81.455
1017.17        54.29691
1017.55        41.75945
1017.93        36.78735
1018.31        36.82236
1018.69        41.59173
1019.06        50.97812
1019.44        66.76853
1019.82        91.61913
1020.20        121.3017
1020.58        147.9934
1020.95        163.2044
1021.33         154.871
1021.71         120.625
1022.09        124.5154
1022.46        121.2223
1022.84        119.5138
1023.22        121.1888
1023.60        129.3762
1023.97         205.922
1024.35        78.27562
1024.73        94.05713
