SpectraSmart Spectrum 2.9.0.0
--------- Device Information -----------
Spectrum Name :  反射率_0
Saving Time :  2024/04/26 01:28:49
Spectro-Module Model Name : SE2030-DUVN
Spectro-Module Serial Number : OS361AC55029948
Wavelength Start : 200
Wavelength End : 1025
Wavelength Unit : Wavelength(nm)
Spectrum Unit : Reflectance(%)
-----------Spectrum Setting ------------
Integration Time : 20ms
Average : 10
Boxcar : 0
Background removal :  enabled
linearity correction :  enabled
SC :  disabled
Intensity correction :  disabled
DWT denoise :  enabled
savitzky-golay :  disabled
FFT :  disabled
Running average :  disabled
Kalman :  disabled
High pass :  disabled
---------------BEGIN--------------------
Wavelength(nm)             Reflectance(%)
200.29               0
200.75         95.4449
201.21        86.98142
201.67         77.4762
202.13        72.26221
202.58        71.89491
203.04         75.0453
203.50        79.34375
203.96         80.7905
204.42        78.68853
204.88        74.92696
205.34        71.29481
205.80         69.3227
206.26        69.24242
206.72        71.05968
207.18         75.8036
207.64        80.98347
208.10         79.5571
208.55        74.79943
209.01        71.41228
209.47        69.97181
209.93        69.61482
210.39        69.80327
210.85        69.98733
211.31        69.21627
211.77         67.4754
212.23        65.46311
212.69        64.17256
213.14        65.25591
213.60        68.62507
214.06        73.65189
214.52        79.49338
214.98        84.98843
215.44        89.17251
215.90        91.87415
216.36         92.4749
216.81        89.95264
217.27        85.22219
217.73        79.42174
218.19        73.02541
218.65        66.07404
219.11        58.02331
219.57        47.35447
220.02        35.67146
220.48         31.3651
220.94        38.13738
221.40        53.19933
221.86        66.39311
222.32        67.63144
222.77        58.56401
223.23        45.01772
223.69        33.08927
224.15        28.96175
224.61           32.07
225.06        39.40695
225.52        47.04182
225.98        50.00608
226.44        47.42091
226.90        41.46686
227.36        34.84381
227.81        31.12673
228.27        31.35842
228.73        34.03596
229.19        37.66058
229.65        40.09408
230.10        40.78407
230.56        40.53436
231.02        40.07233
231.48        40.15615
231.93        40.86041
232.39        41.85247
232.85        42.72216
233.31        42.93861
233.77        42.37656
234.22        41.21064
234.68        39.86267
235.14        39.06038
235.60         39.0997
236.05        39.84414
236.51        40.85376
236.97        41.45679
237.43        41.53438
237.88        41.27846
238.34        41.16971
238.80        42.45515
239.26         45.5595
239.71        50.09996
240.17        54.77408
240.63        57.86963
241.08        58.92667
241.54        58.32856
242.00        56.97914
242.46        56.09195
242.91        56.31836
243.37        57.97363
243.83        65.63009
244.28        99.76951
244.74        155.3299
245.20        146.0987
245.66        128.3843
246.11        125.9607
246.57        136.2805
247.03        169.9693
247.48        269.3087
247.94        229.6454
248.40        126.5583
248.85        93.66594
249.31        83.62408
249.77        82.52044
250.22        86.45443
250.68        95.40046
251.14        109.0562
251.59        118.5865
252.05        114.9899
252.51        102.0254
252.96        87.90095
253.42        80.59501
253.88        79.51118
254.33        81.59646
254.79        85.36723
255.25         88.3272
255.70        89.57784
256.16        90.34479
256.62         89.9463
257.07        87.50411
257.53        83.74471
257.99        78.72049
258.44        73.75922
258.90        71.39234
259.35        70.70268
259.81        70.83267
260.27        70.03558
260.72        66.60739
261.18        61.34227
261.63        55.04169
262.09        49.32834
262.55        45.43104
263.00        43.30614
263.46        42.40033
263.91        41.78627
264.37         40.7216
264.83        39.01468
265.28        36.83397
265.74        34.75479
266.19        33.41481
266.65        32.99667
267.11        33.11086
267.56        33.20671
268.02        32.61779
268.47        31.23518
268.93        29.30136
269.38        27.17613
269.84        25.71464
270.30        25.16398
270.75        25.29364
271.21        25.68917
271.66        25.72974
272.12        25.23312
272.57        24.38947
273.03        23.49445
273.48        22.91226
273.94        22.74343
274.39         22.8106
274.85        22.87674
275.31        22.60903
275.76        21.94637
276.22        21.04733
276.67        20.13064
277.13        19.58012
277.58        19.41856
278.04        19.52982
278.49        19.66507
278.95        19.51792
279.40        19.01862
279.86        18.32956
280.31        17.59539
280.77        17.12619
281.22        16.94484
281.68        16.95151
282.13        17.02597
282.59        17.02148
283.04        16.89917
283.50        16.74559
283.95        16.55457
284.41        16.32047
284.86        16.05914
285.32        15.77212
285.77        15.56663
286.22        15.66028
286.68        16.04147
287.13        16.61263
287.59        17.14417
288.04        17.29437
288.50         17.0274
288.95        16.45575
289.41        15.80583
289.86        15.32686
290.32        15.13991
290.77        15.15581
291.22        15.34157
291.68        15.60864
292.13         15.9308
292.59        16.34284
293.04        16.84237
293.50        17.41526
293.95        18.04003
294.40        18.67669
294.86        19.30936
295.31        19.93825
295.77        20.56778
296.22        21.20906
296.68        21.84376
297.13        22.40904
297.58        22.92342
298.04        23.43106
298.49        24.02941
298.95        24.90542
299.40        26.07972
299.85        27.48619
300.31         28.9917
300.76        30.38536
301.21        31.58281
301.67        32.66694
302.12        33.65024
302.58        34.62526
303.03        35.61624
303.48        36.61544
303.94        37.73111
304.39        39.08581
304.84        40.69551
305.30        42.51927
305.75        44.36279
306.20        45.93127
306.66        47.18959
307.11        48.20392
307.57        49.18709
308.02         50.3724
308.47        51.86348
308.93        53.57838
309.38        55.41367
309.83        57.24421
310.29        58.99178
310.74         60.6516
311.19        62.21427
311.65        63.67539
312.10        65.03424
312.55        66.29562
313.00        67.42146
313.46        68.36235
313.91        69.10311
314.36        69.67898
314.82        70.23196
315.27        70.94184
315.72        71.87788
316.18        72.99422
316.63         74.1624
317.08        75.11974
317.53        75.78774
317.99         76.2243
318.44        76.58559
318.89         77.1384
319.35        77.92493
319.80        78.88069
320.25        79.79366
320.70        80.31501
321.16        80.36745
321.61        80.07205
322.06        79.65878
322.51        79.48948
322.97        79.64178
323.42        80.04388
323.87        80.53574
324.32        80.84104
324.78        80.87042
325.23        80.75032
325.68        80.57345
326.13        80.50909
326.59        80.59261
327.04        80.79266
327.49        81.06564
327.94        81.37205
328.39        81.68603
328.85        82.00499
329.30        82.34962
329.75          82.606
330.20        82.77144
330.66        82.86311
331.11        83.00761
331.56        83.34076
332.01        83.90725
332.46        84.64519
332.92        85.47258
333.37        86.39924
333.82        87.30219
334.27        88.18118
334.72        88.88934
335.17        89.19888
335.63        89.08633
336.08        88.66724
336.53        88.18423
336.98        88.07012
337.43         88.4379
337.88        89.16606
338.34        90.07555
338.79        90.94425
339.24        91.63384
339.69         92.2314
340.14        92.67941
340.59        92.88058
341.05         92.8531
341.50         92.6058
341.95        92.35123
342.40        92.43687
342.85        92.92568
343.30        93.72884
343.75        94.61511
344.20        95.16203
344.66        95.26101
345.11        95.02708
345.56        94.64939
346.01        94.41674
346.46        94.41707
346.91        94.55757
347.36        94.77086
347.81        94.95887
348.26        95.09004
348.72        95.22827
349.17        95.35138
349.62        95.46558
350.07        95.56891
350.52        95.63593
350.97        95.68445
351.42        95.75663
351.87        95.85066
352.32        95.95159
352.77         95.9981
353.22        95.89317
353.67        95.62385
354.13        95.23921
354.58        94.79348
355.03        94.42828
355.48        94.17443
355.93        93.99062
356.38        93.81175
356.83        93.53242
357.28         93.1217
357.73        92.61504
358.18        92.04776
358.63        91.47299
359.08        90.91508
359.53         90.3651
359.98        89.81355
360.43        89.24671
360.88        88.65693
361.33        88.04256
361.78        87.43307
362.23        86.87318
362.68        86.37413
363.13        85.93666
363.58        85.48711
364.03        84.90609
364.48        84.17858
364.93        83.33734
365.38        82.51263
365.83        81.91872
366.28        81.58566
366.73        81.42641
367.18        81.28116
367.63        80.89234
368.08        80.20444
368.53        79.32864
368.98        78.36552
369.43        77.45696
369.88        76.66141
370.33        75.93723
370.78        75.32928
371.23        74.91631
371.68        74.69602
372.13        74.64533
372.58        74.65244
373.03         74.5175
373.48        74.18909
373.93        73.72588
374.38         73.2009
374.83        72.73325
375.28        72.35773
375.72        72.01659
376.17        71.73275
376.62        71.51987
377.07        71.35703
377.52        71.22637
377.97        71.05104
378.42        70.70474
378.87        70.17844
379.32        69.54109
379.77        68.85264
380.22        68.19408
380.67        67.58811
381.11        67.00115
381.56        66.48387
382.01        66.12516
382.46        65.93862
382.91        65.92442
383.36        65.92193
383.81        65.67036
384.26        65.13153
384.71        64.37364
385.15        63.62618
385.60        63.29509
386.05        63.39719
386.50        63.78959
386.95        64.18111
387.40        64.08365
387.85        63.43323
388.29        62.44376
388.74        61.46212
389.19        60.72565
389.64        60.28452
390.09        60.00322
390.54        59.91822
390.98        60.09361
391.43         60.4883
391.88        61.05812
392.33        61.52328
392.78        61.45659
393.23        60.84611
393.67        59.85995
394.12        58.91295
394.57        58.35326
395.02         58.2922
395.47        58.69758
395.91        59.39459
396.36        59.86527
396.81        59.97029
397.26        59.87444
397.71         59.6423
398.15         59.2516
398.60        58.81881
399.05         58.4486
399.50        58.15565
399.95        57.57178
400.39        57.07505
400.84        57.02114
401.29        57.39651
401.74        57.54861
402.18        57.41723
402.63        57.30118
403.08         57.2963
403.53         57.3874
403.97        57.58003
404.42        57.84992
404.87        58.05667
405.32        57.94963
405.76          57.492
406.21        56.88216
406.66        56.29119
407.11        55.86856
407.55        55.75304
408.00        56.05881
408.45        56.65321
408.90        57.15701
409.34        57.33979
409.79        57.02565
410.24         56.4239
410.68        56.13063
411.13        56.23196
411.58        56.39696
412.03        56.58728
412.47        56.88503
412.92        57.21479
413.37        57.57254
413.81        57.87445
414.26        58.02962
414.71        58.00747
415.15        57.82427
415.60        57.57024
416.05        57.41553
416.49         57.4124
416.94        57.54072
417.39        57.69028
417.83        57.65387
418.28        57.41333
418.73         57.0539
419.17        56.76129
419.62         56.8311
420.07        57.28096
420.51        57.99704
420.96        58.77462
421.41        59.20346
421.85        59.15387
422.30        59.00669
422.74        58.81078
423.19        58.34882
423.64        57.83923
424.08        58.16148
424.53        59.17175
424.98        59.77488
425.42        59.84162
425.87        60.12792
426.31        60.61267
426.76        60.61702
427.21        60.32905
427.65        60.61259
428.10        61.43626
428.54        62.20518
428.99        62.85482
429.44        63.38171
429.88        63.72222
430.33        64.32569
430.77        64.76246
431.22        63.89132
431.66        62.10045
432.11        60.88666
432.56        60.58743
433.00        61.30265
433.45        62.94949
433.89        64.87173
434.34         65.6686
434.78        67.48632
435.23        63.52567
435.67        62.38014
436.12        64.34315
436.57         65.5431
437.01        66.17744
437.46         66.5301
437.90        66.76733
438.35        66.55376
438.79        67.10718
439.24        67.18261
439.68        67.12974
440.13        66.91891
440.57        66.83768
441.02        67.48264
441.46        68.60129
441.91        69.65978
442.35        70.22873
442.80        69.44389
443.24        67.85911
443.69        68.41776
444.13        70.72785
444.58        70.95236
445.02        69.28027
445.47        69.09128
445.91        70.29987
446.36        70.68996
446.80        70.19724
447.24        69.94456
447.69        70.03337
448.13         70.1881
448.58        70.43059
449.02        70.76723
449.47        71.15398
449.91        71.52937
450.36        71.85626
450.80        72.14533
451.25        72.33027
451.69        72.23386
452.13        71.90352
452.58        71.50406
453.02        71.17764
453.47         71.0933
453.91        71.28056
454.36        71.72296
454.80        72.25963
455.24        72.50751
455.69        72.39742
456.13        72.14047
456.58        71.88433
457.02        71.47253
457.46        71.12272
457.91        71.36218
458.35        72.00343
458.79        72.28028
459.24        72.14755
459.68        71.96722
460.13        71.79599
460.57        71.56477
461.01        71.35787
461.46        71.00411
461.90        70.48655
462.34        70.96371
462.79        70.48923
463.23        70.87828
463.68        71.39861
464.12        71.77699
464.56        71.89854
465.01        71.78678
465.45        71.46207
465.89        71.42599
466.34        71.50091
466.78        70.66908
467.22        69.39782
467.67        68.66017
468.11        69.56326
468.55        70.29187
468.99        70.78442
469.44        70.63121
469.88        70.01585
470.32        70.05261
470.77        70.65491
471.21        70.74685
471.65        70.27124
472.10        69.93543
472.54         69.8704
472.98         69.9079
473.42        70.04053
473.87        70.56527
474.31        71.18082
474.75        70.88326
475.20        69.91106
475.64         69.6299
476.08        70.06821
476.52        70.09589
476.97        69.66769
477.41        69.69681
477.85        70.24045
478.29        69.92213
478.74        70.10806
479.18        70.73712
479.62         69.2151
480.06        69.81818
480.50        70.15642
480.95        70.57706
481.39        70.63599
481.83          69.646
482.27        70.02406
482.72        69.60539
483.16         68.7831
483.60        68.58692
484.04        70.45104
484.48        70.68095
484.93        70.18234
485.37        72.03965
485.81        72.48077
486.25        71.15514
486.69        96.81561
487.14        78.50834
487.58        48.64585
488.02        59.67394
488.46         68.0649
488.90        67.66766
489.34        69.44464
489.79          68.411
490.23        70.63831
490.67        71.31499
491.11        70.12199
491.55        70.08537
491.99        70.75516
492.43        70.65401
492.88        69.85285
493.32        69.79674
493.76        70.00658
494.20        70.29193
494.64        70.39642
495.08        70.61573
495.52        70.93365
495.96        70.78714
496.41        70.24198
496.85        70.64082
497.29        71.65006
497.73        70.48846
498.17         68.1798
498.61        68.21248
499.05        70.63611
499.49        71.30724
499.93        71.63866
500.37        71.38264
500.82        70.50903
501.26        70.51309
501.70        71.14445
502.14        71.44222
502.58        71.25106
503.02        71.10265
503.46        70.99463
503.90        70.67705
504.34        70.26453
504.78        69.97605
505.22        69.87729
505.66        70.11967
506.10        70.61449
506.54        70.79317
506.98        70.51707
507.42        70.83102
507.86        70.54266
508.30        70.16611
508.74        70.55231
509.18        70.69832
509.62         70.8605
510.06        70.88404
510.50        70.76591
510.94        70.54403
511.38        70.30914
511.82        70.22216
512.26        70.31725
512.70        70.54168
513.14        70.82607
513.58        71.05598
514.02        71.18192
514.46        71.22847
514.90        71.21272
515.34        71.14707
515.78        71.03877
516.22         70.9502
516.66        70.88908
517.10        70.70371
517.54        70.40051
517.98        70.59231
518.42        70.46144
518.86        70.63145
519.30        70.83321
519.74        71.19269
520.18        71.59958
520.62        71.68739
521.06        71.51315
521.50        71.53271
521.93        71.73372
522.37        71.73118
522.81        71.53379
523.25         71.3812
523.69        71.32948
524.13         71.3558
524.57        71.46741
525.01        71.66329
525.45        71.88549
525.89        72.03699
526.32         72.0807
526.76        72.03774
527.20        71.92514
527.64        71.80264
528.08        71.71316
528.52        71.56329
528.96        71.34444
529.40        71.30911
529.83        71.46867
530.27        70.90113
530.71        71.06104
531.15        71.02303
531.59        71.21423
532.03        71.48517
532.46        71.78655
532.90        72.04234
533.34        72.19946
533.78        72.27447
534.22        72.27053
534.66         72.2042
535.09        72.07853
535.53        71.92159
535.97        71.74111
536.41        71.57069
536.85        71.43021
537.28        71.32433
537.72        71.26168
538.16        71.26334
538.60        71.32542
539.04        71.37849
539.47        71.39697
539.91        71.53632
540.35        71.70693
540.79        71.61813
541.22        71.32084
541.66         71.1838
542.10         71.2288
542.54        71.25898
542.97         71.2644
543.41        71.34104
543.85         71.4657
544.29        71.62729
544.72        71.75208
545.16        71.72482
545.60        71.51668
546.04        71.24815
546.47        71.02148
546.91        70.81123
547.35        70.75047
547.79        71.26592
548.22        72.06734
548.66        72.31738
549.10        71.90697
549.53        71.15992
549.97        70.41542
550.41        70.08221
550.84        70.26617
551.28         70.8056
551.72        71.47614
552.15        71.89893
552.59        71.95967
553.03        71.84963
553.46        71.55133
553.90         71.4115
554.34        71.44521
554.77        71.49528
555.21        71.51265
555.65        71.63634
556.08        71.87661
556.52        71.39462
556.96        71.83367
557.39        71.61803
557.83        71.35866
558.27        71.39053
558.70         71.6919
559.14        71.91269
559.57        71.99242
560.01        72.05981
560.45        72.12964
560.88        72.27728
561.32        72.42441
561.75        72.28539
562.19        71.92866
562.63        71.36481
563.06        70.82034
563.50         70.9248
563.93        71.54333
564.37        71.92641
564.80        71.94344
565.24        71.92461
565.68        71.87995
566.11        71.81816
566.55        71.80714
566.98        71.64594
567.42        71.44085
567.85        71.68033
568.29        72.29233
568.72        72.39778
569.16        72.18081
569.60        72.53398
570.03        73.12482
570.47        73.02258
570.90        72.54092
571.34        70.89565
571.77        72.01115
572.21        71.86388
572.64        71.36365
573.08        70.65504
573.51        67.58144
573.95        70.17899
574.38        74.26954
574.82        72.67154
575.25        71.99477
575.69        69.55382
576.12        68.26434
576.56         67.8174
576.99        69.29675
577.42        72.31779
577.86        72.48046
578.29        72.12258
578.73        75.56974
579.16        69.57687
579.60        63.78483
580.03        66.59035
580.47        70.52191
580.90        72.89444
581.33        71.05491
581.77        70.31775
582.20        77.29028
582.64        76.60202
583.07        65.68806
583.51        64.42648
583.94        63.21475
584.37        66.07378
584.81        69.38554
585.24        73.07795
585.68        74.84407
586.11        73.37118
586.54        68.54001
586.98        66.55708
587.41        66.84088
587.85        70.53372
588.28        73.41685
588.71        69.57909
589.15        67.49004
589.58        68.91857
590.01        69.21754
590.45        70.23179
590.88        71.11338
591.31        70.47218
591.75         70.0751
592.18        70.08381
592.61        71.47097
593.05        72.03067
593.48        74.90966
593.91        75.76302
594.35        69.62915
594.78        68.18294
595.21        67.65636
595.65        70.79911
596.08        73.88357
596.51        70.74347
596.94        69.04604
597.38        69.61592
597.81        72.18456
598.24        74.21765
598.68         72.6301
599.11        70.99999
599.54        74.27376
599.97        75.67828
600.41        70.49389
600.84        70.60297
601.27        72.02518
601.70        71.28223
602.14        71.26278
602.57        70.09607
603.00        70.49255
603.43        72.12651
603.87        73.87581
604.30        73.54393
604.73        71.47865
605.16        69.90152
605.60        70.82288
606.03        71.98885
606.46        73.14904
606.89        72.95263
607.32        70.35289
607.76        70.28409
608.19         72.6451
608.62        71.93269
609.05        70.62289
609.48        71.25991
609.92        71.37403
610.35         70.6608
610.78        72.73397
611.21        73.50404
611.64        70.17863
612.07         71.0099
612.50        71.48519
612.94        72.03523
613.37        71.56956
613.80        71.60594
614.23        72.19967
614.66        72.09631
615.09        72.35037
615.52        72.35831
615.96         72.2298
616.39         72.3447
616.82        71.51014
617.25        70.89225
617.68        71.73822
618.11        72.42014
618.54        72.81544
618.97        72.33423
619.40        71.31654
619.84        71.12372
620.27        72.23202
620.70        72.89334
621.13        73.06083
621.56        72.49918
621.99        71.52905
622.42         72.4978
622.85        74.19115
623.28        74.06062
623.71        73.45258
624.14        73.03436
624.57         72.5758
625.00        72.54349
625.43        72.77687
625.86        72.22083
626.29        72.23194
626.72        72.90548
627.15         72.5918
627.58        72.81666
628.01         72.9348
628.44        73.07196
628.87        73.26852
629.30        73.23981
629.73        73.48695
630.16        73.84825
630.59        73.28738
631.02        72.95425
631.45        72.61039
631.88        72.34197
632.31         72.1701
632.74        72.28048
633.17        72.30641
633.60        72.41678
634.03          72.482
634.46        72.53896
634.89        72.57467
635.32        72.57704
635.75        72.54906
636.18        72.47477
636.61        72.39754
637.04         72.3862
637.47        72.43642
637.89         72.5928
638.32        72.77765
638.75        72.73876
639.18        72.41773
639.61        72.54131
640.04        72.01889
640.47        71.92634
640.90        71.95054
641.33        72.07359
641.76        72.20489
642.18        72.32279
642.61        72.40515
643.04        72.29005
643.47         71.9747
643.90         72.3875
644.33        72.05284
644.76        72.15674
645.18         72.2245
645.61        72.22762
646.04        72.14041
646.47        71.97697
646.90        71.83273
647.33        71.80322
647.75        71.92387
648.18        72.20226
648.61         72.4566
649.04        72.38277
649.47        71.94939
649.89        71.20288
650.32        70.50866
650.75        70.41872
651.18        70.96017
651.61        71.79482
652.03        72.51143
652.46        72.64003
652.89        72.44395
653.32        71.66091
653.74         70.8139
654.17        72.11246
654.60        72.98546
655.03        70.84885
655.46        71.77939
655.88         75.3194
656.31        80.28188
656.74        179.6412
657.16        117.0436
657.59        41.09277
658.02        31.19946
658.45        54.05311
658.87        69.64062
659.30        72.69792
659.73        72.19677
660.15        69.46236
660.58        72.23306
661.01         73.9784
661.44        71.54782
661.86        70.80315
662.29        70.89529
662.72        71.68948
663.14        72.89891
663.57        72.72424
664.00        71.46448
664.42        71.16517
664.85        71.90871
665.27        72.36427
665.70        72.33331
666.13        72.25447
666.55        72.10423
666.98        71.74524
667.41        71.32005
667.83        71.12543
668.26        71.22424
668.69        71.49129
669.11        71.74716
669.54        72.05687
669.96        71.69746
670.39        71.30743
670.82        70.86109
671.24        70.67075
671.67        70.83819
672.09        71.22059
672.52        71.57697
672.94        72.12925
673.37        71.59408
673.80         71.3793
674.22        71.21763
674.65        71.12926
675.07        71.12132
675.50        71.06011
675.92        70.98093
676.35        71.04047
676.77        71.24352
677.20        71.46504
677.62        71.66688
678.05        71.79593
678.47        71.82069
678.90        71.76676
679.32        71.68491
679.75        71.52179
680.17        71.58213
680.60        71.63108
681.02        71.67231
681.45        71.55244
681.87        71.26855
682.30        70.86398
682.72        70.51018
683.15         70.4965
683.57         70.8827
684.00        71.48299
684.42         72.2187
684.85        72.58836
685.27        72.53411
685.70        72.17306
686.12        71.66872
686.54          71.398
686.97         71.4444
687.39        71.58838
687.82        71.65995
688.24        72.13713
688.66        71.84985
689.09        71.71912
689.51         71.5331
689.94        71.49847
690.36        71.65514
690.78        71.90853
691.21        72.17707
691.63        72.37128
692.06        72.43204
692.48        72.29878
692.90        72.06293
693.33         71.9489
693.75        71.99454
694.17        72.11253
694.60        72.26144
695.02        72.35506
695.44        72.34535
695.87        72.50024
696.29        72.77474
696.71          72.523
697.14        71.98177
697.56        72.35023
697.98        73.30182
698.41        73.60994
698.83         72.3837
699.25        71.89879
699.68        71.97335
700.10        71.92287
700.52        71.75968
700.94         71.9008
701.37         72.2826
701.79         72.6431
702.21        72.89276
702.64        73.10116
703.06        73.22361
703.48        73.18586
703.90         73.0008
704.33        72.68671
704.75        72.33163
705.17        72.17313
705.59        72.27129
706.01        72.44628
706.44        72.58974
706.86        73.15264
707.28        73.11561
707.70        73.26432
708.12        73.30443
708.55        73.23959
708.97        73.05791
709.39        72.77002
709.81        72.48172
710.23        72.36322
710.66        72.45838
711.08        72.75447
711.50        73.08472
711.92        73.19486
712.34         73.0302
712.76        72.65236
713.19        72.25179
713.61        72.17091
714.03        72.46638
714.45        73.02888
714.87        73.61202
715.29         73.8278
715.71        73.59158
716.13        73.03225
716.56         72.3806
716.98        72.03798
717.40         72.1059
717.82        72.46552
718.24        72.93784
718.66        73.22004
719.08        73.22118
719.50        73.03735
719.92         72.7781
720.34        72.63314
720.76        72.65813
721.19        72.66604
721.61        72.83104
722.03        72.93109
722.45        73.00179
722.87        73.06525
723.29         73.1278
723.71        73.18613
724.13        73.23849
724.55        73.27572
724.97        73.30267
725.39        73.33535
725.81          73.375
726.23        73.41976
726.65        73.45675
727.07        73.46124
727.49        73.43624
727.91        73.40164
728.33         73.3769
728.75        73.39461
729.17        73.46008
729.59        73.54846
730.01        73.66934
730.43        73.83831
730.85         74.0523
731.27          74.316
731.69        74.53143
732.10        74.61419
732.52         74.3857
732.94         74.0568
733.36        73.76987
733.78        73.68725
734.20        73.85152
734.62        74.54047
735.04        75.46879
735.46         75.3998
735.88        74.57296
736.30        74.72636
736.72         75.8471
737.13        76.29243
737.55        75.82323
737.97        75.82888
738.39         76.2845
738.81        75.55532
739.23        74.13598
739.65        74.92655
740.06         77.4002
740.48        77.67929
740.90        75.85197
741.32        75.02216
741.74        75.47161
742.16        75.70455
742.57        75.76995
742.99        76.48498
743.41        77.60573
743.83        78.27486
744.25        78.33916
744.67        78.01392
745.08        77.54302
745.50        77.32516
745.92        77.49258
746.34        77.91134
746.75        78.41341
747.17        78.71738
747.59        78.76996
748.01        78.66123
748.42        78.58169
748.84        78.82587
749.26        79.45499
749.68        80.28786
750.09        81.10771
750.51        81.69002
750.93        81.89749
751.35        81.50376
751.76        80.74992
752.18        80.44535
752.60        80.61082
753.01        80.61559
753.43        80.46078
753.85        80.62191
754.27         81.1125
754.68         81.7208
755.10        82.30671
755.52        82.80379
755.93        83.12353
756.35        83.19967
756.77        83.18703
757.18        83.16685
757.60        83.17233
758.02        83.69843
758.43        84.36427
758.85        83.48972
759.26         81.6433
759.68        81.35101
760.10        82.54908
760.51        83.41378
760.93        83.46964
761.34        82.55903
761.76         81.8642
762.18        81.12072
762.59        80.86264
763.01        81.15234
763.42        81.96555
763.84        82.58851
764.26        82.91124
764.67        83.32188
765.09        83.67307
765.50        83.51767
765.92        82.89386
766.33         81.7891
766.75         80.6344
767.16        80.31155
767.58        80.94395
768.00        82.21562
768.41         83.8242
768.83        85.12392
769.24        85.57733
769.66         84.8847
770.07        83.52094
770.49        81.96779
770.90        80.70948
771.32        81.61064
771.73        83.96842
772.15        83.47844
772.56        80.61487
772.97        80.04114
773.39         81.6815
773.80         82.2331
774.22        81.48693
774.63        81.45301
775.05        82.06308
775.46        82.35963
775.88        82.23129
776.29        81.95005
776.70        81.64803
777.12        81.57243
777.53        81.78915
777.95        82.14888
778.36        82.47655
778.77        82.47356
779.19        82.12292
779.60        81.53612
780.02        80.92928
780.43        80.73901
780.84        81.11022
781.26        81.39562
781.67        81.59789
782.09        82.82075
782.50         84.4426
782.91        83.62365
783.33        81.06429
783.74        80.25845
784.15        81.37181
784.57        82.15955
784.98        82.28719
785.39         82.2839
785.81         82.1202
786.22        81.69579
786.63        81.31523
787.04        81.38779
787.46         81.9664
787.87        82.98266
788.28        84.08126
788.70        84.56901
789.11        84.29628
789.52          83.565
789.93        82.71095
790.35        82.05582
790.76        81.80379
791.17        82.18925
791.58        82.95933
792.00        83.32029
792.41        83.11404
792.82        82.72834
793.23        82.42595
793.65        82.10036
794.06        82.01583
794.47        83.14857
794.88        84.67062
795.29        84.55552
795.71        81.99571
796.12        79.89384
796.53        78.64227
796.94        78.44007
797.35        79.30888
797.76        80.63727
798.18        81.84002
798.59        82.68976
799.00        82.86073
799.41        82.04691
799.82          80.708
800.23        79.92995
800.64        79.93211
801.06        80.30146
801.47        80.90916
801.88        81.43384
802.29        81.73055
802.70        81.94209
803.11        82.04004
803.52        81.93954
803.93        81.66608
804.34        81.20468
804.75        80.73413
805.17        80.64447
805.58        81.05207
805.99        81.58661
806.40        82.02361
806.81        82.64604
807.22        83.02323
807.63        81.76241
808.04        79.51038
808.45        78.56812
808.86        79.17042
809.27        80.21096
809.68        81.22855
810.09         81.8238
810.50        81.75463
810.91        81.17775
811.32        80.38529
811.73        79.84351
812.14        79.69447
812.55         79.7536
812.96        79.99221
813.37        80.35301
813.78        80.76388
814.19        81.29889
814.60        81.70007
815.01        81.55417
815.42        80.82069
815.83        79.57126
816.24        78.29687
816.65        77.87132
817.05        78.54811
817.46        80.05212
817.87        81.74027
818.28        82.45486
818.69        81.88268
819.10        80.31593
819.51        78.49299
819.92        77.66425
820.33        78.15437
820.74        79.58344
821.14        81.23623
821.55        81.84871
821.96        81.15051
822.37        79.58878
822.78        77.83148
823.19        76.85548
823.60        76.92554
824.00        77.79372
824.41        78.99571
824.82        79.84063
825.23        80.03198
825.64        79.79639
826.04         79.3891
826.45        79.18406
826.86        79.27797
827.27        79.49996
827.68        79.71557
828.08        79.76254
828.49         79.5235
828.90        79.14532
829.31        78.68655
829.72        78.23338
830.12        77.88168
830.53        77.59135
830.94        77.47308
831.35        77.66212
831.75        78.19556
832.16        78.96503
832.57        79.80897
832.97        80.36579
833.38        80.44521
833.79        80.14115
834.20        79.64585
834.60        79.26072
835.01        79.10218
835.42        79.08807
835.82         79.1155
836.23        78.92622
836.64         78.5146
837.04        78.00183
837.45        77.55728
837.86        77.44371
838.26        77.72148
838.67        78.24826
839.08        78.88872
839.48         79.3933
839.89         79.6232
840.29        79.65864
840.70        79.50175
841.11        79.14565
841.51        78.63817
841.92        77.96706
842.33        77.31575
842.73         76.9989
843.14        77.05109
843.54        77.44283
843.95        77.91523
844.35         78.0862
844.76        77.84497
845.17        77.32327
845.57        76.74075
845.98        76.44564
846.38        76.52344
846.79        76.83725
847.19        77.26598
847.60        77.50745
848.00        77.50561
848.41        77.33031
848.81          77.106
849.22        76.93781
849.62        76.91736
850.03        77.01096
850.43        77.22279
850.84        77.47519
851.24        77.77409
851.65        77.95226
852.05        78.19616
852.46        78.62626
852.86        79.24715
853.27         80.0509
853.67        80.48466
854.07         79.8299
854.48         78.1207
854.88        75.62017
855.29        73.24988
855.69         72.3468
856.10         73.1652
856.50        75.52482
856.90        78.57021
857.31        80.31897
857.71        80.13247
858.12        78.53012
858.52        76.44752
858.92        75.11573
859.33        74.80681
859.73        75.17545
860.13        75.99918
860.54        76.81638
860.94        77.47398
861.34        78.10185
861.75        78.63643
862.15        79.05182
862.55         79.3038
862.96        79.31309
863.36        79.20001
863.76        79.17439
864.17        79.29498
864.57        79.58768
864.97        79.91664
865.38        80.04675
865.78        79.98666
866.18        79.72897
866.58        79.49829
866.99         79.6594
867.39        80.34561
867.79        81.48763
868.19        82.61557
868.60         82.8517
869.00        81.99274
869.40         80.2938
869.80        78.63161
870.21         78.3808
870.61        79.93756
871.01        82.88284
871.41        86.22581
871.81        88.26984
872.22        88.52543
872.62        87.47701
873.02        85.99915
873.42        85.60437
873.82        86.49357
874.22        87.96329
874.63        89.51254
875.03        90.10458
875.43        89.28233
875.83        88.21469
876.23        86.18587
876.63        85.27481
877.03        85.52853
877.44        87.13893
877.84        102.9243
878.24        94.23969
878.64        94.25763
879.04        93.54344
879.44        89.76608
879.84        87.92411
880.24        91.40869
880.64         93.5291
881.04        94.91242
881.44        95.55942
881.84        94.73042
882.24        92.83126
882.65        90.98353
883.05         90.3244
883.45        91.04745
883.85        93.03478
884.25        95.51774
884.65        96.90516
885.05        96.69952
885.45        95.44182
885.85        93.93428
886.25        93.27365
886.65        93.70172
887.05        94.84245
887.45         96.2646
887.85        97.21249
888.25         97.4073
888.65        97.13479
889.04        96.61777
889.44        96.22821
889.84        96.08067
890.24         96.0154
890.64        96.04883
891.04        96.24435
891.44        96.57135
891.84        97.04467
892.24        97.48001
892.64        97.50684
893.04        97.10474
893.44        96.47556
893.83        95.86828
894.23         95.6664
894.63        95.92937
895.03        96.46321
895.43        97.30306
895.83        98.48024
896.23        99.86463
896.63        101.4277
897.02        102.5688
897.42        102.3304
897.82          100.64
898.22        97.87648
898.62        95.03512
899.01        93.56944
899.41        93.80182
899.81        95.25651
900.21         97.2099
900.61        98.46951
901.00        98.66272
901.40        98.15461
901.80        97.33894
902.20        96.82468
902.59        96.80425
902.99        97.05706
903.39         97.3633
903.79        97.38705
904.18        97.04871
904.58        96.54456
904.98        96.13306
905.38        96.18177
905.77        96.71889
906.17        97.56036
906.57        98.43002
906.96        98.98597
907.36        99.07426
907.76        98.81422
908.15        98.29771
908.55        97.56748
908.95        96.75374
909.34        95.84451
909.74        95.01836
910.14        94.36319
910.53        93.94781
910.93        93.82658
911.33        94.04338
911.72        94.64775
912.12        95.49097
912.52        96.40562
912.91        97.29031
913.31        98.10117
913.70        98.87476
914.10        99.60323
914.49        100.0298
914.89        99.48833
915.29        97.94155
915.68        95.70823
916.08        93.69956
916.47        92.64348
916.87        92.61259
917.26        93.39816
917.66        94.41109
918.05         94.7277
918.45        94.11154
918.84        92.88513
919.24        91.67884
919.64        91.39298
920.03         92.2578
920.42        93.97839
920.82        96.00159
921.21        97.51628
921.61        98.06164
922.00        97.89033
922.40        97.27641
922.79        96.61682
923.19        96.08264
923.58        95.50924
923.98         94.7845
924.37        93.90063
924.77        93.12392
925.16        91.09924
925.55        91.02126
925.95        91.04699
926.34        92.17445
926.74        93.90316
927.13        95.83499
927.52        97.02316
927.92        97.29181
928.31        96.92239
928.70        96.05283
929.10        94.96036
929.49        93.76521
929.89        92.43306
930.28        91.43327
930.67        91.57681
931.07        92.86648
931.46        95.12754
931.85        97.45204
932.24        98.46282
932.64         97.8794
933.03        95.98312
933.42        93.34805
933.82        91.32727
934.21        90.37788
934.60        90.18485
934.99        90.35577
935.39        90.47932
935.78        90.48906
936.17        90.32945
936.56        89.73557
936.96        90.29633
937.35        88.98448
937.74         88.3416
938.13        87.92944
938.53        88.36345
938.92        89.64527
939.31        91.76772
939.70        94.04239
940.09        94.60828
940.49         92.9352
940.88         89.8497
941.27         86.7759
941.66        85.36915
942.05        85.82075
942.44        87.58593
942.84        89.99934
943.23        91.94576
943.62        92.86951
944.01        93.05689
944.40        92.74065
944.79        92.28994
945.18        91.83472
945.57        91.18405
945.97        90.24184
946.36        89.04645
946.75        87.85835
947.14        86.94136
947.53         86.4438
947.92        86.37938
948.31        86.69182
948.70        87.37139
949.09        88.29197
949.48        89.10794
949.87        89.59657
950.26        89.73337
950.65        89.66288
951.04        89.68244
951.43        89.85245
951.82        90.06686
952.21        90.08549
952.60        89.56181
952.99        88.45809
953.38         86.9325
953.77        85.37069
954.16        84.28503
954.55        83.80409
954.94        83.88642
955.33        84.12038
955.72         83.7993
956.11        82.78344
956.50        81.23004
956.89         79.9026
957.28        80.17092
957.66        82.39458
958.05        85.87881
958.44        89.42812
958.83        91.28955
959.22        91.06573
959.61        89.21033
960.00        86.66949
960.39        85.01572
960.78        84.72601
961.16        85.42304
961.55        86.35536
961.94        86.22263
962.33        84.75797
962.72        82.56149
963.11        80.47406
963.49        79.55013
963.88        79.97562
964.27        81.44431
964.66        83.40871
965.04        84.69849
965.43         84.7084
965.82        83.85166
966.21        82.71078
966.60        82.05202
966.98         82.0485
967.37        82.38766
967.76         82.8145
968.15        82.86712
968.53        82.42648
968.92        81.71242
969.31         80.9601
969.69         80.3994
970.08        80.11414
970.47        80.03667
970.86        80.11938
971.24        80.31102
971.63        80.55006
972.02        80.79946
972.40         81.1331
972.79        81.63007
973.17        82.38004
973.56        83.26343
973.95        83.92035
974.33         83.6824
974.72        82.41982
975.11        80.41222
975.49        78.54499
975.88         78.0523
976.26        79.06924
976.65          81.385
977.04        84.03263
977.42        84.56892
977.81        82.17743
978.19        77.88772
978.58        73.87054
978.96         72.3521
979.35        73.67297
979.74        77.28139
980.12        82.49519
980.51        86.50858
980.89        88.21186
981.28        88.16537
981.66        87.02415
982.05        85.69247
982.43        84.50518
982.82         83.2342
983.20        82.26284
983.59        82.28028
983.97        83.48298
984.35        85.86011
984.74        88.73671
985.12        90.72781
985.51        90.83025
985.89         89.2238
986.28        86.51189
986.66         83.7301
987.04        81.64684
987.43        80.24399
987.81        79.19776
988.20        77.97542
988.58        76.27663
988.96        73.80293
989.35        71.20537
989.73        71.49409
990.12        75.98631
990.50        82.94087
990.88        88.32203
991.27        89.43108
991.65        86.81455
992.03        81.29878
992.42         74.9473
992.80        71.59436
993.18        72.51037
993.56        75.78766
993.95        79.55799
994.33        82.19424
994.71        83.24203
995.10        83.51712
995.48        83.13265
995.86        82.01215
996.24        80.23691
996.63        77.54906
997.01        74.51965
997.39         73.2165
997.77        74.49265
998.15        77.84705
998.54        81.48913
998.92        83.13705
999.30        82.00103
999.68        78.87926
1000.06        74.35191
1000.45        70.12375
1000.83        67.16846
1001.21        65.04503
1001.59        64.36545
1001.97        65.95702
1002.35        69.82022
1002.73        76.55418
1003.12        84.19733
1003.50        86.26857
1003.88        79.93862
1004.26        68.39004
1004.64        57.48209
1005.02        52.17087
1005.40        52.80571
1005.78        58.98073
1006.16        71.28878
1006.54        83.26121
1006.92        87.16735
1007.30        85.53618
1007.69        82.53314
1008.07        81.08952
1008.45        81.44805
1008.83        82.76384
1009.21        85.41701
1009.59        88.49191
1009.97        83.27439
1010.35        62.48994
1010.73        48.08272
1011.11         45.5411
1011.49        46.39409
1011.86        49.56587
1012.24        52.28887
1012.62        55.27263
1013.00        59.14085
1013.38        64.32235
1013.76        72.47274
1014.14        85.69185
1014.52        104.1999
1014.90        127.0348
1015.28        148.0653
1015.66        156.1832
1016.04        144.5414
1016.41         114.826
1016.79        79.64787
1017.17        53.30509
1017.55        39.74878
1017.93        34.08965
1018.31        33.35942
1018.69        36.52023
1019.06        43.17897
1019.44        53.99637
1019.82        71.61471
1020.20        95.94122
1020.58        125.6945
1020.95        163.8703
1021.33        219.1931
1021.71       -486.1988
1022.09        84.16943
1022.46        119.1408
1022.84        133.2009
1023.22          143.52
1023.60        160.3633
1023.97        296.9752
1024.35        73.23895
1024.73         103.159
