SpectraSmart Spectrum 2.9.0.0
--------- Device Information -----------
Spectrum Name :  反射率_0
Saving Time :  2024/04/26 02:07:10
Spectro-Module Model Name : SE2030-DUVN
Spectro-Module Serial Number : OS361AC55029948
Wavelength Start : 200
Wavelength End : 1025
Wavelength Unit : Wavelength(nm)
Spectrum Unit : Reflectance(%)
-----------Spectrum Setting ------------
Integration Time : 20ms
Average : 10
Boxcar : 0
Background removal :  enabled
linearity correction :  enabled
SC :  disabled
Intensity correction :  disabled
DWT denoise :  enabled
savitzky-golay :  disabled
FFT :  disabled
Running average :  disabled
Kalman :  disabled
High pass :  disabled
---------------BEGIN--------------------
Wavelength(nm)             Reflectance(%)
200.29               0
200.75        93.30376
201.21        89.64338
201.67        85.02335
202.13        80.84529
202.58        77.45744
203.04        75.02835
203.50        73.73112
203.96        73.97245
204.42        75.46559
204.88        77.50656
205.34        79.87729
205.80        82.86472
206.26        87.27869
206.72        95.43338
207.18        109.4485
207.64         118.048
208.10        103.7998
208.55        82.88205
209.01        71.03664
209.47        67.92795
209.93        69.85856
210.39        75.59863
210.85        82.24075
211.31        83.35321
211.77        77.09837
212.23        65.86884
212.69         55.0009
213.14        52.78239
213.60        60.44835
214.06        75.38372
214.52        91.89412
214.98        101.2523
215.44        101.2791
215.90        95.00131
216.36        86.10147
216.81        79.65656
217.27        77.34753
217.73        77.43495
218.19        77.90515
218.65        76.13149
219.11        71.04263
219.57         62.2085
220.02        50.99067
220.48        44.86965
220.94         47.8195
221.40        57.69564
221.86         66.5808
222.32          66.443
222.77        58.44949
223.23        47.32483
223.69        38.02961
224.15        35.60547
224.61        39.42155
225.06        46.92376
225.52        54.39252
225.98        57.08484
226.44        54.25308
226.90        48.00388
227.36        41.13929
227.81        37.43105
228.27        37.92179
228.73        40.99446
229.19         45.0791
229.65        47.89288
230.10        48.79906
230.56        48.70171
231.02        48.16859
231.48        47.76207
231.93         47.6136
232.39        47.50029
232.85        47.35623
233.31         47.2061
233.77        47.03231
234.22        46.86491
234.68         46.7515
235.14        46.66914
235.60        46.63394
236.05        46.70453
236.51        46.79433
236.97        46.73229
237.43        46.53731
237.88        46.31609
238.34        46.36989
238.80        47.55191
239.26        50.14315
239.71        53.94699
240.17        58.08258
240.63        61.54478
241.08        63.96368
241.54        65.31461
242.00        66.05257
242.46        67.03943
242.91         69.1372
243.37        73.50153
243.83        86.04491
244.28        124.7336
244.74        164.8363
245.20        138.6186
245.66        117.2093
246.11        112.9057
246.57        119.9103
247.03        146.0005
247.48        227.8003
247.94        206.7428
248.40         124.408
248.85        96.75793
249.31        87.84552
249.77         86.2354
250.22        88.50975
250.68        94.08224
251.14        102.6073
251.59        108.1644
252.05        105.0164
252.51        96.17155
252.96        86.30547
253.42        79.95618
253.88        76.71067
254.33        74.90952
254.79        75.24321
255.25        78.04982
255.70        82.30962
256.16         87.4398
256.62        90.99771
257.07        90.54746
257.53        86.99802
257.99        81.21638
258.44        75.44739
258.90        73.20075
259.35        73.43397
259.81         74.7407
260.27        74.82131
260.72        71.48356
261.18        65.69032
261.63         58.5742
262.09        52.11779
262.55        47.91537
263.00        45.89016
263.46        45.27309
263.91        44.94287
264.37        43.99243
264.83        42.21265
265.28        39.85851
265.74         37.5554
266.19        36.00111
266.65        35.43062
267.11        35.43899
267.56        35.48321
268.02        34.92193
268.47        33.63199
268.93        31.84037
269.38        29.88974
269.84         28.5954
270.30        28.17195
270.75        28.38519
271.21        28.78737
271.66        28.70973
272.12        27.98757
272.57        26.85511
273.03        25.67734
273.48        24.91814
273.94        24.70829
274.39         24.8306
274.85        25.05283
275.31         25.0406
275.76        24.69938
276.22         24.1728
276.67        23.57005
277.13        23.12736
277.58        22.85113
278.04        22.68302
278.49        22.50307
278.95        22.19893
279.40        21.72952
279.86        21.20442
280.31        20.65956
280.77        20.24516
281.22        19.95738
281.68        19.76846
282.13        19.65321
282.59        19.60398
283.04         19.5984
283.50        19.66519
283.95        19.72192
284.41        19.65575
284.86        19.45195
285.32        19.15533
285.77        18.90213
286.22        18.95774
286.68        19.32791
287.13        19.89012
287.59         20.4263
288.04        20.60939
288.50        20.40172
288.95        19.91102
289.41        19.32937
289.86        18.84327
290.32        18.57427
290.77        18.45725
291.22         18.5109
291.68        18.72519
292.13        19.08892
292.59        19.61047
293.04        20.25783
293.50        20.96894
293.95        21.70646
294.40        22.45356
294.86        23.19353
295.31          23.922
295.77        24.65414
296.22        25.40202
296.68        26.18714
297.13        27.01128
297.58        27.89671
298.04        28.86103
298.49         29.9422
298.95        31.24008
299.40        32.75418
299.85        34.44728
300.31        36.21554
300.76        37.89277
301.21        39.40656
301.67        40.82032
302.12         42.1429
302.58        43.48293
303.03        44.85326
303.48        46.24686
303.94        47.73994
304.39        49.39417
304.84        51.21627
305.30        53.17657
305.75        55.10703
306.20        56.76907
306.66         58.1328
307.11        59.22403
307.57        60.22721
308.02        61.31739
308.47        62.59184
308.93        63.99697
309.38        65.43628
309.83        66.80251
310.29        68.04682
310.74        69.17889
311.19        70.23378
311.65         71.2632
312.10        72.27554
312.55        73.26349
313.00        74.16779
313.46        74.90259
313.91        75.43613
314.36        75.80887
314.82        76.15239
315.27        76.62453
315.72        77.29396
316.18        78.11959
316.63        78.99097
317.08        79.68212
317.53        80.12893
317.99        80.38023
318.44        80.59761
318.89        81.05056
319.35        81.77627
319.80        82.71761
320.25        83.62791
320.70        84.10005
321.16        84.04852
321.61        83.60674
322.06        83.06894
322.51        82.89983
322.97        83.19312
323.42        83.84835
323.87        84.62113
324.32        85.08819
324.78        85.12022
325.23         84.8879
325.68        84.56865
326.13        84.47533
326.59        84.67946
327.04        85.10049
327.49        85.62917
327.94           86.12
328.39        86.50819
328.85        86.82247
329.30        87.10702
329.75        87.27776
330.20          87.357
330.66        87.36079
331.11        87.43442
331.56        87.74223
332.01        88.33871
332.46        89.15923
332.92        90.12421
333.37        91.24806
333.82          92.389
334.27        93.53411
334.72        94.48343
335.17        94.92517
335.63        94.81856
336.08        94.30858
336.53        93.69224
336.98        93.49814
337.43        93.87067
337.88        94.66033
338.34        95.68435
338.79        96.71366
339.24        97.59261
339.69        98.41428
340.14        99.05899
340.59        99.32007
341.05        99.19926
341.50        98.73902
341.95        98.25007
342.40        98.22679
342.85        98.76798
343.30        99.75112
343.75        100.8745
344.20        101.5904
344.66        101.7455
345.11        101.4779
345.56        101.0402
346.01        100.8176
346.46        100.9164
346.91        101.2165
347.36         101.561
347.81        101.7164
348.26        101.6356
348.72        101.4321
349.17        101.2274
349.62        101.2561
350.07        101.5628
350.52        102.0445
350.97        102.5548
351.42         102.886
351.87        102.9767
352.32        102.8854
352.77        102.6745
353.22        102.4463
353.67        102.2372
354.13        102.0279
354.58        101.7765
355.03        101.4789
355.48        101.1329
355.93        100.7592
356.38        100.3661
356.83        99.95676
357.28        99.53092
357.73        99.08132
358.18        98.61072
358.63        98.12271
359.08        97.62325
359.53        97.12744
359.98        96.61324
360.43        96.04546
360.88        95.41772
361.33        94.72417
361.78        94.04559
362.23        93.51374
362.68        93.15076
363.13        92.93227
363.58        92.69672
364.03        92.18574
364.48          91.359
364.93        90.29266
365.38        89.21812
365.83        88.51338
366.28        88.24989
366.73        88.29296
367.18        88.39203
367.63        88.13874
368.08        87.43786
368.53        86.45097
368.98        85.35303
369.43        84.39899
369.88        83.67484
370.33        83.09737
370.78         82.6597
371.23        82.35893
371.68        82.16691
372.13        82.08956
372.58        82.04334
373.03        81.87383
373.48        81.54587
373.93        81.09911
374.38        80.59969
374.83        80.15928
375.28        79.80749
375.72        79.49299
376.17        79.22769
376.62        79.00546
377.07        78.80429
377.52        78.61326
377.97        78.37549
378.42        77.99765
378.87        77.47872
379.32        76.87766
379.77        76.23897
380.22        75.62087
380.67        75.03902
381.11        74.46478
381.56         73.9537
382.01        73.60261
382.46        73.42681
382.91        73.42218
383.36        73.41988
383.81        73.14906
384.26        72.56984
384.71        71.75446
385.15        70.94569
385.60        70.57313
386.05        70.65779
386.50        71.06041
386.95        71.47002
387.40        71.36556
387.85        70.67881
388.29         69.6223
388.74        68.59873
389.19        67.89785
389.64         67.5677
390.09        67.44724
390.54        67.50191
390.98        67.67725
391.43        67.91309
391.88        68.21552
392.33        68.38758
392.78        68.12791
393.23        67.45599
393.67        66.48151
394.12        65.58797
394.57        65.10091
395.02        65.09652
395.47        65.46739
395.91        66.07819
396.36        66.56023
396.81        66.78602
397.26         66.8196
397.71        66.68479
398.15        66.32166
398.60         65.8469
399.05        65.40844
399.50        65.01778
399.95        64.26294
400.39        63.58679
400.84        63.33797
401.29        63.56236
401.74        63.80344
402.18        63.93333
402.63        63.85348
403.08        63.68597
403.53        63.79819
403.97        64.19873
404.42        64.61896
404.87         64.8728
405.32        64.75151
405.76        64.21681
406.21        63.47955
406.66        62.74237
407.11        62.21678
407.55        62.07519
408.00        62.34647
408.45        62.90374
408.90        63.61842
409.34        64.10526
409.79         63.5569
410.24         62.3273
410.68        61.75522
411.13        61.96516
411.58        62.22225
412.03        62.42485
412.47        62.73291
412.92        63.04154
413.37        63.33177
413.81        63.53236
414.26        63.57169
414.71        63.42713
415.15        63.11421
415.60        62.73428
416.05        62.47264
416.49        62.38764
416.94        62.45946
417.39        62.56848
417.83        62.48778
418.28        62.19043
418.73         61.7601
419.17        61.38749
419.62        61.37919
420.07        61.74691
420.51        62.37207
420.96        63.02836
421.41        63.26797
421.85        62.96739
422.30        62.56651
422.74        62.14495
423.19        61.45969
423.64        60.76088
424.08        61.06226
424.53        62.17242
424.98         62.7677
425.42        62.68304
425.87        62.81609
426.31        63.18534
426.76        63.03699
427.21        62.61408
427.65        62.98628
428.10        64.02843
428.54        64.82257
428.99        65.29155
429.44        65.52917
429.88        65.55766
430.33        66.15861
430.77        66.81655
431.22        65.74194
431.66        63.48117
432.11        62.39401
432.56        62.69117
433.00        63.61394
433.45        64.98577
433.89        66.49048
434.34        66.84311
434.78        68.75732
435.23        64.74342
435.67        63.37961
436.12        65.38166
436.57        66.33926
437.01        66.67115
437.46        67.00751
437.90        67.52892
438.35        66.77345
438.79        67.38457
439.24        67.22139
439.68        67.08974
440.13        66.81703
440.57        66.69276
441.02        67.41801
441.46        68.67671
441.91        69.63088
442.35        69.93265
442.80        69.20382
443.24        67.89893
443.69        68.36162
444.13        70.23438
444.58        70.23171
445.02        68.57762
445.47        68.34596
445.91        69.45803
446.36        69.84845
446.80        69.44862
447.24        69.32651
447.69        69.54393
448.13        69.76299
448.58        69.98756
449.02        70.24941
449.47          70.525
449.91        70.77747
450.36        70.98816
450.80        71.19083
451.25        71.33664
451.69        71.21312
452.13         70.8947
452.58        70.66832
453.02        70.60381
453.47        70.63731
453.91        70.76781
454.36        71.09579
454.80        71.52776
455.24        71.63492
455.69        71.35305
456.13         71.1187
456.58        71.13023
457.02        70.15277
457.46        70.26975
457.91        70.47088
458.35        71.09963
458.79        71.35799
459.24         71.2273
459.68        70.96343
460.13        70.58867
460.57        70.40757
461.01        70.32697
461.46        69.59238
461.90        69.09637
462.34        69.90403
462.79        69.31834
463.23        69.65001
463.68        69.92834
464.12        70.26813
464.56        70.54099
465.01        70.48245
465.45        70.09466
465.89        70.07459
466.34        70.22408
466.78        69.26543
467.22        67.72316
467.67        67.14222
468.11        68.14089
468.55        69.03893
468.99        69.56814
469.44        69.44051
469.88        68.81457
470.32        68.69994
470.77        69.08965
471.21        69.09713
471.65        68.70492
472.10        68.56218
472.54        68.68788
472.98        68.78998
473.42         68.8512
473.87         69.0619
474.31        69.27351
474.75        69.11196
475.20        68.72182
475.64        68.32013
476.08        68.65394
476.52        68.58864
476.97        68.31813
477.41        68.38943
477.85        68.84481
478.29        68.24721
478.74        69.07883
479.18        68.64968
479.62        67.91688
480.06        68.40958
480.50        68.71456
480.95        69.15102
481.39        69.27335
481.83        68.44009
482.27        68.54684
482.72        68.62761
483.16        67.20541
483.60        67.54559
484.04        69.01131
484.48        69.33958
484.93        69.03338
485.37        70.65692
485.81        70.75266
486.25        70.08778
486.69        93.76276
487.14        75.71182
487.58         47.5981
488.02         58.6646
488.46        66.74384
488.90        66.19598
489.34        68.01752
489.79        67.93634
490.23        69.34454
490.67        70.02825
491.11         68.9015
491.55        68.83187
491.99        69.36946
492.43        69.18114
492.88        68.37531
493.32        68.31913
493.76        68.54264
494.20        68.85603
494.64        69.00738
495.08        69.27388
495.52        69.64783
495.96        69.63614
496.41        69.27036
496.85        69.74416
497.29        70.75096
497.73        69.63992
498.17        67.41409
498.61        67.58854
499.05        70.15398
499.49        70.56544
499.93        70.33864
500.37        70.05966
500.82         69.6355
501.26        69.48898
501.70        69.71336
502.14        70.04996
502.58        70.34879
503.02        70.38808
503.46        70.12967
503.90        69.64855
504.34        69.13298
504.78        68.87582
505.22        68.93382
505.66        69.23472
506.10        69.66219
506.54        69.89503
506.98         69.7744
507.42        69.92522
507.86        69.40781
508.30        69.06074
508.74         69.3734
509.18        69.58347
509.62        69.81354
510.06        69.96087
510.50        70.00292
510.94          69.961
511.38        69.89082
511.82        69.89125
512.26        69.98338
512.70        70.12858
513.14         70.2884
513.58        70.40616
514.02         70.4554
514.46        70.45042
514.90        70.40482
515.34        70.32134
515.78        70.20232
516.22         70.1189
516.66        70.07469
517.10        69.90371
517.54         69.6114
517.98        69.82304
518.42        69.69947
518.86        69.90669
519.30        70.17253
519.74        70.55471
520.18        70.94121
520.62        71.11243
521.06        71.05508
521.50        70.89459
521.93        70.70476
522.37        70.54514
522.81        70.46306
523.25        70.46294
523.69        70.53891
524.13        70.66005
524.57        70.80899
525.01        70.99595
525.45        71.17125
525.89        71.25197
526.32        71.21107
526.76        71.06036
527.20        70.85516
527.64        70.70732
528.08        70.66247
528.52        70.64201
528.96        70.56371
529.40        70.49442
529.83        70.45934
530.27        69.73358
530.71        69.79749
531.15        69.69694
531.59        69.87078
532.03        70.22012
532.46        70.66885
532.90        71.05731
533.34        71.30904
533.78        71.46188
534.22        71.51571
534.66         71.4838
535.09        71.37067
535.53        71.19589
535.97         70.9818
536.41        70.79049
536.85        70.64764
537.28        70.55564
537.72        70.50203
538.16        70.46993
538.60         70.4547
539.04        70.40881
539.47        70.34192
539.91        70.45742
540.35        70.67657
540.79        70.69054
541.22        70.52307
541.66        70.50536
542.10        70.64775
542.54        70.72862
542.97        70.72823
543.41         70.8185
543.85        71.00446
544.29        70.92567
544.72        71.12304
545.16        71.02077
545.60          70.786
546.04        70.42508
546.47        70.09113
546.91        70.04627
547.35        70.31115
547.79        70.79932
548.22        71.26848
548.66        71.39158
549.10        71.08238
549.53        70.37357
549.97        69.58585
550.41        69.23321
550.84        69.42053
551.28        69.95078
551.72        70.61042
552.15        71.05595
552.59        71.17298
553.03           71.08
553.46        70.86633
553.90        70.71141
554.34        70.65878
554.77        70.67525
555.21        70.55156
555.65        70.61462
556.08        70.83187
556.52        70.37777
556.96        70.85429
557.39        70.67493
557.83        70.43277
558.27        70.47628
558.70        70.79052
559.14        70.99543
559.57        71.02978
560.01        71.11811
560.45         71.2384
560.88        71.23511
561.32        71.12537
561.75        71.00469
562.19        70.90469
562.63        70.53657
563.06        70.05695
563.50        70.09606
563.93        70.55379
564.37        70.83598
564.80        70.82811
565.24        70.74219
565.68        70.61274
566.11        70.52698
566.55        70.55067
566.98          70.516
567.42        70.46513
567.85        70.64828
568.29        71.04264
568.72        71.10794
569.16        71.00943
569.60        71.35628
570.03        71.80962
570.47        71.65639
570.90        71.20899
571.34         69.5792
571.77        70.28198
572.21        70.47959
572.64        70.05255
573.08        69.18749
573.51        66.27028
573.95        68.80666
574.38        72.97168
574.82        71.12892
575.25        70.56863
575.69          68.241
576.12        67.19861
576.56        66.61301
576.99        67.88149
577.42        70.94113
577.86        70.99113
578.29        70.23118
578.73        74.02724
579.16        68.34241
579.60        62.38916
580.03        65.24162
580.47        69.50348
580.90        71.12672
581.33        69.93138
581.77        68.92304
582.20        75.34811
582.64        75.13435
583.07        64.28635
583.51        63.08979
583.94        62.02361
584.37        64.96207
584.81        68.41088
585.24        71.99924
585.68        73.47011
586.11        72.14839
586.54        67.04848
586.98        65.21021
587.41        65.85936
587.85        69.40488
588.28        71.61951
588.71        68.29099
589.15        66.13607
589.58        67.71657
590.01         67.9912
590.45        69.34308
590.88        69.90309
591.31        69.13459
591.75        68.55595
592.18        68.74532
592.61        70.58147
593.05         70.8698
593.48        73.42442
593.91        73.98609
594.35        68.43089
594.78        66.58789
595.21        66.63674
595.65        69.67305
596.08        72.54626
596.51        69.33856
596.94        67.68367
597.38        68.19607
597.81        70.62092
598.24        72.82381
598.68        70.93118
599.11        69.85429
599.54        72.70226
599.97        74.13869
600.41        69.13005
600.84        69.36879
601.27        71.02315
601.70        69.72582
602.14        69.95468
602.57        68.94614
603.00        69.54253
603.43         70.9314
603.87        72.28056
604.30         71.8643
604.73        70.01875
605.16         68.7831
605.60        69.65685
606.03        70.50076
606.46         71.4994
606.89         71.3708
607.32        69.24982
607.76        69.09451
608.19        71.40727
608.62        70.60995
609.05        69.27023
609.48        69.86687
609.92        70.00745
610.35         69.0331
610.78         71.5966
611.21        71.99886
611.64        68.98616
612.07        69.77964
612.50        70.30753
612.94        70.80445
613.37        70.16384
613.80        70.42027
614.23        70.70668
614.66        70.59101
615.09        70.82418
615.52        70.83386
615.96        70.73371
616.39        70.83076
616.82        69.93938
617.25        69.60435
617.68        70.37605
618.11        71.02786
618.54        71.52615
618.97        71.10423
619.40        70.13541
619.84        70.09338
620.27        71.11036
620.70        71.62542
621.13        71.56326
621.56        71.01485
621.99        70.26234
622.42        71.09385
622.85         72.9746
623.28        72.59523
623.71        71.89084
624.14         72.0377
624.57        71.19609
625.00        71.20825
625.43        71.42338
625.86        70.95321
626.29        71.07817
626.72        71.80491
627.15        71.46699
627.58        71.61876
628.01        71.63779
628.44        71.90481
628.87         71.8447
629.30        72.03265
629.73        72.23371
630.16        72.36826
630.59        72.13192
631.02        71.89063
631.45        71.64096
631.88        71.45444
632.31        71.35962
632.74         71.3443
633.17        71.38815
633.60        71.40788
634.03         71.3776
634.46        71.39811
634.89        71.47859
635.32         71.2876
635.75        71.31838
636.18        71.30102
636.61         71.3743
637.04        71.43572
637.47        71.48052
637.89        71.56859
638.32        71.64913
638.75        71.66926
639.18        71.61902
639.61        71.52435
640.04        71.40074
640.47        71.27259
640.90        71.15891
641.33        71.05051
641.76        70.95136
642.18        70.97022
642.61        71.10823
643.04        71.17284
643.47        71.08456
643.90        71.63929
644.33        71.34328
644.76        71.41044
645.18        71.40424
645.61        71.35295
646.04        71.25182
646.47        71.08624
646.90        70.95959
647.33        70.99028
647.75        71.21228
648.18        71.61891
648.61        71.97618
649.04        71.94358
649.47        71.46009
649.89        70.46805
650.32        69.44109
650.75        69.25571
651.18        69.91465
651.61        70.80478
652.03         71.4573
652.46        71.46149
652.89        71.19931
653.32         70.5362
653.74         69.7744
654.17        71.63421
654.60        72.24147
655.03        69.55505
655.46        70.52442
655.88        74.72008
656.31        78.73468
656.74        173.1789
657.16        113.0111
657.59        39.90459
658.02        30.54893
658.45        53.43979
658.87        68.08195
659.30        72.15143
659.73        70.77696
660.15        67.94704
660.58        70.96805
661.01        72.74852
661.44         70.3746
661.86        69.64789
662.29        69.79298
662.72        70.60857
663.14        71.84977
663.57        71.88956
664.00        70.93718
664.42        70.75883
664.85        71.42111
665.27        71.74809
665.70        71.57325
666.13        71.31733
666.55        70.98478
666.98        70.45744
667.41         69.9198
667.83        69.72546
668.26         69.9399
668.69        70.42113
669.11         70.9228
669.54        71.37178
669.96        71.01065
670.39        70.56286
670.82        70.04764
671.24        69.68553
671.67        69.67166
672.09        70.22832
672.52        70.99641
672.94        71.59953
673.37        70.77719
673.80        70.42416
674.22        70.30914
674.65        70.19085
675.07        70.08663
675.50        70.00874
675.92        69.98418
676.35        70.08932
676.77        70.31815
677.20        70.56618
677.62        70.78741
678.05        70.91512
678.47        70.91824
678.90        70.82531
679.32        70.69543
679.75        70.49619
680.17        70.53269
680.60        70.56238
681.02        70.59918
681.45        70.50713
681.87        70.28096
682.30        69.96169
682.72        69.67506
683.15        69.63815
683.57        69.89982
684.00        70.29093
684.42        70.81319
684.85         71.0873
685.27        71.08274
685.70        70.88306
686.12        70.57981
686.54        70.36924
686.97        70.29568
687.39        70.31843
687.82        70.37265
688.24        70.41658
688.66        70.40576
689.09        70.34718
689.51        70.30401
689.94        70.35878
690.36        70.53026
690.78        70.77467
691.21        71.00468
691.63        71.09492
692.06        71.02477
692.48         70.8446
692.90         70.6581
693.33        70.61501
693.75        70.74757
694.17        71.00717
694.60         71.3132
695.02        71.50841
695.44        71.51026
695.87        71.55481
696.29        71.66048
696.71        71.26274
697.14        70.59925
697.56          70.967
697.98        72.11106
698.41        71.95741
698.83        71.24053
699.25        70.87395
699.68        71.10685
700.10        71.14513
700.52        70.98421
700.94        71.03262
701.37        71.25609
701.79        71.49744
702.21        71.69249
702.64        71.89252
703.06        72.01378
703.48        71.91676
703.90        71.60353
704.33          71.119
704.75        70.60966
705.17         70.3976
705.59        70.56174
706.01        70.90167
706.44        71.23943
706.86        71.89867
707.28        71.84658
707.70        71.88669
708.12        71.80834
708.55        71.73576
708.97         71.6797
709.39        71.61099
709.81        71.55277
710.23        71.53431
710.66        71.56353
711.08        71.67716
711.50        71.79153
711.92        71.78259
712.34        71.63041
712.76        71.35228
713.19        71.08923
713.61        71.10172
714.03        71.41783
714.45        71.95916
714.87        72.48931
715.29        72.63062
715.71        72.31414
716.13        71.65965
716.56        70.92252
716.98        70.54631
717.40        70.63876
717.82         71.0692
718.24        71.62916
718.66        71.96062
719.08        71.95757
719.50        71.73694
719.92        71.42091
720.34        71.21954
720.76        71.20038
721.19        71.17031
721.61        71.32157
722.03        71.47382
722.45        71.66145
722.87        71.89195
723.29        72.12148
723.71        72.26239
724.13        72.29134
724.55        72.22431
724.97        72.11021
725.39        72.02597
725.81         71.9938
726.23        72.02086
726.65        72.09124
727.07        72.02441
727.49        72.05273
727.91        72.01809
728.33        71.99821
728.75        71.99478
729.17        72.01286
729.59        72.03073
730.01        72.08851
730.43        72.25133
730.85        72.52199
731.27        72.90317
731.69        73.26327
732.10        73.37539
732.52         73.2084
732.94        72.83327
733.36        72.44553
733.78        72.35547
734.20        72.64883
734.62        73.04204
735.04        74.17746
735.46         74.1206
735.88        73.36755
736.30        73.58295
736.72        74.74081
737.13         75.1838
737.55        74.67471
737.97        74.62303
738.39        75.01418
738.81         74.2793
739.23        72.88281
739.65        73.55396
740.06        75.81978
740.48        76.06674
740.90        74.39502
741.32        73.74827
741.74        74.35249
742.16        74.68301
742.57        74.75993
742.99        75.40254
743.41         76.4114
743.83        77.01357
744.25        77.08195
744.67        76.80889
745.08        76.41463
745.50        76.25846
745.92        76.45764
746.34        76.89126
746.75        77.39903
747.17        77.70835
747.59        77.76636
748.01         77.6575
748.42        77.56297
748.84        77.75318
749.26        78.28704
749.68        79.03194
750.09        79.78837
750.51        80.26594
750.93        80.37953
751.35        80.10089
751.76        79.60176
752.18        79.40682
752.60        79.51427
753.01        79.43892
753.43        79.22597
753.85        79.36559
754.27        79.88438
754.68         80.5521
755.10        81.21124
755.52         81.7654
755.93        82.12762
756.35        82.24915
756.77        82.20417
757.18        82.14034
757.60         82.1167
758.02        82.24058
758.43         82.2025
758.85        82.18556
759.26        80.05011
759.68        80.26656
760.10        81.80862
760.51        82.50207
760.93        82.04731
761.34        80.75708
761.76        80.64796
762.18         80.0704
762.59        79.75798
763.01        80.06164
763.42        80.94118
763.84        81.59429
764.26        81.90069
764.67         82.0929
765.09        82.12038
765.50        82.06287
765.92         81.8182
766.33        80.56988
766.75        78.86292
767.16        78.40786
767.58        79.35568
768.00        80.91422
768.41        82.68336
768.83        83.98863
769.24        84.29737
769.66        83.60726
770.07        82.36587
770.49        80.62774
770.90        78.99269
771.32        79.90536
771.73         82.6229
772.15        82.30109
772.56        79.36302
772.97        78.72526
773.39        80.33932
773.80        80.89285
774.22        80.17455
774.63        80.10453
775.05        80.64072
775.46        80.95663
775.88        80.94627
776.29        80.81225
776.70        80.62952
777.12        80.57076
777.53        80.69258
777.95        80.89274
778.36        81.04121
778.77        80.91657
779.19        80.52186
779.60        79.92771
780.02        79.39478
780.43        79.37421
780.84          79.987
781.26        80.75207
781.67        81.48357
782.09        82.53671
782.50        83.43287
782.91        82.37231
783.33        80.08689
783.74        79.33101
784.15        80.27425
784.57        81.11329
784.98        81.46161
785.39        81.58437
785.81        81.36635
786.22        80.61375
786.63        79.74085
787.04        79.49998
787.46        79.99168
787.87        80.96445
788.28        82.06937
788.70        82.71254
789.11        82.72598
789.52        82.31776
789.93        81.72596
790.35        81.26815
790.76        81.05626
791.17        81.03712
791.58        81.14654
792.00        81.23279
792.41         81.2442
792.82        81.27376
793.23        81.41692
793.65        81.37096
794.06        81.28371
794.47        82.21058
794.88        83.51308
795.29         82.8998
795.71        80.66207
796.12        78.74358
796.53        77.73312
796.94        77.54832
797.35        78.21604
797.76        79.43711
798.18        80.65638
798.59        81.45674
799.00        81.52236
799.41        80.68513
799.82        79.40233
800.23         78.6747
800.64        78.71291
801.06         79.1382
801.47        79.79926
801.88        80.33179
802.29        80.58582
802.70        80.70837
803.11        80.72118
803.52        80.62698
803.93        80.46468
804.34        80.19318
804.75        79.92282
805.17        79.90559
805.58        80.22016
805.99        80.60953
806.40        80.90827
806.81         81.2999
807.22        81.48133
807.63        80.48074
808.04        78.77073
808.45        77.99418
808.86         78.3279
809.27        78.99723
809.68         79.6797
810.09        80.09612
810.50        80.07595
810.91        79.72178
811.32        79.24628
811.73        78.99237
812.14        79.05017
812.55         79.2725
812.96        79.58549
813.37        79.85664
813.78        80.02076
814.19        80.17695
814.60        80.20213
815.01        79.89093
815.42        79.24334
815.83        78.28093
816.24        77.37602
816.65        77.18395
817.05        77.88381
817.46        79.25391
817.87        80.73467
818.28        81.31418
818.69        80.72952
819.10        79.23218
819.51        77.50042
819.92        76.69053
820.33        77.10323
820.74         78.3925
821.14        79.91956
821.55        80.53672
821.96         79.9936
822.37         78.6931
822.78         77.1958
823.19        76.32329
823.60        76.30001
824.00        76.90362
824.41        77.77263
824.82        78.41785
825.23        78.60767
825.64        78.51778
826.04        78.26527
826.45         78.0053
826.86         77.7975
827.27        77.55441
827.68        77.29416
828.08        77.10702
828.49         76.9587
828.90        76.92166
829.31         76.9447
829.72        76.90486
830.12         76.8007
830.53        76.63324
830.94        76.55593
831.35        76.77639
831.75        77.36346
832.16        78.19142
832.57        79.07904
832.97        79.63997
833.38        79.68417
833.79        79.31944
834.20        78.80762
834.60        78.54652
835.01        78.65973
835.42        79.03354
835.82        79.43533
836.23        79.38683
836.64         78.8269
837.04          77.935
837.45        77.03474
837.86        76.63635
838.26        76.86153
838.67        77.50515
839.08        78.30374
839.48        78.77817
839.89        78.74097
840.29        78.37701
840.70        77.81876
841.11         77.2443
841.51        76.74773
841.92        76.24242
842.33         75.8582
842.73        75.82883
843.14        76.13885
843.54        76.77076
843.95        77.41907
844.35        77.62408
844.76        77.26889
845.17         76.5106
845.57        75.63967
845.98        75.11787
846.38        75.06308
846.79        75.31306
847.19        75.74004
847.60        76.01964
848.00        76.08104
848.41        76.01225
848.81        75.89038
849.22        75.74715
849.62        75.66064
850.03        75.59515
850.43        75.64069
850.84        75.88783
851.24        76.38032
851.65        76.91315
852.05        77.50977
852.46        78.02155
852.86        78.40173
853.27        78.73375
853.67         78.6692
854.07        77.79803
854.48        76.20996
854.88        74.06142
855.29        72.09839
855.69        71.39403
856.10         72.1369
856.50        74.22614
856.90        76.91361
857.31        78.45689
857.71        78.31855
858.12        76.92313
858.52        75.13758
858.92        74.11952
859.33        74.11845
859.73        74.82951
860.13        75.97227
860.54        76.94328
860.94        77.54182
861.34        77.91611
861.75         78.1365
862.15        78.40401
862.55        78.74051
862.96        79.03058
863.36        79.26555
863.76        79.42316
864.17        79.49372
864.57        79.55831
864.97        79.63615
865.38        79.72918
865.78        79.88854
866.18        80.03728
866.58        80.19669
866.99        80.39234
867.39        80.67783
867.79        81.07892
868.19        81.39245
868.60         81.2327
869.00        80.55321
869.40         79.4752
869.80        78.59626
870.21        78.83289
870.61        80.43931
871.01        83.11714
871.41        86.04433
871.81        87.81446
872.22        88.03277
872.62        87.08542
873.02        85.73409
873.42         85.3352
873.82        86.05761
874.22        87.25428
874.63        88.51879
875.03        89.02657
875.43        88.39908
875.83        87.72986
876.23        86.09345
876.63        85.54516
877.03        86.13664
877.44        88.10596
877.84        102.5112
878.24        95.58315
878.64        95.58498
879.04        94.62022
879.44        90.95692
879.84        88.88897
880.24        91.74711
880.64        93.34352
881.04          94.143
881.44        94.44828
881.84        93.76968
882.24        92.40369
882.65        91.19726
883.05        90.95502
883.45        91.83372
883.85        93.78998
884.25        96.16032
884.65        97.57847
885.05        97.60036
885.45         96.6403
885.85        95.44273
886.25        95.05198
886.65        95.68106
887.05        96.98904
887.45        98.45664
887.85        99.16154
888.25        98.82743
888.65         97.8242
889.04        96.57413
889.44        95.76292
889.84         95.5631
890.24        95.69322
890.64         96.0418
891.04        96.46755
891.44        96.86476
891.84        97.32777
892.24        97.59978
892.64        97.19763
893.04        96.15128
893.44        94.73181
893.83        93.45481
894.23        93.07778
894.63        93.71104
895.03        95.05547
895.43        96.89117
895.83        98.75827
896.23        100.3334
896.63        101.6865
897.02        102.3809
897.42        101.7629
897.82        99.87627
898.22        97.02561
898.62        94.13078
899.01        92.53375
899.41         92.5462
899.81        93.76215
900.21        95.56389
900.61         96.9074
901.00        97.42524
901.40        97.38786
901.80        97.05258
902.20        96.83112
902.59        96.85751
902.99        96.97204
903.39        96.99546
903.79        96.66913
904.18         95.9865
904.58        95.15968
904.98        94.52794
905.38        94.58019
905.77        95.34206
906.17        96.55257
906.57        97.87146
906.96        98.85226
907.36        99.29353
907.76        99.35657
908.15        99.00866
908.55        98.10033
908.95         96.7544
909.34         95.0005
909.74         93.3379
910.14        92.37377
910.53        92.27244
910.93        92.95449
911.33         94.0563
911.72        94.87404
912.12        95.10945
912.52         94.9336
912.91        94.66523
913.31        94.73171
913.70         95.2653
914.10        96.13196
914.49         97.0415
914.89        97.19683
915.29        96.36779
915.68        94.83078
916.08        93.40533
916.47        92.77578
916.87           93.04
917.26        93.98684
917.66        95.02058
918.05         95.2306
918.45        94.40701
918.84        92.89202
919.24        91.40453
919.64        90.97037
920.03        91.83356
920.42        93.66086
920.82        95.80499
921.21        97.26826
921.61        97.55752
922.00        97.03918
922.40         96.0395
922.79        95.00467
923.19        94.15392
923.58        93.28342
923.98        92.40909
924.37        91.88544
924.77         91.9641
925.16        90.97707
925.55        92.01881
925.95        92.79802
926.34        94.15666
926.74        95.70757
927.13        97.11885
927.52        97.57925
927.92        97.02856
928.31        95.76488
928.70         94.1086
929.10        92.62927
929.49        91.50139
929.89        90.60348
930.28        90.25104
930.67        90.96049
931.07        92.60818
931.46        95.08275
931.85         97.4161
932.24         98.1608
932.64        97.05269
933.03        94.35526
933.42        90.88524
933.82        88.50532
934.21        87.81051
934.60         88.3316
934.99        89.29246
935.39         89.8324
935.78        89.81054
936.17        89.23341
936.56        87.99395
936.96        88.61752
937.35        87.74385
937.74        87.96764
938.13        88.30786
938.53        89.12276
938.92        90.43945
939.31        92.35452
939.70        94.28799
940.09        94.64027
940.49        93.00216
940.88        90.10484
941.27        87.23365
941.66        85.88148
942.05        86.20851
942.44          87.717
942.84        89.82169
943.23        91.54763
943.62        92.38596
944.01        92.59074
944.40        92.28069
944.79        91.63515
945.18        90.73804
945.57        89.44007
945.97        87.84057
946.36        86.42776
946.75        85.57803
947.14        85.29303
947.53        85.44202
947.92        85.79565
948.31        86.28478
948.70        87.01027
949.09        87.80863
949.48        88.26942
949.87        88.21677
950.26        87.66134
950.65        87.02546
951.04        87.01015
951.43        87.74294
951.82         89.0322
952.21           90.29
952.60         90.5574
952.99        89.62087
953.38        87.79189
953.77        85.77512
954.16        84.57864
954.55        84.43754
954.94        85.15009
955.33          86.031
955.72        85.92857
956.11        84.57996
956.50        82.27982
956.89        80.06194
957.28          79.792
957.66        81.99832
958.05        85.83516
958.44        89.85897
958.83        91.93705
959.22        91.58212
959.61        89.39435
960.00        86.45715
960.39        84.55661
960.78        84.24518
961.16        85.05027
961.55        86.20324
961.94        86.38556
962.33        85.26218
962.72        83.40202
963.11        81.54828
963.49        80.61643
963.88        80.77647
964.27         81.7706
964.66        83.09704
965.04        83.75003
965.43        83.27993
965.82        82.11089
966.21        80.91339
966.60        80.54674
966.98         81.1563
967.37         82.3867
967.76        83.77709
968.15        84.44168
968.53        84.08974
968.92        83.03712
969.31        81.69427
969.69        80.54687
970.08        79.76028
970.47        79.22401
970.86        78.86742
971.24        78.59551
971.63        78.37642
972.02        78.25755
972.40        78.41507
972.79        79.08068
973.17        80.36011
973.56        82.02727
973.95        83.61279
974.33        84.23723
974.72         83.6048
975.11        82.00456
975.49         80.2088
975.88        79.31362
976.26        79.47014
976.65        80.46982
977.04          81.637
977.42        81.35044
977.81        79.15743
978.19        75.80639
978.58        72.97609
978.96        72.29615
979.35        73.97891
979.74        77.64541
980.12        82.57291
980.51        85.92942
980.89        86.76973
981.28         85.7616
981.66         83.8799
982.05        82.41267
982.43         81.6785
982.82        81.25274
983.20        81.31571
983.59        82.26766
983.97        84.19095
984.35        87.13002
984.74        90.23721
985.12        91.78232
985.51        90.69022
985.89        87.31094
986.28        82.66212
986.66         78.4902
987.04        75.83506
987.43        74.50198
987.81        74.03802
988.20        73.79216
988.58        73.50023
988.96        73.16768
989.35        73.43333
989.73         75.9055
990.12        80.42023
990.50        85.54646
990.88        88.58687
991.27        88.04269
991.65        84.53663
992.03        78.59687
992.42        72.34811
992.80        69.72354
993.18         71.7585
993.56         76.2807
993.95        81.16994
994.33        84.50433
994.71        85.83283
995.10         86.1536
995.48        85.41307
995.86        83.27546
996.24        79.77924
996.63        74.52193
997.01        68.81719
997.39        66.65862
997.77        69.72552
998.15         77.1549
998.54        85.20377
998.92        88.69511
999.30        86.13918
999.68        78.78889
1000.06        68.76968
1000.45         61.4267
1000.83        59.03749
1001.21        59.87874
1001.59        62.46811
1001.97        65.23928
1002.35        67.73605
1002.73        70.95444
1003.12        73.90226
1003.50        73.44102
1003.88        68.63728
1004.26        61.25418
1004.64         54.5823
1005.02        51.34318
1005.40        51.67296
1005.78        55.41944
1006.16        63.55846
1006.54        73.20014
1006.92        78.73283
1007.30         80.2343
1007.69        79.78177
1008.07        79.38538
1008.45        79.42107
1008.83        79.19379
1009.21        77.61764
1009.59        70.39258
1009.97        46.19915
1010.35        8.195666
1010.73        9.562261
1011.11        29.13635
1011.49        43.97753
1011.86         55.7681
1012.24        62.23398
1012.62        64.07995
1013.00        62.86342
1013.38        58.77754
1013.76        53.76216
1014.14        55.50271
1014.52        70.53905
1014.90        100.9943
1015.28        139.0302
1015.66        160.3811
1016.04        150.1049
1016.41        112.7346
1016.79        68.50182
1017.17        40.78153
1017.55        31.54705
1017.93        30.59971
1018.31        33.74718
1018.69         39.7622
1019.06        48.69218
1019.44        62.48573
1019.82        83.57657
1020.20        108.5617
1020.58        130.7059
1020.95        141.9401
1021.33        124.2194
1021.71        351.5996
1022.09        155.5609
1022.46        144.4173
1022.84        142.5132
1023.22        148.1714
1023.60         169.241
1023.97        378.1615
1024.35        25.02079
1024.73        64.86008
