SpectraSmart Spectrum 2.9.0.0
--------- Device Information -----------
Spectrum Name :  反射率_0
Saving Time :  2024/04/26 01:43:52
Spectro-Module Model Name : SE2030-DUVN
Spectro-Module Serial Number : OS361AC55029948
Wavelength Start : 200
Wavelength End : 1025
Wavelength Unit : Wavelength(nm)
Spectrum Unit : Reflectance(%)
-----------Spectrum Setting ------------
Integration Time : 20ms
Average : 10
Boxcar : 0
Background removal :  enabled
linearity correction :  enabled
SC :  disabled
Intensity correction :  disabled
DWT denoise :  enabled
savitzky-golay :  disabled
FFT :  disabled
Running average :  disabled
Kalman :  disabled
High pass :  disabled
---------------BEGIN--------------------
Wavelength(nm)             Reflectance(%)
200.29               0
200.75        90.90728
201.21        83.48052
201.67         75.0022
202.13        69.40702
202.58        67.14761
203.04        67.54549
203.50        69.40307
203.96        70.61656
204.42        70.56761
204.88        69.96346
205.34        69.51572
205.80        70.04195
206.26        72.10464
206.72        76.83276
207.18        86.16315
207.64        95.19868
208.10        91.21664
208.55        80.35597
209.01        73.30347
209.47        71.36526
209.93        72.54502
210.39        76.10677
210.85        79.62211
211.31        78.03379
211.77        70.37833
212.23        58.80384
212.69        48.48243
213.14        47.37099
213.60        56.47916
214.06         73.2238
214.52        91.65871
214.98         102.606
215.44        103.6885
215.90        98.01495
216.36        89.05193
216.81        81.63445
217.27         77.7075
217.73        75.82832
218.19        74.62882
218.65        72.29364
219.11        67.90427
219.57        60.98904
220.02        52.70845
220.48        49.06223
220.94        52.74153
221.40        61.92958
221.86        69.16833
222.32        67.07692
222.77        57.29242
223.23        44.57136
223.69        34.31515
224.15        32.05833
224.61        37.00219
225.06        46.27155
225.52        55.66829
225.98        59.71347
226.44         57.4746
226.90        51.27487
227.36        44.15567
227.81        40.26086
228.27        40.73379
228.73        43.81838
229.19        47.88989
229.65        50.59501
230.10        51.32643
230.56        51.12143
231.02        50.53616
231.48        50.10829
231.93        49.95443
232.39        49.79114
232.85        49.68615
233.31        49.87682
233.77        50.36541
234.22        51.18833
234.68        51.96926
235.14         51.8935
235.60        50.80819
236.05        48.99432
236.51        47.17748
236.97        46.33749
237.43        46.76417
237.88        48.49984
238.34        51.10692
238.80        53.29918
239.26        54.23206
239.71        54.09422
240.17        53.53871
240.63        54.45828
241.08        57.38723
241.54         61.5448
242.00        65.85938
242.46        69.16996
242.91        71.69085
243.37        74.13506
243.83        79.94167
244.28        105.6783
244.74        149.5902
245.20        142.8247
245.66        128.3988
246.11        124.9494
246.57        129.5426
247.03        146.6875
247.48        195.8111
247.94        165.5748
248.40        111.8376
248.85        95.93924
249.31        91.43671
249.77        90.70721
250.22         91.8765
250.68        94.75491
251.14        99.10979
251.59        101.6302
252.05        99.40302
252.51        94.22691
252.96        88.56222
253.42        85.19631
253.88        83.69711
254.33         83.0002
254.79        83.77821
255.25        86.30943
255.70        89.77021
256.16         93.7534
256.62        96.35753
257.07        95.66174
257.53        92.52972
257.99         87.6349
258.44        82.64683
258.90        80.47899
259.35        80.17101
259.81        80.68884
260.27        80.26129
260.72        77.18983
261.18        72.29604
261.63        66.33884
262.09        60.82103
262.55        56.75295
263.00        54.12447
263.46        52.54389
263.91        51.28934
264.37        49.90454
264.83        48.14823
265.28         46.0969
265.74        44.08749
266.19         42.3699
266.65        41.19972
267.11        40.41323
267.56        39.75587
268.02         38.9128
268.47         37.7568
268.93        36.37706
269.38         34.9461
269.84         33.9758
270.30        33.57366
270.75        33.60706
271.21        33.70886
271.66        33.33066
272.12        32.36186
272.57        30.98746
273.03        29.61905
273.48        28.79062
273.94        28.63581
274.39        28.92485
274.85        29.32512
275.31        29.33643
275.76         28.8391
276.22        28.02873
276.67         27.1331
277.13        26.57651
277.58        26.38373
278.04         26.4278
278.49        26.45758
278.95         26.1925
279.40        25.56136
279.86        24.74446
280.31         23.8799
280.77        23.27705
281.22        22.96189
281.68        22.85579
282.13         22.8477
282.59        22.81741
283.04        22.71996
283.50        22.63233
283.95        22.53239
284.41        22.40326
284.86        22.24158
285.32        22.04569
285.77        21.90173
286.22        22.00652
286.68        22.35162
287.13        22.85022
287.59        23.29107
288.04        23.34929
288.50        23.00577
288.95        22.36244
289.41        21.67207
289.86        21.20938
290.32        21.09587
290.77        21.22531
291.22        21.51862
291.68        21.81404
292.13        22.07398
292.59        22.36686
293.04        22.74224
293.50         23.2715
293.95        23.95965
294.40        24.74802
294.86         25.5994
295.31        26.47617
295.77        27.37017
296.22        28.30019
296.68        29.25056
297.13        30.15922
297.58        31.03416
298.04        31.90392
298.49        32.84482
298.95        34.02739
299.40        35.46675
299.85        37.10285
300.31        38.81077
300.76        40.38978
301.21        41.75764
301.67        42.99707
302.12        44.11734
302.58        45.22501
303.03        46.33998
303.48        47.46569
303.94        48.69706
304.39        50.12458
304.84        51.76224
305.30        53.56791
305.75        55.37396
306.20        56.94189
306.66        58.23357
307.11        59.27324
307.57        60.21397
308.02        61.18095
308.47        62.27128
308.93        63.45525
309.38        64.68111
309.83        65.91549
310.29        67.12406
310.74        68.28242
311.19        69.40407
311.65        70.50751
312.10        71.58073
312.55        72.62597
313.00        73.54286
313.46        74.18013
313.91        74.50606
314.36         74.5864
314.82        74.63685
315.27        74.94561
315.72        75.60517
316.18        76.53564
316.63        77.55326
317.08        78.30649
317.53        78.69543
317.99        78.80955
318.44        78.85245
318.89        79.16022
319.35        79.79244
319.80        80.66475
320.25         81.5285
320.70        81.97672
321.16        81.91861
321.61        81.49515
322.06        80.97427
322.51        80.77426
322.97        80.98145
323.42        81.50204
323.87        82.13278
324.32        82.52578
324.78        82.56951
325.23        82.41042
325.68        82.17455
326.13        82.08946
326.59        82.20449
327.04        82.46477
327.49        82.80689
327.94        83.15855
328.39        83.48463
328.85        83.80461
329.30        84.13228
329.75        84.33745
330.20        84.42254
330.66        84.40224
331.11        84.46397
331.56          84.842
332.01        85.59667
332.46        86.64601
332.92        87.79847
333.37        88.86576
333.82         89.6655
334.27        90.24639
334.72        90.59814
335.17        90.73597
335.63        90.70421
336.08        90.54275
336.53         90.3776
336.98        90.45351
337.43          90.829
337.88        91.44852
338.34        92.18617
338.79        92.90611
339.24        93.50461
339.69        94.03263
340.14        94.44366
340.59         94.6657
341.05        94.71132
341.50        94.58851
341.95        94.45496
342.40        94.56819
342.85        94.98341
343.30        95.64371
343.75        96.37728
344.20        96.87268
344.66         97.0443
345.11        96.94817
345.56        96.74417
346.01        96.67767
346.46        96.81178
346.91        97.07954
347.36        97.34148
347.81         97.3848
348.26        97.18041
348.72        96.82951
349.17        96.48651
349.62        96.45106
350.07         96.7749
350.52        97.33315
350.97        97.93273
351.42        98.28706
351.87        98.31904
352.32        98.12192
352.77         97.7763
353.22        97.41286
353.67        97.09115
354.13         96.7868
354.58        96.50162
355.03        96.29824
355.48        96.17533
355.93        96.12398
356.38        96.07538
356.83           95.91
357.28        95.59142
357.73        95.13943
358.18         94.6011
358.63         94.0586
359.08         93.5428
359.53        93.04631
359.98         92.5344
360.43        91.94963
360.88        91.28639
361.33        90.56556
361.78        89.87235
362.23        89.34071
362.68        88.99178
363.13        88.78179
363.58        88.57946
364.03        88.17563
364.48        87.52923
364.93        86.70966
365.38        85.84667
365.83        85.15529
366.28        84.68639
366.73        84.35468
367.18        84.08408
367.63        83.75307
368.08        83.32233
368.53        82.85654
368.98        82.33155
369.43        81.69441
369.88        80.95745
370.33        80.13065
370.78        79.35249
371.23        78.86274
371.68        78.70934
372.13        78.82337
372.58        79.02914
373.03        79.01929
373.48        78.70985
373.93        78.19741
374.38        77.60615
374.83        77.12911
375.28        76.81573
375.72         76.5768
376.17        76.39134
376.62        76.20501
377.07        75.98558
377.52        75.75423
377.97        75.46667
378.42         75.0455
378.87        74.50107
379.32        73.87981
379.77        73.25937
380.22        72.74939
380.67        72.36338
381.11        72.05618
381.56        71.80129
382.01        71.55938
382.46        71.31632
382.91        71.10565
383.36        70.86096
383.81        70.47915
384.26        69.96121
384.71        69.33082
385.15        68.73709
385.60        68.46725
386.05        68.51533
386.50        68.79032
386.95        69.05992
387.40         68.9332
387.85        68.36474
388.29        67.50579
388.74        66.68429
389.19        66.10493
389.64        65.80759
390.09        65.67837
390.54        65.69777
390.98        65.83122
391.43        66.02199
391.88        66.25787
392.33        66.39545
392.78        66.14542
393.23        65.51378
393.67        64.79402
394.12        64.22633
394.57        63.51009
395.02        62.91235
395.47        63.35615
395.91        64.64237
396.36        65.36569
396.81        65.33743
397.26        65.24265
397.71         65.1362
398.15        64.77618
398.60        64.29335
399.05        63.75827
399.50        63.24184
399.95        62.66599
400.39        62.33118
400.84        62.03234
401.29         61.8461
401.74          61.773
402.18        61.82296
402.63        61.93153
403.08        62.11763
403.53        62.40122
403.97        62.74986
404.42         63.1169
404.87        63.36201
405.32        63.24074
405.76        62.72661
406.21        62.02647
406.66        61.32349
407.11        60.80684
407.55        60.63171
408.00        60.83716
408.45        61.31164
408.90        61.90289
409.34        62.29297
409.79         61.8573
410.24        60.89552
410.68        60.49826
411.13        60.76703
411.58        61.09568
412.03        61.37533
412.47        61.68853
412.92        61.92971
413.37        62.10869
413.81        62.17589
414.26        62.09404
414.71        61.85428
415.15         61.4612
415.60        61.03556
416.05        60.79013
416.49        60.78138
416.94        60.98573
417.39        61.22237
417.83        61.16196
418.28        60.75924
418.73        60.12693
419.17          59.547
419.62        59.46387
420.07        59.91528
420.51        60.73817
420.96        61.61895
421.41         61.9727
421.85        61.64493
422.30        61.09264
422.74        60.47368
423.19        59.74107
423.64        59.12116
424.08        59.37238
424.53        60.33255
424.98        60.92636
425.42        60.99408
425.87        61.31676
426.31        61.82517
426.76        61.62443
427.21        60.96918
427.65        61.10891
428.10        61.97018
428.54        62.60838
428.99        62.97913
429.44        63.15129
429.88        63.16534
430.33        63.95669
430.77        64.89919
431.22        63.83114
431.66        61.33869
432.11        60.12714
432.56        60.47701
433.00         61.3796
433.45         62.6241
433.89        64.29222
434.34        65.11381
434.78        66.23688
435.23        62.60204
435.67        60.98985
436.12        62.95758
436.57        64.08403
437.01        64.78734
437.46        65.12501
437.90        65.21503
438.35        64.95638
438.79        65.28412
439.24        65.18008
439.68        64.96535
440.13         64.5699
440.57        64.29156
441.02        65.05824
441.46        66.49551
441.91        67.16074
442.35        66.90278
442.80        66.24242
443.24        65.50201
443.69        66.06866
444.13        67.59505
444.58        67.53915
445.02        66.11414
445.47        65.97462
445.91        67.02396
446.36        67.29384
446.80         66.7081
447.24        66.61973
447.69        66.56119
448.13        66.79179
448.58        67.15541
449.02        67.66816
449.47        68.20433
449.91        68.58154
450.36        68.75152
450.80        68.74229
451.25        68.60593
451.69        68.39959
452.13        68.18182
452.58        67.94769
453.02        67.75575
453.47        67.73301
453.91        67.87133
454.36        68.14776
454.80        68.48302
455.24        68.54436
455.69        68.27298
456.13        68.08145
456.58        68.11177
457.02        67.16798
457.46        66.98323
457.91        67.21504
458.35        68.03854
458.79        68.31113
459.24        68.01331
459.68        67.58797
460.13        67.13547
460.57        66.90639
461.01        67.06454
461.46        66.19463
461.90        66.44952
462.34        66.80437
462.79        66.65462
463.23        66.86068
463.68        67.04748
464.12        67.32796
464.56        67.57016
465.01         67.6683
465.45        67.53378
465.89        67.20062
466.34        66.67191
466.78        65.99905
467.22        65.61047
467.67         64.6553
468.11        65.97349
468.55        66.53944
468.99        66.90028
469.44        66.69279
469.88        66.11404
470.32        66.08103
470.77        66.51694
471.21        66.54939
471.65        66.14211
472.10        65.93492
472.54        65.97295
472.98        66.02055
473.42        66.07069
473.87        66.29255
474.31        66.54895
474.75         66.4614
475.20        66.14464
475.64        65.94926
476.08        66.31261
476.52        66.28771
476.97        65.93917
477.41        66.04094
477.85        66.60796
478.29        65.68687
478.74        66.47152
479.18        66.66518
479.62        65.68706
480.06        66.28561
480.50        66.58216
480.95        66.95387
481.39        66.98347
481.83        66.12941
482.27         66.1794
482.72        66.25163
483.16        65.01151
483.60        65.21124
484.04        66.53242
484.48        67.27468
484.93         67.2253
485.37        68.16457
485.81        68.10425
486.25        67.38525
486.69        90.66714
487.14        73.02479
487.58           45.99
488.02        56.73929
488.46        64.30125
488.90        64.29771
489.34         65.7649
489.79        65.28911
490.23        67.54755
490.67        68.39172
491.11        67.27135
491.55        67.11033
491.99        67.55516
492.43        67.34924
492.88        66.59907
493.32        66.58157
493.76        66.82052
494.20        67.13681
494.64        67.28059
495.08         67.5615
495.52        67.94608
495.96        67.85089
496.41        67.35733
496.85        67.75985
497.29        68.78389
497.73        67.90201
498.17        66.00507
498.61        66.17873
499.05         68.4397
499.49        68.88663
499.93        68.98486
500.37        68.65982
500.82        67.89259
501.26        67.94573
501.70        68.56342
502.14        68.92942
502.58        68.84012
503.02        68.69424
503.46        68.47857
503.90        67.93373
504.34        67.28294
504.78        67.01685
505.22        67.21326
505.66        67.73271
506.10        68.37556
506.54        68.72455
506.98        68.64021
507.42        68.38982
507.86        68.17499
508.30        67.54086
508.74        67.98317
509.18        68.22601
509.62        68.56259
510.06         68.7681
510.50        68.79372
510.94         68.6973
511.38        68.54904
511.82        68.48798
512.26        68.55007
512.70        68.68074
513.14        68.81349
513.58        68.93147
514.02        69.02161
514.46        68.94416
514.90        68.69267
515.34        69.04321
515.78        68.71085
516.22         68.7812
516.66        68.84683
517.10        68.72145
517.54        68.39131
517.98        68.54177
518.42        68.31876
518.86        68.41615
519.30        68.56865
519.74        68.82644
520.18         69.1183
520.62         69.3203
521.06        69.40961
521.50        69.41537
521.93        69.36553
522.37        69.30815
522.81        69.26809
523.25        69.22799
523.69         69.2092
524.13        69.24799
524.57        69.34334
525.01        69.48484
525.45        69.62449
525.89        69.68202
526.32        69.63602
526.76         69.5116
527.20        69.34698
527.64        69.24453
528.08        69.24786
528.52        69.20665
528.96        69.08547
529.40        69.18114
529.83        69.44405
530.27        68.78172
530.71        68.66398
531.15        68.47015
531.59        68.64373
532.03        68.89684
532.46           69.18
532.90        69.47421
533.34        69.71945
533.78        69.91752
534.22        70.03159
534.66        70.01709
535.09        69.86915
535.53        69.62303
535.97        69.33044
536.41         69.1218
536.85        69.03787
537.28        68.95894
537.72        69.02554
538.16        69.04018
538.60        69.03693
539.04        68.98881
539.47         68.9071
539.91        68.97289
540.35        69.13029
540.79        69.12077
541.22        68.95402
541.66        69.00095
542.10        69.05069
542.54        69.12392
542.97        69.15507
543.41        69.23586
543.85        69.35052
544.29        69.49736
544.72          69.594
545.16        69.52832
545.60        69.28252
546.04        68.91962
546.47        68.59232
546.91        68.50395
547.35        68.72344
547.79        69.30424
548.22        69.97034
548.66        70.23248
549.10        69.96577
549.53        69.21992
549.97        68.35079
550.41        67.95792
550.84        68.15779
551.28        68.71413
551.72        69.39599
552.15        69.82348
552.59         69.8737
553.03        69.79868
553.46        69.49543
553.90        69.35509
554.34        69.35649
554.77        69.42575
555.21        69.53403
555.65         69.4457
556.08        69.80599
556.52        69.31055
556.96        69.73646
557.39        69.50478
557.83        69.22035
558.27        69.25117
558.70        69.58241
559.14        69.83807
559.57        69.95269
560.01        70.12835
560.45        70.33379
560.88        70.43159
561.32        70.39578
561.75        70.25512
562.19        70.06266
562.63        69.54449
563.06        68.93108
563.50        69.06821
563.93        69.78596
564.37        70.13145
564.80        69.98443
565.24         69.8273
565.68        69.73001
566.11        69.65356
566.55        69.66584
566.98        69.72079
567.42        69.79899
567.85         69.8937
568.29        70.03608
568.72        70.02351
569.16        70.02896
569.60         70.4025
570.03        70.79405
570.47        70.71443
570.90        70.43076
571.34        68.79141
571.77        69.26443
572.21        69.74863
572.64        68.92882
573.08        68.43018
573.51        65.30605
573.95        67.86636
574.38        72.05824
574.82        70.13811
575.25        69.80516
575.69        67.32758
576.12        66.26852
576.56        65.46502
576.99        66.93742
577.42        70.49252
577.86        70.01479
578.29        69.07085
578.73        72.81832
579.16        67.24692
579.60        61.73609
580.03        64.60383
580.47        68.55975
580.90        70.33643
581.33        68.93501
581.77        67.79258
582.20        74.29974
582.64         73.7992
583.07        63.25009
583.51         62.1737
583.94        61.06729
584.37        64.05485
584.81        67.26087
585.24        70.81421
585.68        72.33017
586.11        71.18253
586.54        66.13483
586.98        64.06481
587.41        64.73882
587.85        68.21499
588.28        70.64778
588.71        67.30357
589.15        65.29745
589.58        66.50802
590.01        66.95412
590.45        68.11134
590.88         68.9749
591.31        68.33541
591.75        67.73276
592.18        67.78364
592.61        69.38671
593.05        69.50246
593.48         72.6338
593.91        72.79829
594.35        67.48132
594.78         65.9311
595.21        66.07652
595.65        68.86508
596.08        71.07446
596.51        68.33759
596.94        66.70546
597.38         67.4483
597.81        69.91843
598.24        71.51017
598.68         70.2026
599.11        68.92174
599.54        71.45806
599.97        73.32217
600.41        68.09146
600.84        68.34814
601.27        69.79858
601.70        69.07632
602.14        69.13204
602.57        68.11424
603.00        68.50983
603.43        69.98083
603.87        71.62818
604.30        71.37822
604.73        69.42947
605.16        68.00961
605.60        68.80555
606.03        69.79694
606.46        70.82417
606.89        70.40901
607.32         68.5564
607.76        68.48888
608.19        70.82613
608.62        70.09464
609.05        69.15947
609.48        69.60092
609.92        69.10382
610.35         69.1205
610.78        71.02308
611.21        71.91807
611.64        68.54635
612.07        69.21059
612.50        69.57362
612.94        70.02974
613.37          69.563
613.80        69.63695
614.23        70.27726
614.66        70.22706
615.09        70.47918
615.52        70.46059
615.96        70.32217
616.39        70.47932
616.82        69.46407
617.25        69.39791
617.68        70.16451
618.11        70.76904
618.54        71.00632
618.97        70.57112
619.40        69.90136
619.84        69.36369
620.27        70.54706
620.70         71.2786
621.13        71.77092
621.56        71.29004
621.99        70.15902
622.42        70.89607
622.85        73.02132
623.28        72.45351
623.71        71.83839
624.14        71.68237
624.57        71.42352
625.00        70.93355
625.43         71.3802
625.86        70.78921
626.29         70.8717
626.72        71.64825
627.15         71.3581
627.58        71.36234
628.01        71.37211
628.44        71.78762
628.87        71.73582
629.30        71.68741
629.73        71.71822
630.16        72.22656
630.59        71.66805
631.02         71.3743
631.45        70.97868
631.88        70.74337
632.31        70.69379
632.74        70.73882
633.17        70.85911
633.60        70.97809
634.03        71.06066
634.46        71.21586
634.89        71.37541
635.32        71.22795
635.75          70.869
636.18        70.76789
636.61        70.94585
637.04        71.08737
637.47        71.15439
637.89        71.26744
638.32        71.37437
638.75        71.40999
639.18        71.35465
639.61        71.23082
640.04         71.0595
640.47        70.82542
640.90        70.59655
641.33        70.53902
641.76        70.61427
642.18        70.69172
642.61        70.75117
643.04        70.72948
643.47        70.58573
643.90        71.11729
644.33        70.84938
644.76        70.97504
645.18        71.03185
645.61        71.00078
646.04        70.86818
646.47        70.64436
646.90        70.43595
647.33         70.3761
647.75        70.50923
648.18        70.79611
648.61        71.06316
649.04        71.10748
649.47        70.85558
649.89        70.14291
650.32        69.34489
650.75        69.25789
651.18        69.89406
651.61        70.64213
652.03         71.1726
652.46          71.332
652.89        71.31758
653.32        70.72593
653.74        69.99936
654.17         70.7593
654.60        71.75298
655.03        69.61694
655.46        70.42349
655.88        74.87076
656.31        78.48736
656.74        172.0065
657.16        111.2161
657.59         39.5386
658.02        30.13866
658.45        53.15122
658.87        68.59306
659.30        71.81688
659.73        70.84153
660.15        68.42011
660.58        70.94742
661.01        72.62517
661.44        70.08973
661.86        69.44384
662.29        69.80239
662.72         70.6307
663.14         71.6837
663.57        71.60936
664.00        70.65366
664.42        70.44002
664.85        71.04182
665.27        71.35619
665.70        71.21845
666.13        71.01926
666.55        70.75636
666.98        70.31304
667.41        69.85878
667.83        69.72607
668.26        69.97511
668.69        70.46359
669.11        70.94978
669.54        71.39051
669.96        71.03925
670.39        70.56391
670.82        69.99096
671.24        69.68369
671.67        69.78196
672.09        70.20921
672.52        70.68153
672.94        71.22996
673.37        70.60063
673.80        70.38251
674.22        70.31329
674.65        70.27073
675.07         70.2553
675.50        70.20802
675.92        70.16303
676.35        70.23997
676.77        70.44124
677.20         70.6553
677.62        70.83515
678.05        70.91252
678.47        70.86049
678.90        70.71416
679.32        70.55218
679.75        70.36676
680.17        70.46453
680.60        70.59605
681.02        70.73853
681.45        70.69859
681.87        70.45543
682.30        70.05817
682.72        69.67699
683.15        69.60204
683.57        69.89889
684.00        70.38396
684.42        70.99734
684.85        71.25715
685.27        71.11907
685.70         70.7083
686.12         70.2076
686.54        69.94689
686.97          69.991
687.39        70.25085
687.82        70.57765
688.24        70.77927
688.66        70.77119
689.09        70.62762
689.51        70.44872
689.94        70.36066
690.36        70.41381
690.78        70.55681
691.21        70.72918
691.63        70.84805
692.06        70.88702
692.48        70.87507
692.90        70.86322
693.33        70.90943
693.75        71.02878
694.17        71.21861
694.60        71.40763
695.02        71.46033
695.44        71.33681
695.87        71.23486
696.29         71.2319
696.71        71.01733
697.14        70.72279
697.56        71.16426
697.98        72.09207
698.41         71.8483
698.83        71.17748
699.25        70.73408
699.68        70.79657
700.10        70.75797
700.52        70.63721
700.94        70.78954
701.37        71.14865
701.79        71.50316
702.21        71.76421
702.64        71.99599
703.06        72.13031
703.48        72.04738
703.90        71.75928
704.33        71.31373
704.75        70.83085
705.17        70.59305
705.59        70.67377
706.01        70.87881
706.44        71.10452
706.86        71.77931
707.28        71.88219
707.70        72.21973
708.12        72.44704
708.55         72.3843
708.97        72.06005
709.39        71.74169
709.81        71.53473
710.23        71.39974
710.66        71.38032
711.08        71.59592
711.50        71.90575
711.92        72.02704
712.34        71.90418
712.76        71.60718
713.19        71.27988
713.61        71.18598
714.03        71.36884
714.45        71.74337
714.87        72.12243
715.29        72.21489
715.71        71.96512
716.13        71.47855
716.56        70.94403
716.98        70.70264
717.40        70.83499
717.82        71.20451
718.24        71.66513
718.66        72.04276
719.08        72.21769
719.50         72.0962
719.92         71.7777
720.34        71.58164
720.76        71.57201
721.19        71.49969
721.61        71.55643
722.03        71.58696
722.45        71.63892
722.87        71.72261
723.29        71.83356
723.71         71.9436
724.13         72.0397
724.55        72.11936
724.97        72.17818
725.39        72.21726
725.81         72.2352
726.23        72.22976
726.65        72.20284
727.07        72.15634
727.49        72.09883
727.91        72.04454
728.33         71.9978
728.75        71.96375
729.17        71.94524
729.59         71.9355
730.01        71.96524
730.43        72.07133
730.85        72.25806
731.27        72.53843
731.69        72.81938
732.10        72.92903
732.52        72.83257
732.94        72.61736
733.36        72.44463
733.78         72.4298
734.20         72.6054
734.62        73.26154
735.04        74.14667
735.46        74.06447
735.88        73.27844
736.30        73.56599
736.72        74.86153
737.13        75.37374
737.55        74.85405
737.97        74.72857
738.39        75.01683
738.81         74.3027
739.23        73.00104
739.65        73.53595
740.06        75.48378
740.48        75.59973
740.90        74.01404
741.32        73.46632
741.74        74.15028
742.16        74.57057
742.57        74.72739
742.99        75.42993
743.41        76.48085
743.83        77.11237
744.25        77.19977
744.67        76.93008
745.08        76.53413
745.50        76.39059
745.92        76.61885
746.34        77.09379
746.75        77.63605
747.17         77.9389
747.59        77.94354
748.01        77.74998
748.42        77.55865
748.84        77.66652
749.26        78.14377
749.68        78.86359
750.09        79.62704
750.51        80.11131
750.93        80.24039
751.35        80.05337
751.76        79.68442
752.18        79.54186
752.60        79.60917
753.01        79.45253
753.43        79.14935
753.85        79.21535
754.27        79.69405
754.68        80.39925
755.10        81.07317
755.52        81.64079
755.93        81.97858
756.35        82.05539
756.77        82.02673
757.18         82.0173
757.60          82.084
758.02        82.55257
758.43        83.08642
758.85        82.43646
759.26        81.08092
759.68        80.49659
760.10        81.71581
760.51        82.26415
760.93        82.02224
761.34        81.27938
761.76        80.36132
762.18        79.69916
762.59        79.56388
763.01        80.13114
763.42        81.29156
763.84        82.09877
764.26        82.38458
764.67        82.60982
765.09        82.69885
765.50        82.28293
765.92        81.43353
766.33        80.17893
766.75        78.94765
767.16        78.47594
767.58        78.96049
768.00        80.42995
768.41        82.51189
768.83        84.11518
769.24        84.57796
769.66        83.67978
770.07        82.02644
770.49        80.35748
770.90        79.18478
771.32        80.19247
771.73        82.63873
772.15        82.26024
772.56        79.49252
772.97        78.94111
773.39         80.5486
773.80        81.08568
774.22        80.35574
774.63        80.32493
775.05         80.9259
775.46        81.21969
775.88        81.09513
776.29        80.82414
776.70        80.53087
777.12        80.44054
777.53        80.62338
777.95        80.95335
778.36        81.26298
778.77        81.26636
779.19        80.94096
779.60         80.3731
780.02        79.81448
780.43        79.71981
780.84        80.22126
781.26        80.79106
781.67         81.2929
782.09        82.28996
782.50        83.27023
782.91        82.15565
783.33        79.69868
783.74        78.87366
784.15        79.85052
784.57        80.77399
784.98        81.24042
785.39        81.34712
785.81        81.06584
786.22        80.63779
786.63        80.34673
787.04        80.36317
787.46        80.74965
787.87        81.55975
788.28        82.49902
788.70        82.94244
789.11        82.76261
789.52        82.18613
789.93        81.47226
790.35        80.96459
790.76        80.77617
791.17        80.85113
791.58        81.08747
792.00        81.26353
792.41        81.30294
792.82        81.30428
793.23        81.39246
793.65        81.33898
794.06        81.31534
794.47        82.32557
794.88        83.67366
795.29         83.2108
795.71        80.85629
796.12        78.83787
796.53         77.6977
796.94        77.57199
797.35        78.46399
797.76        79.78621
798.18        80.97175
798.59        81.83015
799.00        82.04527
799.41        81.29387
799.82        80.02148
800.23        79.29549
800.64         79.3284
801.06         79.7175
801.47        80.32536
801.88        80.81334
802.29        81.04101
802.70        81.16237
803.11        81.17897
803.52        81.05618
803.93        80.82947
804.34        80.46252
804.75        80.11285
805.17        80.13348
805.58        80.62076
805.99        81.21628
806.40        81.67036
806.81        82.21642
807.22        82.43331
807.63        80.97289
808.04        78.53603
808.45        77.48191
808.86        78.06542
809.27          79.179
809.68        80.32766
810.09        81.03758
810.50        81.03342
810.91        80.47625
811.32        79.67978
811.73        79.15037
812.14        79.03657
812.55        79.14159
812.96        79.38355
813.37        79.61887
813.78        79.77474
814.19        79.97586
814.60        80.07111
815.01        79.79779
815.42        79.14487
815.83        78.13721
816.24        77.18665
816.65        77.02406
817.05        77.84511
817.46        79.40636
817.87        81.08804
818.28         81.7784
818.69        81.18832
819.10         79.5946
819.51        77.74228
819.92        76.90131
820.33        77.39978
820.74        78.85404
821.14        80.55829
821.55        81.25256
821.96         80.6603
822.37        79.23119
822.78        77.57717
823.19        76.59335
823.60        76.52885
824.00        77.13689
824.41        78.05651
824.82        78.79753
825.23        79.11386
825.64        79.17968
826.04        79.07034
826.45        78.87859
826.86        78.65403
827.27        78.31989
827.68        77.93818
828.08         77.6824
828.49         77.5396
828.90        77.55679
829.31        77.64525
829.72        77.61131
830.12        77.43314
830.53        77.14697
830.94        76.92426
831.35        76.98877
831.75        77.42111
832.16        78.08984
832.57        78.84916
832.97        79.38244
833.38        79.51307
833.79        79.32284
834.20        79.01405
834.60        78.89523
835.01        79.06494
835.42        79.43003
835.82        79.78088
836.23        79.68143
836.64        79.09426
837.04        78.19533
837.45        77.30911
837.86        76.94933
838.26        77.23627
838.67        77.95757
839.08        78.86633
839.48        79.50327
839.89        79.66853
840.29        79.53368
840.70        79.15247
841.11        78.58984
841.51        77.92891
841.92         77.1171
842.33        76.40391
842.73        76.22102
843.14         76.6016
843.54        77.47733
843.95        78.41891
844.35        78.75359
844.76        78.30963
845.17        77.31374
845.57        76.16913
845.98        75.50705
846.38        75.48638
846.79        75.88774
847.19        76.50606
847.60        76.88463
848.00        76.90814
848.41        76.70932
848.81        76.42367
849.22        76.16319
849.62        76.03206
850.03        75.97759
850.43        76.05492
850.84        76.29433
851.24        76.72631
851.65         77.1648
852.05        77.70126
852.46        78.29263
852.86        78.90046
853.27        79.55784
853.67        79.80705
854.07        79.07865
854.48        77.43589
854.88        75.09187
855.29        72.88405
855.69        72.02365
856.10         72.7338
856.50        74.86912
856.90         77.6461
857.31         79.2416
857.71        79.08396
858.12        77.64513
858.52        75.77869
858.92         74.6097
859.33        74.38952
859.73        74.80336
860.13        75.66362
860.54        76.57108
860.94        77.38127
861.34        78.18193
861.75        78.86768
862.15        79.35641
862.55        79.59506
862.96        79.54397
863.36        79.33017
863.76        79.17225
864.17        79.15578
864.57        79.30601
864.97        79.57249
865.38        79.85357
865.78        80.15705
866.18         80.4157
866.58        80.69796
866.99        81.10271
867.39        81.68262
867.79        82.43243
868.19        82.98934
868.60        82.69238
869.00        81.45754
869.40        79.52717
869.80        77.77775
870.21        77.56325
870.61        79.25483
871.01         82.4226
871.41        86.08413
871.81        88.53888
872.22        89.24489
872.62        88.64412
873.02        87.45523
873.42         86.9649
873.82        87.37939
874.22        88.07441
874.63        88.70974
875.03        88.73469
875.43        87.91949
875.83        87.32751
876.23        85.83711
876.63        85.35947
877.03        85.88333
877.44        87.68756
877.84        102.7196
878.24        94.83353
878.64        94.82772
879.04        93.99311
879.44        90.26318
879.84        88.38661
880.24        91.68823
880.64        93.70813
881.04        95.05407
881.44        95.77581
881.84        95.16198
882.24        93.58804
882.65        92.03571
883.05        91.50703
883.45        92.18701
883.85        93.94878
884.25        96.16476
884.65        97.53009
885.05        97.61004
885.45        96.84716
885.85        95.82684
886.25        95.35199
886.65        95.61555
887.05        96.32267
887.45        97.23512
887.85        97.94238
888.25        98.26744
888.65        98.39545
889.04        98.32397
889.44        98.07539
889.84        97.68809
890.24        97.11582
890.64        96.59451
891.04         96.5135
891.44        96.90611
891.84        97.67587
892.24        98.43929
892.64        98.48521
893.04        97.72239
893.44        96.51173
893.83        95.29065
894.23        94.68568
894.63        94.81936
895.03        95.41714
895.43        96.47551
895.83        97.95766
896.23        99.67533
896.63         101.605
897.02        103.0841
897.42        103.0472
897.82        101.4034
898.22        98.56392
898.62        95.56474
899.01        93.93948
899.41        94.04159
899.81        95.36106
900.21        97.24539
900.61         98.6078
901.00        99.07011
901.40        98.96918
901.80        98.50095
902.20        97.96737
902.59        97.49863
902.99        96.93683
903.39        96.33624
903.79        95.83963
904.18        95.51403
904.58        95.46853
904.98        95.63274
905.38        95.84551
905.77        96.04662
906.17        96.22598
906.57        96.51493
906.96        97.18011
907.36        98.14713
907.76        99.29792
908.15         100.265
908.55        100.3432
908.95        99.45868
909.34        97.82477
909.74        96.00646
910.14        94.71687
910.53        94.21387
910.93        94.36711
911.33        95.01224
911.72        95.82645
912.12        96.54007
912.52        97.15043
912.91        97.68135
913.31        98.20046
913.70        98.77421
914.10        99.35979
914.49        99.67462
914.89        99.04429
915.29        97.44075
915.68        95.17591
916.08        93.24951
916.47        92.50602
916.87        92.99509
917.26        94.45647
917.66        96.06879
918.05        96.50146
918.45         95.4402
918.84        93.36173
919.24        91.19984
919.64        90.32029
920.03        91.07446
920.42         93.0364
920.82        95.49831
921.21        97.33987
921.61        97.96818
922.00        97.74157
922.40        96.96756
922.79        96.06518
923.19        95.25458
923.58        94.37328
923.98        93.36429
924.37        92.43745
924.77        91.91158
925.16        90.10678
925.55        90.60883
925.95        91.35405
926.34        93.34853
926.74        96.03982
927.13         98.6536
927.52        99.70279
927.92        98.98248
928.31        96.96739
928.70         94.3437
929.10        92.28514
929.49        91.14237
929.89        90.63279
930.28        90.79221
930.67        91.67134
931.07        93.02737
931.46        94.91511
931.85        96.65488
932.24        97.22184
932.64        96.45023
933.03         94.4734
933.42        91.83253
933.82        89.84801
934.21        88.95724
934.60        88.91149
934.99        89.24918
935.39         89.4744
935.78        89.51966
936.17        89.28046
936.56        88.61672
936.96         89.6132
937.35        88.96606
937.74        89.14801
938.13        89.35586
938.53        89.98865
938.92        91.09248
939.31        92.71631
939.70         94.3756
940.09        94.73494
940.49        93.44053
940.88        91.09425
941.27        88.76276
941.66        87.68179
942.05        87.99565
942.44         89.3141
942.84        91.10878
943.23        92.52955
943.62        93.13323
944.01        93.10838
944.40        92.68958
944.79        92.24445
945.18        91.88975
945.57        91.51049
945.97        90.86363
946.36        89.64004
946.75        88.05199
947.14        86.50808
947.53        85.51705
947.92        85.47773
948.31        86.34588
948.70        88.03311
949.09        90.12773
949.48        91.58089
949.87        91.87976
950.26        91.20637
950.65        90.15299
951.04        89.70789
951.43        90.10651
951.82        91.02717
952.21        91.94949
952.60         92.0558
952.99        91.14457
953.38        89.53443
953.77        87.73435
954.16        86.42434
954.55        85.79202
954.94        85.72446
955.33        85.79546
955.72        85.29206
956.11        84.07838
956.50        82.35525
956.89        80.88821
957.28        81.03548
957.66        83.15145
958.05         86.5112
958.44        89.97655
958.83        91.87926
959.22        91.82235
959.61        90.25864
960.00        87.94154
960.39        86.12975
960.78        85.25524
961.16        85.01347
961.55        85.02628
961.94        84.66192
962.33        83.77429
962.72        82.70387
963.11        81.78248
963.49        81.37189
963.88        81.52212
964.27        82.11864
964.66         82.9057
965.04        83.39523
965.43         83.3045
965.82        82.83011
966.21        82.33886
966.60        82.33483
966.98         82.9111
967.37        83.84927
967.76        84.83212
968.15        85.23575
968.53        84.87071
968.92        83.94721
969.31        82.81368
969.69        81.88376
970.08        81.28574
970.47        80.93982
970.86        80.71802
971.24         80.4102
971.63        79.95889
972.02        79.43838
972.40         79.1269
972.79        79.45152
973.17        80.60406
973.56        82.33612
973.95        84.14307
974.33        85.04655
974.72        84.67356
975.11        83.29397
975.49        81.66945
975.88        80.90611
976.26        81.15646
976.65        82.20356
977.04        83.28756
977.42        82.64883
977.81        79.85604
978.19        75.78587
978.58        72.32232
978.96        71.28287
979.35        72.89168
979.74        76.73782
980.12        82.01733
980.51        85.67979
980.89        86.64864
981.28        85.61833
981.66        83.63882
982.05        82.10616
982.43        81.37093
982.82        80.99686
983.20        81.10219
983.59        81.99261
983.97        83.75285
984.35        86.46237
984.74        89.46085
985.12        91.40595
985.51        91.32495
985.89        89.37655
986.28        86.17997
986.66        82.84992
987.04        80.24648
987.43        78.40373
987.81        77.10815
988.20        75.91854
988.58        74.55596
988.96        72.81503
989.35        71.29039
989.73        72.29148
990.12        76.53014
990.50        82.48394
990.88        86.85493
991.27        87.57288
991.65        85.20452
992.03        80.42204
992.42        75.02064
992.80        72.29596
993.18        73.30704
993.56        76.29749
993.95        79.77102
994.33        82.51508
994.71        84.11645
995.10        85.31774
995.48        85.78809
995.86        84.75888
996.24        82.14308
996.63        77.69656
997.01        72.76343
997.39        71.29087
997.77        74.87639
998.15        82.48802
998.54        90.49182
998.92        94.01401
999.30        91.64607
999.68        84.63109
1000.06        74.89837
1000.45        67.36272
1000.83         64.2719
1001.21        64.17515
1001.59        65.93487
1001.97        68.30485
1002.35        70.87871
1002.73        74.61723
1003.12        78.45106
1003.50          78.885
1003.88        74.55341
1004.26        67.11048
1004.64        60.15933
1005.02        56.81059
1005.40        57.26113
1005.78        61.43011
1006.16        69.63132
1006.54        77.28984
1006.92        79.29409
1007.30        77.41547
1007.69        74.80733
1008.07        73.67852
1008.45        74.05576
1008.83        75.62866
1009.21        78.05774
1009.59         74.6633
1009.97        40.72048
1010.35       -35.41857
1010.73       -52.08935
1011.11        -19.6243
1011.49        10.68931
1011.86        34.56339
1012.24        49.06163
1012.62        56.52338
1013.00        60.11019
1013.38        61.60471
1013.76        63.45435
1014.14         71.5555
1014.52        90.06436
1014.90        119.5578
1015.28        151.7113
1015.66        166.0074
1016.04        150.3994
1016.41        109.1919
1016.79        64.39598
1017.17        39.56083
1017.55        34.20079
1017.93        37.18896
1018.31         42.6858
1018.69        47.96527
1019.06        53.10804
1019.44        59.32788
1019.82        68.25248
1020.20        79.95351
1020.58         93.5714
1020.95        108.8482
1021.33        119.2119
1021.71        124.2921
1022.09        128.2749
1022.46        133.3441
1022.84        138.0037
1023.22        145.2652
1023.60        163.0784
1023.97        330.3387
1024.35        48.74622
1024.73        79.91676
