SpectraSmart Spectrum 2.9.0.0
--------- Device Information -----------
Spectrum Name :  反射率_0
Saving Time :  2024/04/26 01:06:05
Spectro-Module Model Name : SE2030-DUVN
Spectro-Module Serial Number : OS361AC55029948
Wavelength Start : 200
Wavelength End : 1025
Wavelength Unit : Wavelength(nm)
Spectrum Unit : Reflectance(%)
-----------Spectrum Setting ------------
Integration Time : 20ms
Average : 10
Boxcar : 0
Background removal :  enabled
linearity correction :  enabled
SC :  disabled
Intensity correction :  disabled
DWT denoise :  enabled
savitzky-golay :  disabled
FFT :  disabled
Running average :  disabled
Kalman :  disabled
High pass :  disabled
---------------BEGIN--------------------
Wavelength(nm)             Reflectance(%)
200.29               0
200.75        94.67525
201.21        88.61546
201.67        81.03221
202.13        76.34362
202.58        75.14676
203.04          76.519
203.50        78.75677
203.96        79.09288
204.42        77.10905
204.88        74.12865
205.34        71.49922
205.80        70.38786
206.26        71.11044
206.72        74.30147
207.18        81.27464
207.64         87.4664
208.10        83.15717
208.55        74.35046
209.01        69.03649
209.47        67.97709
209.93        69.57819
210.39        73.24276
210.85        77.06195
211.31         76.9101
211.77        71.81184
212.23        63.45298
212.69        55.85025
213.14        55.23689
213.60         62.3812
214.06        75.35052
214.52        89.53737
214.98        97.88474
215.44        98.55479
215.90        93.84398
216.36        86.69506
216.81        81.17633
217.27        78.77444
217.73        78.21207
218.19        77.76551
218.65         75.0755
219.11        69.06415
219.57        58.98991
220.02        46.19316
220.48        38.67128
220.94           40.88
221.40        50.83915
221.86         60.0693
222.32        59.74184
222.77        51.10264
223.23        39.18873
223.69        29.37746
224.15         27.1237
224.61        31.73989
225.06        40.43349
225.52        49.17127
225.98        52.78999
226.44        50.42273
226.90         44.2734
227.36        37.36287
227.81        33.79293
228.27        34.63776
228.73        38.15313
229.19        42.49243
229.65        44.99072
230.10        45.08967
230.56        43.98603
231.02        42.57222
231.48        41.74371
231.93        41.64518
232.39        41.88223
232.85        42.26145
233.31        42.62105
233.77        42.85987
234.22        43.04432
234.68        43.18013
235.14         43.1465
235.60        42.94791
236.05        42.67858
236.51        42.32797
236.97        41.82886
237.43        41.22591
237.88        40.58283
238.34        40.31496
238.80        41.49729
239.26        44.50851
239.71        49.10949
240.17        54.17738
240.63        58.20612
241.08        60.68487
241.54        61.72818
242.00        61.97126
242.46        62.54381
242.91        64.32578
243.37         68.2053
243.83        80.08313
244.28        120.1425
244.74        168.3959
245.20        146.2004
245.66        123.8708
246.11        117.7839
246.57        121.7026
247.03        139.6517
247.48        193.9658
247.94        168.0452
248.40        110.2469
248.85        92.18079
249.31        87.20368
249.77        87.55977
250.22        91.21769
250.68        98.44407
251.14        108.6326
251.59        113.9355
252.05        107.5129
252.51        93.61448
252.96        79.83628
253.42        72.90553
253.88        72.03784
254.33        74.66058
254.79        79.52815
255.25        84.31163
255.70        87.72936
256.16        90.44688
256.62        91.51177
257.07         89.8611
257.53        86.35153
257.99         81.3189
258.44        76.09449
258.90        73.22446
259.35        71.96413
259.81        71.56927
260.27        70.57909
260.72        67.56564
261.18        63.16476
261.63        57.91199
262.09        53.10518
262.55        49.58242
263.00        47.31779
263.46        45.99856
263.91        44.90317
264.37        43.51266
264.83        41.64813
265.28        39.41172
265.74        37.30444
266.19        35.85521
266.65        35.25745
267.11        35.17741
267.56        35.15036
268.02         34.6115
268.47        33.44679
268.93         31.8628
269.38         30.1145
269.84        28.86822
270.30        28.30853
270.75        28.24459
271.21        28.38755
271.66        28.31022
272.12        27.87341
272.57        27.21513
273.03        26.50105
273.48        25.89276
273.94        25.47422
274.39        25.15615
274.85        24.87228
275.31        24.53055
275.76        24.09885
276.22         23.6279
276.67        23.17657
277.13        22.90791
277.58          22.787
278.04        22.77874
278.49        22.70946
278.95        22.38593
279.40        21.76942
279.86        20.99545
280.31        20.19061
280.77        19.64897
281.22        19.39115
281.68        19.33954
282.13        19.38892
282.59        19.41287
283.04        19.36776
283.50        19.32775
283.95        19.25997
284.41        19.12475
284.86        18.92664
285.32        18.67885
285.77        18.49713
286.22        18.61944
286.68        19.03848
287.13        19.64079
287.59        20.20143
288.04        20.38149
288.50        20.14466
288.95        19.60324
289.41        18.96385
289.86        18.43705
290.32        18.15038
290.77        18.03415
291.22        18.10016
291.68        18.32606
292.13        18.69752
292.59        19.22707
293.04        19.88299
293.50        20.60415
293.95        21.35054
294.40        22.09718
294.86        22.82944
295.31        23.54746
295.77        24.26603
296.22        25.00054
296.68        25.75254
297.13        26.49244
297.58        27.24176
298.04        28.02715
298.49        28.93272
298.95        30.12944
299.40        31.62319
299.85        33.34763
300.31        35.13657
300.76        36.72559
301.21        38.02579
301.67        39.14402
302.12        40.14207
302.58        41.19932
303.03        42.35394
303.48        43.57813
303.94         44.9437
304.39        46.50858
304.84        48.26933
305.30        50.19498
305.75        52.10076
306.20        53.71723
306.66        55.00684
307.11        56.00581
307.57        56.90651
308.02        57.90254
308.47          59.099
308.93        60.44134
309.38        61.84122
309.83        63.20222
310.29        64.47262
310.74        65.65252
311.19        66.77007
311.65         67.8666
312.10        68.94428
312.55        69.99893
313.00        70.94654
313.46        71.66248
313.91        72.11475
314.36          72.358
314.82        72.57925
315.27        73.02386
315.72         73.7738
316.18         74.7621
316.63        75.81615
317.08        76.60567
317.53        77.03839
317.99        77.19388
318.44         77.2841
318.89        77.65874
319.35        78.37912
319.80         79.3625
320.25         80.3326
320.70        80.83316
321.16        80.76314
321.61        80.27427
322.06        79.68233
322.51        79.48144
322.97        79.77314
323.42        80.44373
323.87        81.23199
324.32        81.68871
324.78        81.67828
325.23        81.38069
325.68        80.99131
326.13        80.84846
326.59        81.03457
327.04        81.46504
327.49         82.0207
327.94        82.53732
328.39        82.94502
328.85        83.27679
329.30        83.59087
329.75        83.83297
330.20        84.02488
330.66        84.16528
331.11        84.36279
331.56        84.72892
332.01        85.30468
332.46        86.04099
332.92        86.88688
333.37         87.9028
333.82        88.97439
334.27        90.08321
334.72        91.02547
335.17        91.48084
335.63        91.39651
336.08        90.90723
336.53        90.31389
336.98        90.14477
337.43        90.54497
337.88         91.3821
338.34        92.42198
338.79        93.35177
339.24        94.01144
339.69        94.50658
340.14        94.87711
340.59        95.18627
341.05        95.47346
341.50        95.68503
341.95        95.86426
342.40        96.11948
342.85        96.47794
343.30        96.92448
343.75        97.40541
344.20        97.80608
344.66        98.09608
345.11        98.28416
345.56        98.38567
346.01         98.4267
346.46        98.43228
346.91        98.40118
347.36        98.36972
347.81        98.39734
348.26        98.50249
348.72        98.69523
349.17        98.91647
349.62        99.11632
350.07        99.27136
350.52        99.38368
350.97        99.47907
351.42        99.60342
351.87        99.75919
352.32         99.9249
352.77        100.0398
353.22        100.0142
353.67        99.83347
354.13        99.53954
354.58        99.18564
355.03        98.91293
355.48         98.7477
355.93        98.64808
356.38        98.53046
356.83        98.26051
357.28        97.80825
357.73        97.22475
358.18         96.5805
358.63        95.98285
359.08         95.4696
359.53        95.01529
359.98        94.58604
360.43        94.12932
360.88        93.62183
361.33        93.06772
361.78         92.4987
362.23         91.9649
362.68        91.47884
363.13        91.03777
363.58         90.5663
364.03         89.9435
364.48        89.16134
364.93        88.26519
365.38        87.39796
365.83        86.79167
366.28        86.48071
366.73        86.36722
367.18        86.29816
367.63         86.0234
368.08        85.48044
368.53        84.77887
368.98        83.97011
369.43        83.12357
369.88         82.2884
370.33        81.43644
370.78        80.69511
371.23        80.28358
371.68        80.22736
372.13        80.46297
372.58        80.76312
373.03        80.73084
373.48        80.26962
373.93        79.50784
374.38        78.64108
374.83        77.97259
375.28         77.5873
375.72        77.37524
376.17         77.2856
376.62        77.21299
377.07        77.09563
377.52        76.94735
377.97        76.73669
378.42        76.40564
378.87        75.95865
379.32        75.43713
379.77        74.84529
380.22        74.18948
380.67        73.48513
381.11        72.72768
381.56        72.04404
382.01        71.64449
382.46        71.56957
382.91        71.78178
383.36        72.03259
383.81        71.91958
384.26        71.36987
384.71        70.49517
385.15        69.60222
385.60        69.21822
386.05        69.38403
386.50        69.91859
386.95        70.46825
387.40         70.4398
387.85        69.74411
388.29        68.63383
388.74        67.52535
389.19        66.71855
389.64        66.27535
390.09        66.03706
390.54        66.00153
390.98        66.17097
391.43        66.48208
391.88        66.91018
392.33        67.22255
392.78        67.01889
393.23         66.2985
393.67          65.333
394.12        64.47586
394.57        63.73407
395.02        63.32952
395.47        63.79701
395.91        64.94118
396.36        65.68876
396.81        65.84563
397.26        65.87685
397.71        65.83065
398.15         65.5094
398.60        65.03262
399.05         64.5782
399.50         64.1598
399.95        63.35441
400.39         62.5996
400.84        62.30537
401.29         62.5086
401.74        62.60114
402.18        62.52201
402.63        62.49912
403.08        62.59304
403.53        62.79134
403.97        63.07758
404.42         63.3865
404.87        63.58657
405.32        63.46908
405.76        63.00197
406.21        62.38641
406.66        61.78685
407.11        61.30935
407.55        61.12109
408.00        61.42205
408.45        62.05089
408.90         62.5589
409.34        62.65697
409.79        62.03782
410.24        61.03746
410.68        60.58791
411.13        60.79867
411.58        61.16668
412.03        61.55761
412.47        61.94641
412.92         62.2037
413.37        62.36734
413.81        62.40283
414.26        62.29801
414.71        62.05343
415.15        61.66239
415.60        61.24198
416.05        61.00449
416.49        61.00455
416.94         61.2189
417.39        61.47308
417.83        61.44372
418.28        61.08644
418.73        60.51593
419.17        59.99306
419.62        59.93168
420.07        60.36483
420.51        61.13541
420.96        61.97164
421.41        62.34148
421.85        62.09231
422.30        61.70338
422.74        61.26341
423.19        60.51814
423.64        59.73644
424.08        59.96785
424.53        61.04172
424.98        61.62618
425.42        61.55996
425.87        61.77526
426.31        62.23996
426.76        62.08008
427.21        61.53333
427.65        61.74881
428.10        62.65871
428.54        63.39112
428.99        63.88614
429.44        64.22691
429.88        64.38443
430.33        65.05268
430.77        65.70101
431.22        64.56676
431.66        62.21559
432.11        61.05786
432.56        61.31461
433.00        62.13184
433.45        63.39396
433.89        64.98164
434.34        65.51648
434.78        67.46406
435.23        63.53779
435.67        61.55319
436.12           63.84
436.57        64.92604
437.01        65.59238
437.46        65.96924
437.90        66.24717
438.35        65.48017
438.79        66.13815
439.24        66.01319
439.68        65.86034
440.13        65.68687
440.57        65.70222
441.02         66.3862
441.46        67.44899
441.91        68.15953
442.35        68.28754
442.80        67.70013
443.24        66.74486
443.69        67.24246
444.13        68.85817
444.58        68.82612
445.02         67.3727
445.47        67.23103
445.91        68.31554
446.36         68.7153
446.80        68.36098
447.24        68.26213
447.69        68.48177
448.13         68.6941
448.58        68.90593
449.02        69.15598
449.47        69.40924
449.91        69.62182
450.36        69.77813
450.80        69.86983
451.25        69.88567
451.69        69.78067
452.13         69.5817
452.58        69.31463
453.02        69.06127
453.47        68.98689
453.91        69.09769
454.36        69.34379
454.80        69.61967
455.24        69.66051
455.69        69.42885
456.13        69.14373
456.58         68.9106
457.02        68.42274
457.46        67.92966
457.91        68.18111
458.35        68.96047
458.79         69.2961
459.24        69.14656
459.68        68.91388
460.13        68.68865
460.57        68.54187
461.01        68.58656
461.46         67.9565
461.90        68.09308
462.34        68.07489
462.79        67.64045
463.23         67.7206
463.68        68.03912
464.12        68.34956
464.56        68.53797
465.01        68.52489
465.45         68.2553
465.89        68.29138
466.34        68.43607
466.78        67.47397
467.22        65.95599
467.67        65.43809
468.11         66.6525
468.55        67.51275
468.99        67.82701
469.44         67.6154
469.88        67.04748
470.32        66.93593
470.77        67.25117
471.21        67.17889
471.65        66.70133
472.10        66.44326
472.54         66.4538
472.98        66.47698
473.42        66.49197
473.87        66.75216
474.31         67.0903
474.75        66.88966
475.20        66.31386
475.64         66.2544
476.08        66.68381
476.52        66.77557
476.97        66.48564
477.41        66.64907
477.85        66.56006
478.29        66.80042
478.74        66.94925
479.18        67.19515
479.62        65.76617
480.06        66.20075
480.50          66.574
480.95         66.9855
481.39        66.95911
481.83        66.16318
482.27        66.30147
482.72        65.80223
483.16        64.59592
483.60         64.8104
484.04        66.25677
484.48        66.86873
484.93        66.98468
485.37        68.25888
485.81        68.74493
486.25        67.17459
486.69        91.44046
487.14        73.93418
487.58        46.00618
488.02        57.04409
488.46        64.54533
488.90        63.97416
489.34        65.29253
489.79        65.15635
490.23        66.78788
490.67        67.39722
491.11          66.001
491.55        65.82736
491.99        66.45918
492.43        66.31432
492.88        65.48868
493.32        65.45118
493.76        65.73134
494.20        66.04546
494.64        66.13573
495.08        66.29642
495.52        66.55936
495.96        66.46593
496.41         66.0803
496.85        66.66862
497.29        67.84063
497.73        66.75638
498.17        64.43562
498.61        64.45569
499.05        66.88074
499.49        67.60395
499.93        67.88282
500.37        67.48586
500.82        66.49454
501.26        66.07224
501.70        66.97201
502.14        67.28193
502.58        67.10665
503.02         67.0084
503.46        66.98029
503.90        66.69122
504.34        66.27165
504.78        66.10521
505.22        66.23946
505.66        66.55246
506.10         66.9103
506.54        67.11864
506.98        67.04862
507.42        66.82984
507.86        66.18468
508.30        65.98914
508.74        66.19904
509.18        66.57407
509.62        66.96062
510.06        67.17292
510.50        67.14856
510.94        66.95329
511.38        66.69239
511.82        66.52428
512.26        66.49929
512.70         66.5676
513.14        66.68542
513.58        66.78625
514.02        66.83922
514.46        66.86304
514.90        66.87592
515.34        66.88393
515.78        66.87908
516.22        66.92323
516.66        66.99052
517.10        66.85492
517.54        66.51291
517.98        66.67155
518.42         66.4202
518.86        66.52414
519.30        66.70052
519.74        66.99726
520.18        67.32247
520.62        67.51643
521.06         67.5511
521.50        67.46984
521.93        67.32317
522.37        67.19566
522.81        67.12592
523.25        67.08936
523.69        67.10017
524.13        67.18126
524.57         67.3258
525.01        67.52656
525.45        67.73148
525.89        67.85238
526.32        67.85879
526.76        67.77034
527.20        67.62592
527.64        67.50919
528.08          67.461
528.52        67.40739
528.96        67.30193
529.40        67.26051
529.83        67.31269
530.27        66.74737
530.71        66.92766
531.15        66.85898
531.59        66.94663
532.03        67.12138
532.46        67.36854
532.90        67.63311
533.34         67.8681
533.78        68.08059
534.22        68.21904
534.66        68.21752
535.09        68.06216
535.53        67.79912
535.97        67.48922
536.41        67.25073
536.85        67.12564
537.28        67.09932
537.72        67.12776
538.16        67.14606
538.60        67.13479
539.04        67.05691
539.47        66.95786
539.91        67.08595
540.35        67.37108
540.79        67.49949
541.22        67.43377
541.66        67.39278
542.10        67.36744
542.54        67.21282
542.97        66.99684
543.41        66.93131
543.85        67.03361
544.29        67.26234
544.72        67.49062
545.16        67.54929
545.60        67.39339
546.04        67.06847
546.47        66.73549
546.91        66.67097
547.35        66.90891
547.79        67.37434
548.22        67.82988
548.66        67.89648
549.10        67.52099
549.53        66.87437
549.97        66.23333
550.41        65.92133
550.84        66.02294
551.28        66.44282
551.72        66.99699
552.15        67.33218
552.59        67.34954
553.03         67.2602
553.46        67.01257
553.90        66.85423
554.34        66.83919
554.77        66.89343
555.21        66.74598
555.65        66.98044
556.08        67.46878
556.52        67.03663
556.96        67.25517
557.39        67.09326
557.83        67.06904
558.27        67.02827
558.70        67.02425
559.14        67.14788
559.57        67.36873
560.01        67.66733
560.45        67.93201
560.88        68.01484
561.32        67.88633
561.75        67.50461
562.19        67.03347
562.63         66.6021
563.06        66.34132
563.50        66.48489
563.93        66.89239
564.37        67.16818
564.80        67.18951
565.24        67.05034
565.68        66.82283
566.11        66.70911
566.55        66.78479
566.98        66.83706
567.42        66.86794
567.85         67.0936
568.29        67.46584
568.72         67.4148
569.16        67.14047
569.60        67.41318
570.03        67.95352
570.47        67.84457
570.90        67.32439
571.34        66.13377
571.77        66.99448
572.21        66.84138
572.64        66.49902
573.08         65.8168
573.51        62.73825
573.95        65.17156
574.38        69.25033
574.82        67.37084
575.25        67.03722
575.69        64.75116
576.12        63.60225
576.56        63.31638
576.99        64.65676
577.42         67.5099
577.86        67.56494
578.29         67.0659
578.73        70.21809
579.16        64.85245
579.60        59.45811
580.03        62.31063
580.47        66.38956
580.90        67.51502
581.33        66.43961
581.77         65.5842
582.20        71.82522
582.64        71.60943
583.07        61.09304
583.51        59.92583
583.94        58.93655
584.37        61.59837
584.81        64.79384
585.24        68.27458
585.68        69.80988
586.11        69.04472
586.54        64.15018
586.98        61.82616
587.41        62.41327
587.85        65.74044
588.28        68.28306
588.71        65.00636
589.15        62.99159
589.58        64.11087
590.01        64.88496
590.45        65.47418
590.88        66.17648
591.31        65.42249
591.75        65.11012
592.18        65.19104
592.61        66.54192
593.05        67.00658
593.48         69.8453
593.91        70.53103
594.35        64.71114
594.78        63.40154
595.21        63.06136
595.65         65.9642
596.08        68.56973
596.51        65.93366
596.94        63.94154
597.38        64.55176
597.81         67.2225
598.24        68.86231
598.68        67.19689
599.11        66.55369
599.54        69.14847
599.97        70.71906
600.41        65.49875
600.84        65.56651
601.27        67.04337
601.70        66.00321
602.14        66.16949
602.57        65.23029
603.00         65.7285
603.43        67.36838
603.87        68.82069
604.30        68.31858
604.73        66.20171
605.16        64.72977
605.60        65.75367
606.03         66.8298
606.46        67.75159
606.89        67.61057
607.32        65.26179
607.76        65.42388
608.19        67.43787
608.62        66.63041
609.05        65.47296
609.48        65.91492
609.92        65.76289
610.35        65.31793
610.78        67.40211
611.21        67.87714
611.64        65.03315
612.07        65.77415
612.50        66.22157
612.94        66.70644
613.37        66.23441
613.80        66.19376
614.23        66.65424
614.66        66.55129
615.09        66.82209
615.52        66.85521
615.96        66.78141
616.39        66.83511
616.82        65.86171
617.25        65.83393
617.68        66.40418
618.11        66.87579
618.54        67.01746
618.97        66.50043
619.40        65.73009
619.84        65.56229
620.27        66.65981
620.70        67.33592
621.13        67.61264
621.56        66.99364
621.99        66.26909
622.42        66.96452
622.85        68.70372
623.28        68.46069
623.71        67.75938
624.14        67.49188
624.57        67.32669
625.00        67.09017
625.43        67.22467
625.86        66.62063
626.29         66.7253
626.72        67.35447
627.15        67.04609
627.58        67.30367
628.01        67.54413
628.44        67.68633
628.87        67.72644
629.30         67.8516
629.73        68.03267
630.16         68.0787
630.59        67.93028
631.02         67.6032
631.45        67.22266
631.88        66.91978
632.31        66.70275
632.74        67.13303
633.17        66.96034
633.60        67.09866
634.03        67.15852
634.46        67.18732
634.89        67.17762
635.32        67.14236
635.75        67.10376
636.18        67.04356
636.61        66.99635
637.04         67.0227
637.47         67.1282
637.89        67.29888
638.32        67.47185
638.75        67.58521
639.18        67.61283
639.61        67.57703
640.04        67.48051
640.47        67.32951
640.90        67.14544
641.33        66.93105
641.76        66.71586
642.18        66.64526
642.61        66.73652
643.04        66.80057
643.47        66.75788
643.90        67.34481
644.33        67.14535
644.76        67.29638
645.18        67.36725
645.61        67.35332
646.04        67.24176
646.47        67.02877
646.90        66.82341
647.33        66.75478
647.75        66.86977
648.18        67.17747
648.61        67.47716
649.04        67.44745
649.47        67.04987
649.89        66.27581
650.32        65.51913
650.75        65.50609
651.18        66.19801
651.61        66.96937
652.03        67.44111
652.46        67.36643
652.89         67.0819
653.32        66.47493
653.74        65.88961
654.17        67.18801
654.60        67.77222
655.03        65.54766
655.46         66.1437
655.88        69.97835
656.31        74.31594
656.74        165.0317
657.16        107.4602
657.59        37.87977
658.02        28.82655
658.45        50.12192
658.87        64.09329
659.30        67.22746
659.73        66.64881
660.15        64.54605
660.58        66.41935
661.01        68.08468
661.44         66.1972
661.86        65.52275
662.29        65.34321
662.72         66.1492
663.14         67.6596
663.57        67.62746
664.00        66.32195
664.42        66.02013
664.85        66.80223
665.27        67.25093
665.70        67.15674
666.13        66.97208
666.55        66.68201
666.98        66.15948
667.41        65.60102
667.83        65.37698
668.26        65.56437
668.69        66.02496
669.11        66.50882
669.54        66.93711
669.96        66.59959
670.39         66.1119
670.82        65.52926
671.24        65.28587
671.67        65.49077
672.09        65.95236
672.52         66.3867
672.94        66.86111
673.37        66.21886
673.80        65.99533
674.22        65.94735
674.65        65.90609
675.07        65.87347
675.50        65.84339
675.92        65.83652
676.35        65.91837
676.77         66.0862
677.20        66.24829
677.62        66.38045
678.05        66.45052
678.47        66.43901
678.90        66.36755
679.32        66.27987
679.75        66.12374
680.17        66.17802
680.60        66.22108
681.02        66.26538
681.45        66.18279
681.87        65.96864
682.30        65.65584
682.72        65.36893
683.15        65.32812
683.57         65.5829
684.00        65.95923
684.42        66.47166
684.85        66.71481
685.27        66.66631
685.70        66.41265
686.12        66.06951
686.54        65.86483
686.97        65.84267
687.39        65.94757
687.82        66.08493
688.24        66.15081
688.66        66.09505
689.09        65.96844
689.51        65.83942
689.94        65.79691
690.36         65.8746
690.78        65.99697
691.21        66.12663
691.63        66.29811
692.06        66.45287
692.48        66.42399
692.90        66.27283
693.33        66.24701
693.75        66.36636
694.17        66.50985
694.60        66.65289
695.02        66.73821
695.44        66.72427
695.87        66.92366
696.29         67.2834
696.71        66.95389
697.14        66.19015
697.56        66.59491
697.98        67.89137
698.41        67.78214
698.83        66.94691
699.25        66.43893
699.68        66.53341
700.10        66.47807
700.52        66.29098
700.94        66.36048
701.37        66.63412
701.79        66.92902
702.21        67.16628
702.64        67.39313
703.06        67.53571
703.48        67.47107
703.90        67.20498
704.33        66.78351
704.75        66.31899
705.17        66.07961
705.59        66.13538
706.01        66.30017
706.44        66.48397
706.86        67.10278
707.28        67.20544
707.70        67.53788
708.12        67.76211
708.55        67.70467
708.97        67.38071
709.39        67.00282
709.81        66.70827
710.23        66.56925
710.66         66.6396
711.08        66.97697
711.50        67.40318
711.92        67.59302
712.34         67.4762
712.76        67.14278
713.19        66.74555
713.61         66.5619
714.03         66.6514
714.45        66.92525
714.87        67.23476
715.29        67.34929
715.71        67.21407
716.13        66.91172
716.56        66.56342
716.98        66.38629
717.40         66.4306
717.82        66.62489
718.24         66.8748
718.66        67.02907
719.08        67.04363
719.50        66.96145
719.92        66.82396
720.34          66.762
720.76        66.73149
721.19        66.65004
721.61        66.70984
722.03        66.79439
722.45        66.95326
722.87        67.17477
723.29        67.39989
723.71        67.52058
724.13        67.50886
724.55         67.3914
724.97        67.23317
725.39        67.13917
725.81        67.13872
726.23        67.21684
726.65        67.33023
727.07        67.33564
727.49        67.33076
727.91        67.25909
728.33        67.19067
728.75        67.18031
729.17        67.24191
729.59        67.34267
730.01        67.46962
730.43        67.60117
730.85        67.72695
731.27         67.8772
731.69        68.00365
732.10        68.00623
732.52        67.87301
732.94        67.67349
733.36        67.52538
733.78        67.48991
734.20        67.58597
734.62        68.07734
735.04        68.77744
735.46        68.69553
735.88         68.0719
736.30        68.44131
736.72        69.69936
737.13        70.21101
737.55        69.73588
737.97        69.50419
738.39        69.62119
738.81         69.0764
739.23        68.21492
739.65        68.92802
740.06        70.77167
740.48        70.92135
740.90        69.48392
741.32        68.87402
741.74        69.30422
742.16        69.52197
742.57        69.56328
742.99        70.14848
743.41         71.0793
743.83        71.61514
744.25        71.63389
744.67        71.32869
745.08        70.93023
745.50        70.80956
745.92        71.07709
746.34        71.59985
746.75        72.18806
747.17        72.52341
747.59        72.53942
748.01        72.33569
748.42        72.10361
748.84        72.13157
749.26        72.49471
749.68        73.07391
750.09        73.69721
750.51        74.09619
750.93        74.20139
751.35        74.01929
751.76        73.67848
752.18        73.58364
752.60        73.71606
753.01        73.65046
753.43        73.43612
753.85        73.53059
754.27        73.96831
754.68        74.54546
755.10        75.11288
755.52        75.57272
755.93        75.84492
756.35        75.90021
756.77        75.88271
757.18        75.87948
757.60        75.91026
758.02        76.36152
758.43         76.9387
758.85        76.22205
759.26        74.67567
759.68        74.62148
760.10        75.88192
760.51        76.35149
760.93        75.47939
761.34        74.80717
761.76        74.48323
762.18        74.16999
762.59         74.0463
763.01        74.48995
763.42        75.43408
763.84        76.11066
764.26        76.40981
764.67        76.53897
765.09        76.48206
765.50        76.32517
765.92        76.00982
766.33        74.87537
766.75        73.40783
767.16        73.02869
767.58        73.85742
768.00        75.35448
768.41        77.10999
768.83        78.13936
769.24        78.06822
769.66        77.44766
770.07        76.63928
770.49        75.29253
770.90        73.87031
771.32        74.60698
771.73        76.87059
772.15        76.43993
772.56        73.74417
772.97        73.15596
773.39        74.61552
773.80        75.10708
774.22        74.44028
774.63        74.41563
775.05        74.96151
775.46        75.22305
775.88        75.09486
776.29        74.80581
776.70        74.49651
777.12        74.42806
777.53        74.67609
777.95        75.11773
778.36        75.54574
778.77        75.60781
779.19         75.2554
779.60        74.58604
780.02         73.9213
780.43        73.76712
780.84        74.25556
781.26        75.03072
781.67        75.83485
782.09         76.5612
782.50        76.88322
782.91        75.84646
783.33        74.07601
783.74        73.47664
784.15        74.18491
784.57        74.90016
784.98        75.29627
785.39        75.49593
785.81         75.3833
786.22        74.78033
786.63        74.06364
787.04        73.93196
787.46        74.47424
787.87         75.4623
788.28        76.52007
788.70         77.0154
789.11         76.7944
789.52        76.08999
789.93        75.25856
790.35        74.76962
790.76        74.76915
791.17        75.21892
791.58        75.87001
792.00        76.16667
792.41         75.9636
792.82        75.54856
793.23        75.21029
793.65        74.81939
794.06         74.6712
794.47        75.98251
794.88        77.91829
795.29        77.66618
795.71        75.40961
796.12        73.27135
796.53        71.95123
796.94        71.56411
797.35        72.20695
797.76        73.47527
798.18        74.79119
798.59        75.73252
799.00        75.95701
799.41        75.29296
799.82        74.14888
800.23        73.44904
800.64        73.39505
801.06        73.63358
801.47        74.05772
801.88        74.39788
802.29        74.54307
802.70        74.61818
803.11        74.65369
803.52        74.66151
803.93        74.66727
804.34        74.62003
804.75        74.56118
805.17        74.65584
805.58        74.95982
805.99        75.16441
806.40        75.16869
806.81        75.46832
807.22        75.71754
807.63        74.49825
808.04        72.37518
808.45        71.49086
808.86        72.04706
809.27        73.00652
809.68        73.95835
810.09        74.57748
810.50        74.63771
810.91        74.23952
811.32        73.64046
811.73        73.26643
812.14        73.23797
812.55        73.39219
812.96        73.64466
813.37        73.84489
813.78        73.92742
814.19        74.00866
814.60        73.99129
815.01        73.69686
815.42        73.12771
815.83        72.29885
816.24        71.53378
816.65        71.40607
817.05         72.0714
817.46        73.32609
817.87        74.68298
818.28        75.25859
818.69        74.82094
819.10        73.58984
819.51        72.14217
819.92        71.46381
820.33         71.8156
820.74        72.90244
821.14        74.19909
821.55        74.75146
821.96        74.34873
822.37         73.3176
822.78        72.11236
823.19        71.39683
823.60        71.35212
824.00         71.8061
824.41        72.44434
824.82        72.85372
825.23        72.85859
825.64        72.62434
826.04        72.29693
826.45        72.07111
826.86        72.00287
827.27        71.98844
827.68        72.00192
828.08        72.04762
828.49        72.05793
828.90        72.11212
829.31        72.13622
829.72        71.98388
830.12        71.66891
830.53        71.21176
830.94        70.84258
831.35        70.87413
831.75        71.39207
832.16        72.25339
832.57        73.22766
832.97        73.82565
833.38        73.82978
833.79        73.38005
834.20        72.76665
834.60         72.4317
835.01        72.50962
835.42        72.86022
835.82        73.25967
836.23        73.25436
836.64        72.77946
837.04         72.0173
837.45        71.23727
837.86        70.85925
838.26        70.99256
838.67        71.45949
839.08        72.08963
839.48        72.56965
839.89        72.74926
840.29         72.7483
840.70        72.58062
841.11        72.25153
841.51         71.8106
841.92        71.22165
842.33        70.67788
842.73        70.51775
843.14        70.76619
843.54        71.37418
843.95        72.01794
844.35         72.2058
844.76        71.81062
845.17        71.00629
845.57        70.09695
845.98        69.55355
846.38        69.49416
846.79        69.75155
847.19         70.1734
847.60        70.40698
848.00        70.37687
848.41        70.18633
848.81         69.9466
849.22        69.73711
849.62        69.64332
850.03        69.61903
850.43        69.72639
850.84        70.01976
851.24        70.52234
851.65        71.05367
852.05        71.63499
852.46        72.12662
852.86        72.48428
853.27        72.77337
853.67        72.68288
854.07        71.85706
854.48        70.38342
854.88         68.4109
855.29         66.5959
855.69        65.87521
856.10        66.41393
856.50         68.1231
856.90        70.38731
857.31        71.76022
857.71        71.78999
858.12        70.80126
858.52        69.46229
858.92        68.65903
859.33         68.5946
859.73         69.0358
860.13        69.79492
860.54        70.47821
860.94        70.96459
861.34        71.33613
861.75        71.62882
862.15        71.98463
862.55        72.39453
862.96        72.78909
863.36        73.08099
863.76        73.11727
864.17        72.87892
864.57        72.48155
864.97        72.11967
865.38        72.06844
865.78        72.42995
866.18        73.05721
866.58        73.76489
866.99        74.22746
867.39         74.3852
867.79        74.33399
868.19        74.08508
868.60        73.66303
869.00        73.13547
869.40        72.51674
869.80          72.136
870.21        72.47541
870.61        73.69245
871.01        75.65015
871.41        77.80929
871.81        79.22729
872.22        79.65051
872.62         79.2884
873.02        78.65832
873.42        78.84467
873.82        79.84079
874.22        80.90247
874.63        81.77082
875.03        81.96246
875.43        81.23082
875.83        80.92277
876.23        78.93703
876.63        77.69836
877.03        76.92406
877.44        76.71815
877.84        106.8078
878.24        82.90421
878.64        84.09186
879.04        85.90557
879.44        81.25979
879.84        79.28993
880.24        85.06197
880.64        87.73697
881.04        88.54528
881.44        88.66697
881.84        87.60414
882.24        85.56483
882.65        83.67047
883.05        82.91177
883.45         83.4398
883.85        85.33167
884.25        87.79391
884.65         89.0392
885.05        88.56118
885.45        86.97249
885.85        85.16204
886.25        84.34982
886.65        84.78772
887.05        86.03779
887.45        87.62211
887.85        88.70206
888.25        88.95846
888.65        88.70824
889.04        88.13406
889.44        87.54866
889.84        87.07503
890.24        86.56451
890.64        86.17128
891.04         86.1628
891.44        86.54785
891.84        87.31133
892.24        88.08117
892.64        88.15434
893.04        87.43916
893.44        86.23379
893.83        85.06712
894.23        84.70776
894.63        85.28056
895.03        86.48296
895.43        88.04461
895.83        89.43918
896.23        90.38789
896.63        91.05045
897.02        91.21052
897.42        90.55097
897.82        89.17031
898.22        87.22959
898.62        85.42221
899.01        84.77464
899.41        85.45933
899.81        87.10253
900.21        89.07945
900.61        90.34571
901.00        90.57697
901.40        90.09314
901.80        89.18611
902.20        88.32022
902.59        87.68427
902.99        87.13324
903.39        86.69579
903.79         86.4409
904.18         86.3842
904.58         86.6038
904.98        87.02907
905.38        87.51482
905.77        87.96788
906.17        88.34023
906.57        88.63732
906.96        88.93939
907.36        89.18864
907.76        89.39474
908.15        89.40991
908.55        88.89276
908.95        87.88555
909.34        86.49451
909.74        85.20293
910.14        84.57906
910.53        84.77295
910.93        85.66831
911.33        86.92421
911.72        87.90836
912.12         88.3187
912.52        88.30198
912.91        88.12327
913.31        88.11756
913.70        88.40267
914.10        88.86252
914.49        89.26756
914.89        89.06899
915.29        88.15689
915.68        86.77492
916.08        85.57217
916.47        85.04869
916.87        85.25344
917.26         86.0181
917.66        86.86344
918.05        87.07439
918.45        86.47651
918.84        85.34541
919.24        84.19585
919.64        83.74885
920.03        84.18679
920.42        85.25346
920.82        86.57862
921.21        87.66557
921.61        88.14945
922.00        88.21794
922.40        87.85535
922.79        87.07966
923.19        86.04974
923.58        84.58958
923.98        82.84727
924.37        81.91667
924.77        82.33983
925.16        80.36113
925.55        82.46245
925.95        83.37553
926.34        84.91933
926.74        86.67774
927.13         88.3187
927.52        88.96144
927.92        88.50656
928.31        87.26064
928.70        85.57607
929.10        84.09905
929.49        83.02091
929.89        82.22107
930.28        81.94032
930.67        82.56898
931.07        83.97744
931.46        86.11121
931.85        88.14073
932.24        88.82911
932.64        87.95105
933.03         85.6727
933.42        82.69263
933.82        80.61091
934.21        79.92381
934.60        80.26926
934.99        80.86895
935.39        80.96248
935.78        80.43446
936.17        78.86936
936.56         76.1309
936.96        77.54288
937.35        76.38885
937.74        77.81899
938.13        79.12543
938.53        80.20087
938.92        81.09914
939.31        82.04646
939.70        82.84091
940.09        82.75738
940.49        81.71644
940.88        80.07399
941.27        78.55106
941.66        78.00301
942.05        78.50971
942.44        79.79539
942.84        81.48345
943.23        82.94427
943.62        83.80694
944.01         84.1912
944.40        84.14152
944.79         83.7468
945.18        83.05238
945.57        81.97505
945.97        80.56856
946.36        79.14008
946.75        78.07384
947.14        77.45744
947.53         77.2938
947.92        77.48621
948.31        77.95457
948.70        78.73383
949.09        79.63438
949.48        80.18056
949.87        80.14726
950.26        79.58097
950.65         78.8118
951.04        78.39245
951.43         78.4556
951.82          78.868
952.21         79.3035
952.60        79.23573
952.99        78.54448
953.38        77.39881
953.77        76.21291
954.16        75.56374
954.55        75.57098
954.94        76.13082
955.33        76.74783
955.72         76.5885
956.11        75.49242
956.50        73.68768
956.89        71.98642
957.28        71.86821
957.66        73.75033
958.05        76.88038
958.44        80.19252
958.83        82.11163
959.22        82.23402
959.61        81.00713
960.00        78.98239
960.39        77.07665
960.78        75.65578
961.16        74.49061
961.55        73.52048
961.94        72.67551
962.33        71.95582
962.72        71.52353
963.11        71.34312
963.49        71.26479
963.88        71.22775
964.27        71.24406
964.66        71.30466
965.04        71.46245
965.43        71.63466
965.82        71.77967
966.21        71.95782
966.60         72.2998
966.98        72.83041
967.37        73.47504
967.76        74.01834
968.15        74.03494
968.53        73.43675
968.92        72.34401
969.31        71.13615
969.69         70.2785
970.08        69.87305
970.47        69.86199
970.86        69.95326
971.24        69.61069
971.63        68.72843
972.02        67.45605
972.40        66.34098
972.79         66.3651
973.17        67.85904
973.56        70.42728
973.95        73.30247
974.33        75.00262
974.72        74.93437
975.11        73.53572
975.49        71.61349
975.88        70.27603
976.26        69.71013
976.65        69.65237
977.04        69.58799
977.42        68.45214
977.81        66.11346
978.19        63.19902
978.58        61.05526
978.96        60.88231
979.35        62.81164
979.74        66.59855
980.12        71.53275
980.51        74.87683
980.89        75.71601
981.28        74.64987
981.66        72.75448
982.05        71.46451
982.43        71.07856
982.82        71.04366
983.20        71.43372
983.59        72.42635
983.97        74.06839
984.35        76.56561
984.74        79.00687
985.12         79.5106
985.51        77.15478
985.89        72.24488
986.28        66.69358
986.66        63.58704
987.04        63.79985
987.43        66.27906
987.81        69.12303
988.20        70.03706
988.58        68.40194
988.96        64.05826
989.35        57.50086
989.73        53.12942
990.12        54.70576
990.50        60.74791
990.88        66.62364
991.27        68.41111
991.65        66.48607
992.03        62.09907
992.42        57.35656
992.80        55.78762
993.18        58.32763
993.56        62.78985
993.95        67.40144
994.33        70.86681
994.71         72.7825
995.10        73.96951
995.48        74.28017
995.86        73.19591
996.24         70.7011
996.63        66.54709
997.01        61.87065
997.39        60.23495
997.77        63.09978
998.15        69.61372
998.54        76.48336
998.92        79.23773
999.30        76.58945
999.68        69.74027
1000.06        60.52327
1000.45         53.5941
1000.83        50.95937
1001.21        51.06367
1001.59        52.94161
1001.97         55.6204
1002.35         58.7369
1002.73        63.32104
1003.12        67.72025
1003.50         66.8306
1003.88         59.1907
1004.26        47.67202
1004.64        37.51748
1005.02        33.01303
1005.40        34.39943
1005.78        41.63076
1006.16        55.46432
1006.54        68.86217
1006.92        73.12018
1007.30        70.71774
1007.69        66.45832
1008.07        63.59179
1008.45        61.87144
1008.83        59.70727
1009.21         53.7015
1009.59        30.38413
1009.97       -40.39788
1010.35       -143.0741
1010.73       -125.8986
1011.11       -57.22481
1011.49       -6.746196
1011.86        28.52344
1012.24        47.92923
1012.62        55.05898
1013.00        54.30679
1013.38        47.28255
1013.76        36.32035
1014.14        31.46294
1014.52        41.90608
1014.90         70.8021
1015.28        109.4646
1015.66        128.5606
1016.04        111.2985
1016.41        65.41574
1016.79        19.14612
1017.17        1.164655
1017.55        6.173357
1017.93        18.02932
1018.31        29.37366
1018.69        36.86288
1019.06        41.10378
1019.44        43.75701
1019.82         45.1338
1020.20        43.67052
1020.58         35.7555
1020.95        12.51391
1021.33       -65.74686
1021.71        1311.608
1022.09        215.1368
1022.46        160.8848
1022.84        147.2221
1023.22        150.5692
1023.60        176.9304
1023.97        468.3581
1024.35       -30.74465
1024.73        23.32864
