SpectraSmart Spectrum 2.9.0.0
--------- Device Information -----------
Spectrum Name :  反射率_0
Saving Time :  2024/04/26 02:10:30
Spectro-Module Model Name : SE2030-DUVN
Spectro-Module Serial Number : OS361AC55029948
Wavelength Start : 200
Wavelength End : 1025
Wavelength Unit : Wavelength(nm)
Spectrum Unit : Reflectance(%)
-----------Spectrum Setting ------------
Integration Time : 20ms
Average : 10
Boxcar : 0
Background removal :  enabled
linearity correction :  enabled
SC :  disabled
Intensity correction :  disabled
DWT denoise :  enabled
savitzky-golay :  disabled
FFT :  disabled
Running average :  disabled
Kalman :  disabled
High pass :  disabled
---------------BEGIN--------------------
Wavelength(nm)             Reflectance(%)
200.29               0
200.75        96.82762
201.21        89.01727
201.67        79.99321
202.13        73.88013
202.58         71.2589
203.04        71.49236
203.50        73.48305
203.96        75.28783
204.42        76.14465
204.88        76.45186
205.34        77.01637
205.80        79.03256
206.26        83.54685
206.72        93.01736
207.18        110.7114
207.64        125.0381
208.10        112.9411
208.55        90.22681
209.01        76.55235
209.47        72.94758
209.93        75.32079
210.39        81.95145
210.85        89.25882
211.31        89.51397
211.77        80.59527
212.23        65.53819
212.69        50.82423
213.14        46.31176
213.60        53.66916
214.06        70.07986
214.52        88.93339
214.98        99.91629
215.44        100.5049
215.90        94.18994
216.36        85.51163
216.81        80.76904
217.27        81.53064
217.73         85.2031
218.19        89.04868
218.65        89.79819
219.11         86.2981
219.57        78.30365
220.02        66.88424
220.48        58.81089
220.94        58.26786
221.40        63.99935
221.86        69.24734
222.32        66.69528
222.77        57.45456
223.23        45.97614
223.69        36.98033
224.15        35.28094
224.61        40.06319
225.06        48.66813
225.52        57.15222
225.98        60.43931
226.44        57.70685
226.90        51.15605
227.36         43.7389
227.81        39.46674
228.27        39.47962
228.73        42.12947
229.19         45.8938
229.65        48.54853
230.10        49.45538
230.56        49.50431
231.02        49.19516
231.48        49.00374
231.93        49.05267
232.39        49.14652
232.85        49.23445
233.31        49.37379
233.77        49.55299
234.22        49.78068
234.68        50.10098
235.14        50.46873
235.60         50.8561
236.05         51.3007
236.51        51.66214
236.97        51.72752
237.43        51.49805
237.88        51.03144
238.34        50.67172
238.80        51.49068
239.26        53.90157
239.71        57.79379
240.17        61.98944
240.63        64.90017
241.08        66.12357
241.54        65.92207
242.00        65.36015
242.46        66.15122
242.91        69.71139
243.37        78.57574
243.83        104.5294
244.28        180.0269
244.74        249.1943
245.20        191.0903
245.66        147.4485
246.11        135.4851
246.57        140.8087
247.03        169.1092
247.48        257.3536
247.94        218.8907
248.40        125.8914
248.85        96.92302
249.31        88.56793
249.77        88.37794
250.22        93.03123
250.68        102.5625
251.14        116.9364
251.59        127.6644
252.05        125.4674
252.51        114.0168
252.96        100.5209
253.42        92.21512
253.88          88.913
254.33        88.05175
254.79        89.98438
255.25        94.57973
255.70        100.2867
256.16        106.5236
256.62        110.7363
257.07         110.307
257.53        106.3659
257.99        100.0028
258.44         93.2614
258.90        89.61971
259.35        88.21688
259.81        87.92616
260.27        86.98496
260.72         83.6945
261.18        78.81351
261.63        73.00712
262.09        67.62367
262.55        63.44381
263.00        60.48134
263.46        58.49281
263.91        56.87693
264.37        55.35163
264.83         53.6504
265.28        51.76316
265.74        49.93826
266.19         48.2741
266.65        47.00843
267.11        46.02312
267.56        45.12529
268.02        44.07738
268.47        42.75191
268.93        41.24162
269.38        39.66278
269.84        38.44504
270.30        37.70557
270.75        37.34351
271.21        37.15594
271.66        36.82887
272.12        36.26376
272.57        35.54509
273.03        34.82411
273.48        34.24002
273.94        33.85732
274.39         33.5699
274.85        33.29475
275.31        32.89708
275.76        32.33495
276.22         31.6881
276.67        31.00215
277.13        30.44597
277.58        29.99738
278.04        29.64515
278.49        29.27568
278.95        28.79776
279.40         28.1647
279.86        27.48138
280.31        26.77772
280.77        26.21714
281.22        25.79294
281.68        25.48752
282.13        25.26269
282.59        25.10585
283.04        24.98652
283.50        24.93953
283.95        24.89317
284.41        24.76076
284.86        24.52748
285.32        24.23624
285.77        23.99344
286.22        24.02682
286.68        24.33887
287.13        24.81463
287.59        25.27617
288.04        25.44785
288.50        25.30052
288.95        24.91337
289.41        24.43705
289.86         23.9881
290.32        23.67979
290.77        23.46809
291.22        23.41194
291.68        23.55792
292.13        23.91235
292.59        24.47746
293.04         25.1973
293.50        25.97512
293.95        26.76197
294.40        27.54457
294.86        28.34282
295.31        29.20611
295.77         30.1514
296.22        31.16709
296.68        32.19347
297.13        33.10466
297.58         33.8989
298.04        34.63573
298.49        35.45477
298.95        36.61746
299.40        38.15748
299.85        39.98875
300.31        41.91541
300.76        43.62328
301.21        45.00126
301.67        46.16096
302.12        47.17982
302.58        48.27472
303.03        49.47522
303.48        50.74148
303.94        52.08995
304.39        53.48999
304.84        54.94096
305.30        56.45898
305.75         57.9495
306.20        59.28652
306.66         60.4675
307.11        61.47813
307.57        62.44959
308.02        63.47126
308.47        64.61654
308.93        65.85732
309.38        67.11391
309.83        68.30984
310.29        69.40546
310.74        70.39078
311.19        71.30315
311.65        72.20017
312.10        73.08842
312.55        73.96877
313.00        74.76204
313.46        75.34601
313.91        75.69468
314.36        75.87064
314.82        76.05415
315.27        76.47603
315.72        77.21218
316.18        78.18477
316.63        79.23975
317.08        80.07985
317.53        80.60845
317.99        80.88942
318.44        81.07128
318.89        81.40704
319.35        81.94283
319.80        82.62967
320.25        83.27805
320.70        83.58103
321.16         83.4832
321.61        83.09834
322.06        82.66845
322.51         82.5694
322.97         82.8671
323.42        83.47933
323.87        84.18887
324.32         84.6216
324.78        84.66118
325.23        84.45836
325.68        84.15894
326.13        84.02948
326.59        84.13293
327.04        84.40799
327.49        84.78742
327.94        85.19144
328.39        85.57549
328.85        85.95473
329.30        86.33665
329.75        86.57226
330.20        86.66434
330.66        86.64731
331.11        86.69928
331.56        87.03981
332.01        87.73589
332.46        88.70047
332.92        89.82291
333.37         91.0617
333.82        92.25347
334.27        93.40132
334.72        94.31515
335.17         94.7049
335.63        94.53954
336.08        93.95023
336.53        93.25713
336.98        93.02358
337.43        93.40229
337.88        94.25484
338.34        95.34316
338.79        96.33939
339.24         97.0769
339.69        97.67548
340.14        98.13824
340.59        98.46826
341.05        98.69731
341.50        98.77657
341.95        98.84258
342.40        99.14688
342.85        99.73322
343.30        100.5466
343.75        101.3886
344.20        101.8942
344.66        101.9792
345.11        101.7385
345.56        101.3684
346.01        101.1672
346.46        101.2236
346.91        101.4565
347.36        101.7641
347.81        101.9892
348.26        102.0923
348.72        102.1458
349.17        102.1992
349.62        102.3752
350.07        102.6884
350.52         103.075
350.97        103.4403
351.42        103.6569
351.87        103.6931
352.32        103.5862
352.77        103.3973
353.22        103.2248
353.67        103.0984
354.13        103.0043
354.58        102.8778
355.03        102.6749
355.48        102.3826
355.93        102.0242
356.38        101.6336
356.83        101.2587
357.28        100.9098
357.73        100.5705
358.18        100.2094
358.63        99.77668
359.08        99.26927
359.53        98.71752
359.98        98.15063
360.43        97.61229
360.88        97.10787
361.33        96.60416
361.78         96.1117
362.23        95.65034
362.68        95.21761
363.13        94.82505
363.58        94.38416
364.03        93.75035
364.48        92.91273
364.93        91.91595
365.38        90.93464
365.83        90.25491
366.28        89.92487
366.73        89.84113
367.18        89.80686
367.63        89.49708
368.08        88.83939
368.53        87.97004
368.98        87.01108
369.43        86.13969
369.88        85.42227
370.33        84.79276
370.78        84.30007
371.23        84.03218
371.68        83.97968
372.13        84.12138
372.58        84.28867
373.03        84.18743
373.48        83.75256
373.93        83.06963
374.38        82.31538
374.83        81.76743
375.28        81.49382
375.72          81.399
376.17        81.39193
376.62        81.29893
377.07        81.05331
377.52        80.68912
377.97        80.25459
378.42        79.82328
378.87        79.42455
379.32         79.0555
379.77        78.64165
380.22        78.07082
380.67         77.3341
381.11        76.47064
381.56        75.65199
382.01        75.16167
382.46        75.06602
382.91        75.29874
383.36        75.60499
383.81        75.57475
384.26        75.12115
384.71        74.35571
385.15        73.55396
385.60        73.19978
386.05        73.32734
386.50        73.76839
386.95        74.20076
387.40        74.09182
387.85        73.37099
388.29        72.26869
388.74        71.19092
389.19        70.40804
389.64        69.97762
390.09        69.75859
390.54        69.74004
390.98        69.90579
391.43        70.18953
391.88        70.56524
392.33         70.8398
392.78        70.65025
393.23        69.98981
393.67        69.17183
394.12        68.48067
394.57        67.66412
395.02        67.00542
395.47        67.41831
395.91        68.69084
396.36        69.39367
396.81        69.32369
397.26        69.16494
397.71         69.0146
398.15        68.63227
398.60        68.14773
399.05        67.78275
399.50        67.49753
399.95        66.71388
400.39         65.9139
400.84        65.66072
401.29        65.99541
401.74         66.2224
402.18        66.23067
402.63         66.1571
403.08        66.10215
403.53        66.24033
403.97        66.57607
404.42        66.92915
404.87        67.15516
405.32        67.10079
405.76        66.73335
406.21         66.1694
406.66        65.56114
407.11        65.19703
407.55        65.16937
408.00        65.19514
408.45        65.22671
408.90        65.63982
409.34        66.11843
409.79        65.55262
410.24        64.26285
410.68        63.68359
411.13        63.92176
411.58        64.19621
412.03        64.41796
412.47        64.78401
412.92        65.18459
413.37        65.57996
413.81        65.86088
414.26        65.90562
414.71         65.6847
415.15        65.23277
415.60        64.69685
416.05        64.33395
416.49        64.22319
416.94        64.32831
417.39        64.49626
417.83        64.43925
418.28        64.11456
418.73        63.62872
419.17        63.19882
419.62        63.16951
420.07        63.55822
420.51        64.23014
420.96        64.94302
421.41        65.21056
421.85        64.89577
422.30        64.49303
422.74        64.08088
423.19        63.32079
423.64        62.51211
424.08        62.88713
424.53        64.20487
424.98        64.85651
425.42        64.64555
425.87        64.59663
426.31        64.78792
426.76        64.55879
427.21        64.14687
427.65        64.46198
428.10        65.37405
428.54        66.13976
428.99        66.68788
429.44        66.89593
429.88        66.79764
430.33        67.52779
430.77         68.4567
431.22        67.12781
431.66        64.22073
432.11        63.04071
432.56        63.77855
433.00        64.45667
433.45        64.97308
433.89        66.80105
434.34        68.56547
434.78        69.79021
435.23        66.03681
435.67        63.93172
436.12        66.14963
436.57        67.26305
437.01        67.95004
437.46        68.16316
437.90        68.03146
438.35        67.84854
438.79        68.09287
439.24        68.00958
439.68        67.77639
440.13        67.31262
440.57        67.00478
441.02        67.95584
441.46         69.7281
441.91        70.77464
442.35        70.76675
442.80         69.7705
443.24        68.33422
443.69        68.87713
444.13        70.98189
444.58        71.03738
445.02        69.24896
445.47        68.93528
445.91        70.03181
446.36        70.36997
446.80        69.88645
447.24        69.68674
447.69        69.83599
448.13        69.99552
448.58        70.17115
449.02        70.39275
449.47        70.62879
449.91         70.8371
450.36        70.99734
450.80        71.12711
451.25        71.18869
451.69        71.02708
452.13        70.70195
452.58        70.40927
453.02        70.22842
453.47        70.18817
453.91        70.28566
454.36        70.55774
454.80        70.91652
455.24        70.97472
455.69        70.66948
456.13        70.46819
456.58        70.48617
457.02        69.51932
457.46        69.07212
457.91        69.39346
458.35        70.52323
458.79        70.96307
459.24        70.64025
459.68        70.24171
460.13        69.89174
460.57        69.60488
461.01        69.50904
461.46        69.06673
461.90        68.82068
462.34        69.29025
462.79        68.37074
463.23        68.58949
463.68        69.13989
464.12        69.57263
464.56        69.70802
465.01        69.49993
465.45        69.03202
465.89        68.85019
466.34        68.88377
466.78        68.00526
467.22        66.65818
467.67        66.55603
468.11        67.61577
468.55        68.30947
468.99        68.32907
469.44         67.9929
469.88        67.50754
470.32        67.55154
470.77        68.03017
471.21        68.05265
471.65        67.56784
472.10        67.22655
472.54        67.12616
472.98        67.07865
473.42        67.08528
473.87        67.39365
474.31        67.79321
474.75        67.57861
475.20         66.9066
475.64        66.74654
476.08        67.13877
476.52        67.21789
476.97        66.94558
477.41        67.38213
477.85        67.60494
478.29        67.52704
478.74        67.89465
479.18        67.57394
479.62        66.46017
480.06         66.8479
480.50        67.17994
480.95        67.71584
481.39        67.95203
481.83        67.14532
482.27        67.24486
482.72        67.00443
483.16        65.55089
483.60        65.74023
484.04        67.08638
484.48        67.65853
484.93        67.83139
485.37        68.86115
485.81        69.11729
486.25        68.24297
486.69        91.88208
487.14        74.76128
487.58        46.56754
488.02        57.35733
488.46        65.22809
488.90        64.72195
489.34        66.30036
489.79        65.07188
490.23        67.12099
490.67        67.83479
491.11        66.91286
491.55        66.90907
491.99        67.39214
492.43        67.22614
492.88        66.48305
493.32        66.35333
493.76        66.39297
494.20        66.55575
494.64         66.6181
495.08        66.79411
495.52        67.08432
495.96        67.03528
496.41        66.64887
496.85        67.08449
497.29        68.04263
497.73        66.82009
498.17        64.48434
498.61        64.84772
499.05        67.80974
499.49         68.3739
499.93        67.98214
500.37        67.58698
500.82        67.17979
501.26        67.31311
501.70        67.67495
502.14        68.17351
502.58        67.76817
503.02        67.66535
503.46        67.59206
503.90        67.26469
504.34        66.81632
504.78        66.57601
505.22        66.61504
505.66        67.00906
506.10         67.5874
506.54        67.73496
506.98        67.32133
507.42        67.33659
507.86        66.60789
508.30        66.46626
508.74        66.63602
509.18        67.00595
509.62        67.41639
510.06        67.60361
510.50        67.51331
510.94        67.23232
511.38        66.89396
511.82        66.70052
512.26        66.71082
512.70        66.85194
513.14        67.06742
513.58        67.27335
514.02        67.42603
514.46        67.53668
514.90        67.57138
515.34        67.56696
515.78        67.53497
516.22         67.3372
516.66        66.94875
517.10        67.24519
517.54        66.50932
517.98        66.82228
518.42        66.70987
518.86        66.89901
519.30        67.07652
519.74        67.32806
520.18        67.61025
520.62        67.79452
521.06        67.86642
521.50        67.84975
521.93         67.7647
522.37        67.65131
522.81         67.5389
523.25        67.42354
523.69        67.34624
524.13        67.36781
524.57         67.4939
525.01        67.70736
525.45        67.94621
525.89        68.10613
526.32        68.14824
526.76        68.09319
527.20        67.98112
527.64        67.89751
528.08        67.88134
528.52        67.85515
528.96        67.76025
529.40        67.69693
529.83        67.69585
530.27        67.05116
530.71        67.15602
531.15        67.04626
531.59        67.13576
532.03        67.34372
532.46        67.63673
532.90        67.92733
533.34        68.15822
533.78        68.34789
534.22         68.4525
534.66        68.41649
535.09        68.23363
535.53        67.95033
535.97        67.63249
536.41        67.40791
536.85        67.31782
537.28        67.33858
537.72        67.42541
538.16        67.51135
538.60        67.56873
539.04        67.55787
539.47        67.49673
539.91        67.59522
540.35        67.78275
540.79        67.76193
541.22        67.54414
541.66        67.42509
542.10        67.41294
542.54        67.33908
542.97        67.23501
543.41        67.25288
543.85        67.39139
544.29        67.62737
544.72        67.84346
545.16        67.88677
545.60        67.71928
546.04        67.37569
546.47        67.02485
546.91        66.96241
547.35        67.22243
547.79        67.71758
548.22        68.19093
548.66        68.24902
549.10        67.82637
549.53        67.06902
549.97        66.28807
550.41        65.89568
550.84        65.99513
551.28        66.45044
551.72        67.06374
552.15        67.48537
552.59        67.59576
553.03        67.54089
553.46         67.4057
553.90        67.26982
554.34        67.15322
554.77          67.394
555.21        67.14738
555.65        67.25501
556.08          67.493
556.52        67.05953
556.96        67.47625
557.39        67.29394
557.83        67.06541
558.27        67.00245
558.70        67.12299
559.14        67.25755
559.57        67.37641
560.01        67.49522
560.45        67.59451
560.88        67.84441
561.32        68.11841
561.75         67.8415
562.19        67.19669
562.63         66.7604
563.06        66.64667
563.50        66.80968
563.93        67.11423
564.37        67.25257
564.80        67.16082
565.24        67.08096
565.68        67.01204
566.11        66.88989
566.55        66.80463
566.98          66.634
567.42        66.60261
567.85        66.90454
568.29        67.49254
568.72        67.54821
569.16        67.28589
569.60        67.68362
570.03        68.23846
570.47        68.29374
570.90         68.0627
571.34        66.34418
571.77        67.34406
572.21        67.19248
572.64        66.77342
573.08        65.81934
573.51        63.13631
573.95        65.61884
574.38        69.69631
574.82        67.75263
575.25        67.45053
575.69        65.47672
576.12        64.06127
576.56        63.74911
576.99        65.10886
577.42        67.90642
577.86        67.88881
578.29        66.91404
578.73        70.68765
579.16        65.07622
579.60        59.61471
580.03        62.18988
580.47         66.3905
580.90        67.99525
581.33        66.35403
581.77        66.15469
582.20        72.23698
582.64        72.09939
583.07        61.52329
583.51        60.13739
583.94        58.95625
584.37        61.63541
584.81        65.11954
585.24        68.66592
585.68        70.02079
586.11        69.22528
586.54         64.2194
586.98        62.12164
587.41        62.64449
587.85        65.94135
588.28        68.48581
588.71         65.2736
589.15          63.048
589.58        64.29363
590.01        64.49631
590.45         65.6189
590.88        66.50542
591.31        65.95557
591.75        65.51764
592.18        65.37146
592.61        66.51212
593.05        67.11395
593.48        69.99664
593.91        70.79575
594.35        65.17944
594.78        63.33521
595.21        63.28035
595.65        66.17056
596.08        68.89083
596.51        66.22147
596.94        64.16843
597.38        64.73043
597.81        67.37106
598.24        68.98296
598.68        67.47018
599.11        66.36883
599.54        69.05248
599.97        70.37017
600.41        65.59861
600.84         65.5589
601.27        67.00361
601.70        66.13684
602.14        66.02207
602.57        65.10296
603.00        65.71677
603.43        67.10665
603.87        68.36838
604.30        68.14474
604.73        66.22299
605.16        64.59759
605.60        65.75336
606.03        66.66741
606.46         67.4563
606.89        67.28954
607.32        65.14558
607.76        65.37862
608.19        67.34911
608.62        66.57997
609.05        65.53927
609.48        65.99862
609.92        65.72702
610.35        65.53368
610.78        67.21484
611.21        67.94306
611.64        64.93884
612.07        65.73045
612.50        66.20385
612.94        66.70097
613.37        66.22334
613.80        66.19026
614.23        66.67722
614.66        66.50795
615.09        66.86414
615.52        66.92175
615.96        66.80357
616.39        66.98492
616.82        66.19843
617.25        65.40837
617.68        66.24585
618.11         66.6707
618.54        67.02514
618.97        66.64815
619.40        65.84894
619.84        65.82149
620.27         66.5157
620.70        67.07224
621.13        67.30167
621.56        66.76266
621.99        65.76054
622.42         66.4267
622.85        68.32513
623.28        67.95058
623.71        67.74591
624.14        67.55883
624.57        66.94121
625.00        66.72775
625.43        66.90447
625.86        66.44461
626.29         66.6596
626.72        67.07694
627.15        66.92971
627.58        67.09202
628.01        67.21823
628.44        67.42494
628.87        67.50272
629.30        67.70063
629.73        67.86156
630.16        67.99532
630.59        67.61268
631.02        67.23278
631.45          66.835
631.88        66.56868
632.31        66.47943
632.74        66.53976
633.17        66.68884
633.60        66.80378
634.03         66.8445
634.46        66.84338
634.89        66.82564
635.32        66.83425
635.75        66.88253
636.18        66.93845
636.61        66.98276
637.04        67.01372
637.47        67.02126
637.89        66.95502
638.32        66.97836
638.75        66.91088
639.18        66.78712
639.61        66.97887
640.04        66.81397
640.47        66.77943
640.90        66.68172
641.33        66.54962
641.76        66.39552
642.18        66.34919
642.61         66.4295
643.04        66.44086
643.47        66.31931
643.90        66.82414
644.33         66.5615
644.76        66.65915
645.18        66.68912
645.61        66.64478
646.04        66.51191
646.47         66.2831
646.90        66.07521
647.33        66.03796
647.75        66.22181
648.18        66.60632
648.61        66.95673
649.04        66.98653
649.47        66.63393
649.89        65.68524
650.32        64.62875
650.75        64.68092
651.18        65.73117
651.61        66.47557
652.03        66.58102
652.46        66.49458
652.89        66.50034
653.32        65.95454
653.74        65.27955
654.17        66.30892
654.60        67.14661
655.03        65.20078
655.46         65.9482
655.88        69.61858
656.31        74.28986
656.74        166.0499
657.16         108.181
657.59        38.16428
658.02        28.83375
658.45        49.80664
658.87        63.97795
659.30        66.96812
659.73        66.30849
660.15        63.73886
660.58         66.0271
661.01        67.52402
661.44        65.33609
661.86        64.67236
662.29        64.77087
662.72        65.64033
663.14        66.98753
663.57        66.96693
664.00        65.82088
664.42         65.5482
664.85        66.22235
665.27        66.53983
665.70        66.34799
666.13        66.14444
666.55        65.93046
666.98        65.56657
667.41        65.17477
667.83        65.00745
668.26        65.11253
668.69        65.38023
669.11        65.65733
669.54        65.99619
669.96        65.72501
670.39        65.47855
670.82        65.19065
671.24        64.93723
671.67        64.87407
672.09          65.214
672.52        65.76438
672.94        66.25163
673.37        65.54694
673.80        65.32426
674.22        65.32618
674.65        65.29495
675.07        65.22316
675.50        65.12077
675.92        65.04472
676.35        65.12583
676.77        65.37133
677.20        65.66283
677.62        65.92972
678.05         66.0678
678.47        66.03815
678.90        65.88524
679.32        65.69203
679.75        65.46968
680.17        65.51159
680.60        65.57777
681.02        65.65953
681.45        65.59653
681.87        65.37344
682.30        65.03638
682.72        64.71545
683.15        64.63756
683.57        64.85687
684.00        65.19473
684.42        65.67474
684.85        65.90041
685.27        65.85244
685.70        65.61461
686.12         65.2963
686.54        65.11286
686.97         65.1064
687.39        65.22748
687.82        65.38095
688.24        65.46179
688.66        65.41785
689.09        65.29422
689.51        65.17158
689.94        65.14866
690.36        65.25665
690.78        65.45166
691.21         65.6593
691.63        65.76842
692.06        65.75412
692.48        65.66255
692.90        65.55733
693.33        65.52235
693.75        65.58208
694.17        65.71327
694.60        65.88089
695.02        66.00409
695.44        66.02386
695.87        66.14323
696.29        66.36401
696.71        66.11142
697.14        65.59708
697.56        66.08637
697.98        67.28966
698.41        67.14518
698.83        66.33277
699.25        65.76005
699.68        65.73222
700.10        65.62469
700.52        65.47222
700.94        65.62407
701.37        65.99178
701.79        66.33244
702.21        66.54921
702.64        66.71026
703.06        66.76892
703.48        66.64412
703.90        66.35324
704.33        65.92755
704.75        65.46638
705.17        65.21604
705.59        65.24448
706.01        65.38306
706.44        65.54428
706.86        66.14955
707.28        66.26443
707.70        66.57916
708.12        66.78453
708.55         66.8248
708.97        66.67673
709.39        66.36746
709.81        66.01033
710.23        65.79539
710.66        65.78348
711.08        65.95758
711.50        66.18931
711.92        66.28067
712.34        66.18349
712.76        65.94661
713.19        65.70058
713.61        65.68151
714.03        65.92208
714.45        66.34212
714.87        66.75631
715.29        66.87666
715.71        66.64613
716.13         66.1655
716.56        65.62171
716.98        65.34228
717.40         65.4088
717.82        65.72359
718.24         66.1405
718.66        66.42522
719.08        66.50233
719.50        66.41413
719.92        66.22348
720.34        66.19974
720.76        66.14482
721.19        66.09738
721.61        66.17279
722.03         66.2223
722.45        66.29002
722.87        66.38284
723.29         66.4914
723.71        66.58017
724.13        66.63632
724.55        66.66141
724.97        66.65939
725.39        66.64409
725.81        66.62025
726.23        66.58601
726.65        66.54316
727.07        66.49097
727.49        66.43807
727.91        66.40079
728.33        66.38317
728.75        66.39005
729.17        66.41912
729.59        66.45267
730.01        66.51913
730.43         66.6563
730.85         66.8633
731.27        67.15037
731.69         67.4049
732.10        67.42644
732.52        67.18433
732.94        66.77905
733.36        66.41145
733.78        66.28594
734.20        66.45901
734.62        67.13945
735.04         68.0508
735.46        68.13327
735.88        67.47148
736.30        67.69692
736.72        68.75667
737.13        69.19038
737.55        68.77998
737.97        68.72118
738.39        69.02172
738.81        68.36707
739.23        67.17869
739.65        67.84841
740.06        69.94614
740.48        70.23344
740.90         68.7982
741.32        68.30878
741.74         68.9402
742.16        69.23984
742.57        69.21632
742.99         69.6432
743.41        70.38763
743.83        70.82284
744.25        70.85694
744.67        70.64599
745.08        70.35173
745.50        70.23523
745.92        70.38131
746.34        70.69961
746.75         71.0691
747.17        71.27439
747.59        71.28333
748.01        71.17867
748.42        71.10716
748.84        71.26944
749.26        71.72771
749.68        72.39927
750.09        73.12405
750.51         73.6778
750.93        73.94477
751.35           73.77
751.76        73.28787
752.18        73.05463
752.60        73.06749
753.01        72.82199
753.43        72.40459
753.85        72.37874
754.27        72.79652
754.68        73.42155
755.10        74.08644
755.52        74.65562
755.93        75.03274
756.35         75.2054
756.77        75.27299
757.18        75.27278
757.60        75.22409
758.02        75.46709
758.43        75.81297
758.85        75.14864
759.26        73.89885
759.68        74.05398
760.10        75.35675
760.51        75.90477
760.93        74.93668
761.34        74.13053
761.76        73.62199
762.18         73.3395
762.59        73.37547
763.01        73.58362
763.42        73.99566
763.84        74.56423
764.26        75.20187
764.67        75.64198
765.09        75.74453
765.50        75.54562
765.92        75.04638
766.33         73.8763
766.75        72.49364
767.16        72.08304
767.58        72.78748
768.00        74.04246
768.41        75.54487
768.83        76.95791
769.24        77.65289
769.66        76.88509
770.07        75.20082
770.49        73.51361
770.90        72.35291
771.32        73.34798
771.73        75.79609
772.15        75.56585
772.56        73.03022
772.97        72.56935
773.39        74.11485
773.80        74.58124
774.22        73.78154
774.63        73.56216
775.05        73.91241
775.46        74.05828
775.88        73.92577
776.29        73.74105
776.70        73.56863
777.12        73.53655
777.53        73.68114
777.95        73.89939
778.36        74.07678
778.77        74.01872
779.19        73.72948
779.60        73.28049
780.02        72.83977
780.43        72.75737
780.84        73.14787
781.26        73.46745
781.67        73.71547
782.09         74.8105
782.50        76.22463
782.91        75.54427
783.33        73.37029
783.74        72.69309
784.15        73.65374
784.57         74.2812
784.98         74.2907
785.39        74.24258
785.81        74.07823
786.22        73.50681
786.63        72.86837
787.04        72.80603
787.46        73.38548
787.87        74.40054
788.28        75.48977
788.70        76.03691
789.11        75.88271
789.52        75.23291
789.93         74.4048
790.35        73.84213
790.76        73.68857
791.17         73.8747
791.58        74.22265
792.00        74.42791
792.41        74.39893
792.82        74.12265
793.23        73.87608
793.65        74.01236
794.06        74.55764
794.47        75.65868
794.88        76.66148
795.29        76.00059
795.71        73.94421
796.12         71.8942
796.53        70.51138
796.94        70.22336
797.35        71.08345
797.76        72.46218
798.18        73.76505
798.59        74.69315
799.00        74.90627
799.41        74.15643
799.82        72.87035
800.23        72.04343
800.64        71.89394
801.06        72.05492
801.47        72.44151
801.88        72.81853
802.29        73.07305
802.70        73.31853
803.11        73.53013
803.52        73.62348
803.93        73.60406
804.34        73.45403
804.75        73.26063
805.17        73.27816
805.58        73.60472
805.99        73.86592
806.40        73.94558
806.81         74.4712
807.22        74.98306
807.63        73.65372
808.04        71.15257
808.45        70.14899
808.86        70.88109
809.27        72.02583
809.68        73.09184
810.09        73.73921
810.50        73.71233
810.91        73.13514
811.32        72.31628
811.73        71.75896
812.14        71.61267
812.55        71.68892
812.96        71.93414
813.37        72.24386
813.78        72.54276
814.19        72.93165
814.60        73.19784
815.01        72.98965
815.42        72.27992
815.83         71.1216
816.24        69.97322
816.65        69.65149
817.05        70.38281
817.46        71.90692
817.87        73.59258
818.28        74.30881
818.69        73.75404
819.10        72.21795
819.51        70.42093
819.92        69.58594
820.33        70.03663
820.74        71.40194
821.14        73.01659
821.55        73.69971
821.96        73.18441
822.37        71.88115
822.78        70.37262
823.19        69.51003
823.60         69.5279
824.00        70.20208
824.41        71.13971
824.82        71.77263
825.23        71.85729
825.64        71.58929
826.04        71.18652
826.45        70.95441
826.86        70.97395
827.27        71.11007
827.68        71.24123
828.08        71.21625
828.49        70.93629
828.90        70.52771
829.31        70.07681
829.72        69.72232
830.12         69.5557
830.53        69.51018
830.94        69.61696
831.35        69.90141
831.75        70.38361
832.16        70.99491
832.57        71.64262
832.97        72.09753
833.38        72.22561
833.79        72.07504
834.20         71.7947
834.60        71.62394
835.01        71.64711
835.42        71.78985
835.82        71.92907
836.23        71.77734
836.64        71.32091
837.04        70.69206
837.45        70.07197
837.86        69.74389
838.26        69.78644
838.67        70.07149
839.08        70.51431
839.48        70.94774
839.89        71.25436
840.29        71.48492
840.70        71.57187
841.11        71.40356
841.51        70.99773
841.92        70.36719
842.33        69.71265
842.73        69.38464
843.14         69.4314
843.54        69.79481
843.95        70.23843
844.35        70.41464
844.76         70.2165
845.17        69.77988
845.57        69.26053
845.98        68.89832
846.38        68.76588
846.79        68.75535
847.19         68.8577
847.60        68.98501
848.00        69.12653
848.41        69.28402
848.81        69.42684
849.22        69.42598
849.62        69.31239
850.03         69.1126
850.43        68.94536
850.84        68.96914
851.24        69.26516
851.65        69.62865
852.05        70.11087
852.46         70.6224
852.86        71.11248
853.27        71.62854
853.67        71.79108
854.07        71.13075
854.48        69.70807
854.88        67.70303
855.29        65.80395
855.69        65.00221
856.10         65.4836
856.50        67.13763
856.90        69.37021
857.31        70.77713
857.71        70.90858
858.12        70.07837
858.52        68.89359
858.92        68.15878
859.33        68.06328
859.73        68.38168
860.13        68.97645
860.54        69.56458
860.94        70.06784
861.34        70.55461
861.75        70.98204
862.15        71.35992
862.55        71.65461
862.96        71.83766
863.36        71.94287
863.76        72.01872
864.17        72.08569
864.57         72.1831
864.97        72.34573
865.38        72.61568
865.78        73.03197
866.18        73.49458
866.58        73.94329
866.99         74.2681
867.39        74.47181
867.79        74.60467
868.19        74.52539
868.60        73.98338
869.00        72.98844
869.40        71.66084
869.80        70.57808
870.21        70.60539
870.61        71.98569
871.01        74.45742
871.41         77.2524
871.81        79.03716
872.22        79.43735
872.62        78.78825
873.02        77.74265
873.42        77.59566
873.82          78.396
874.22        79.27941
874.63        80.00989
875.03         80.1869
875.43        79.58076
875.83        79.60477
876.23        77.83972
876.63        76.71835
877.03         75.9074
877.44        75.47385
877.84        107.2774
878.24         81.7521
878.64        83.48618
879.04        85.89384
879.44        81.67794
879.84        79.75915
880.24        85.08012
880.64        87.15748
881.04        87.10547
881.44        86.54665
881.84        85.36041
882.24        83.64726
882.65        82.23257
883.05        81.67587
883.45        82.05186
883.85        83.56708
884.25        85.63564
884.65        86.82764
885.05          86.709
885.45         85.7007
885.85        84.45109
886.25        83.87125
886.65        84.16354
887.05        85.03493
887.45        86.08761
887.85        86.63535
888.25        86.46039
888.65         85.8185
889.04        85.05869
889.44        84.74477
889.84        84.98283
890.24        85.53521
890.64        86.15285
891.04        86.48969
891.44        86.44209
891.84        86.15475
892.24        85.68906
892.64        85.13264
893.04        84.62015
893.44        84.20763
893.83        84.00441
894.23        84.17915
894.63        84.72503
895.03        85.51635
895.43         86.5607
895.83        87.82214
896.23        89.16316
896.63        90.55662
897.02        91.47525
897.42        91.11701
897.82         89.4506
898.22        86.81514
898.62        84.16862
899.01        82.90702
899.41        83.30987
899.81        84.91111
900.21        86.95378
900.61        88.18697
901.00        88.24223
901.40        87.51747
901.80        86.43844
902.20         85.6674
902.59        85.41383
902.99        85.43325
903.39         85.5782
903.79         85.6271
904.18        85.51198
904.58        85.42018
904.98        85.39617
905.38        85.47689
905.77        85.65347
906.17        85.82906
906.57        86.05718
906.96        86.49364
907.36         87.0518
907.76         87.6971
908.15        88.14503
908.55        87.81525
908.95         86.6899
909.34        84.95949
909.74        83.18295
910.14         82.0554
910.53        81.80003
910.93        82.27629
911.33        83.26648
911.72        84.35197
912.12        85.21101
912.52        85.85586
912.91         86.3231
913.31        86.66874
913.70        86.96789
914.10        87.18234
914.49        87.08839
914.89        86.27428
915.29        84.79761
915.68        82.92093
916.08        81.44459
916.47        81.03049
916.87        81.68242
917.26        83.19076
917.66        84.83354
918.05        85.43938
918.45        84.72005
918.84        83.09439
919.24        81.33495
919.64        80.57619
920.03        81.11692
920.42        82.57745
920.82        84.46607
921.21        86.04242
921.61        86.81365
922.00        87.02426
922.40        86.67979
922.79        85.82644
923.19        84.65529
923.58        82.97128
923.98        80.90897
924.37        79.67018
924.77        79.89735
925.16        77.32613
925.55        79.50961
925.95        80.53516
926.34        82.52639
926.74        84.97205
927.13        87.31658
927.52        88.32853
927.92        87.83649
928.31        86.24728
928.70        84.09565
929.10        82.34074
929.49        81.25902
929.89        80.62247
930.28        80.57004
930.67        81.32223
931.07         82.6881
931.46        84.69033
931.85        86.50682
932.24        86.88822
932.64        85.63667
933.03        82.92135
933.42        79.55231
933.82        77.36182
934.21        76.89463
934.60        77.67765
934.99        78.78583
935.39        79.34702
935.78        79.23528
936.17        78.07405
936.56        75.68311
936.96        77.23524
937.35        75.84277
937.74        76.86482
938.13        77.82444
938.53        78.85777
938.92        80.02434
939.31        81.51374
939.70        82.99121
940.09        83.32705
940.49        82.25315
940.88        80.26201
941.27        78.29523
941.66          77.477
942.05        77.92606
942.44        79.26639
942.84        81.04095
943.23        82.48577
943.62        83.19106
944.01        83.35543
944.40         83.0499
944.79        82.37749
945.18        81.39839
945.57        80.00637
945.97        78.37022
946.36        77.03011
946.75        76.38625
947.14         76.3728
947.53        76.76256
947.92        77.25841
948.31         77.7883
948.70         78.4496
949.09        79.13142
949.48        79.54337
949.87        79.53286
950.26        79.06835
950.65        78.41631
951.04        78.03735
951.43        78.02341
951.82        78.28121
952.21        78.45525
952.60        77.96428
952.99        76.72761
953.38        74.97661
953.77        73.23705
954.16        72.24526
954.55        72.15634
954.94         72.8174
955.33        73.69596
955.72        73.89159
956.11        73.19518
956.50        71.83666
956.89         70.5528
957.28        70.67954
957.66        72.60642
958.05        75.63638
958.44        78.78152
958.83        80.61058
959.22        80.75824
959.61        79.59298
960.00        77.74793
960.39        76.26238
960.78         75.4936
961.16        75.22355
961.55        75.03905
961.94        74.24501
962.33        72.76584
962.72        70.99915
963.11         69.5406
963.49        69.11037
963.88        69.81433
964.27         71.4848
964.66        73.59917
965.04        75.00472
965.43        75.11923
965.82        74.27236
966.21         73.1698
966.60        72.78397
966.98        73.31328
967.37        74.43342
967.76        75.62891
968.15        75.92653
968.53        75.08221
968.92        73.46827
969.31          71.748
969.69         70.7507
970.08         70.6323
970.47        71.14983
970.86        71.84784
971.24        71.92464
971.63         71.1423
972.02        69.73875
972.40        68.21152
972.79        67.45286
973.17        67.84326
973.56        69.03256
973.95        70.60867
974.33        71.73448
974.72        71.96455
975.11        71.50592
975.49        70.73605
975.88        70.24235
976.26        70.11962
976.65        70.23731
977.04        70.15662
977.42        68.99255
977.81         66.6888
978.19        63.76976
978.58        61.58543
978.96        61.36299
979.35        63.23392
979.74        66.98378
980.12        71.86495
980.51        75.05271
980.89        75.61665
981.28        74.17669
981.66        71.93198
982.05        70.44123
982.43        70.03031
982.82          70.177
983.20        70.76209
983.59        71.66965
983.97        72.88712
984.35        74.57919
984.74        76.29821
985.12        77.20419
985.51        76.70258
985.89        74.78893
986.28        72.10325
986.66        69.65338
987.04        68.05733
987.43        67.20732
987.81        66.56946
988.20        65.27203
988.58        62.88015
988.96        58.95441
989.35        53.94859
989.73        51.16095
990.12        53.31176
990.50        59.26926
990.88        64.97015
991.27        67.12742
991.65        66.23222
992.03        63.20548
992.42        59.95914
992.80         59.6298
993.18        62.85098
993.56        67.57584
993.95        72.10204
994.33        75.14011
994.71        76.36438
995.10        76.63268
995.48        75.86327
995.86        73.63015
996.24        69.95228
996.63        64.56808
997.01        58.71618
997.39        56.28617
997.77         58.9516
998.15        65.83231
998.54        73.45617
998.92        77.05016
999.30        75.17874
999.68          69.066
1000.06        60.31482
1000.45        53.14057
1000.83        49.60687
1001.21        48.53511
1001.59        49.33794
1001.97        51.43716
1002.35        54.49984
1002.73        59.31413
1003.12        64.66069
1003.50        66.02265
1003.88        61.56681
1004.26        53.52856
1004.64        45.67534
1005.02        41.08925
1005.40         39.8684
1005.78        41.29303
1006.16        46.71375
1006.54        55.93448
1006.92        64.06755
1007.30        69.03603
1007.69        71.02956
1008.07        71.28894
1008.45        70.07738
1008.83        65.80431
1009.21        52.95013
1009.59        14.85234
1009.97       -76.79538
1010.35       -183.6204
1010.73       -145.1541
1011.11       -69.11954
1011.49       -20.07949
1011.86        13.19096
1012.24        31.89738
1012.62        40.73038
1013.00        44.01429
1013.38        43.56706
1013.76        41.23644
1014.14        42.69237
1014.52        52.34607
1014.90        70.81557
1015.28        92.71588
1015.66         102.664
1016.04        91.89043
1016.41        64.78452
1016.79         36.5907
1017.17        22.15005
1017.55        20.47681
1017.93        23.64337
1018.31        28.25081
1018.69        33.24679
1019.06        38.80078
1019.44        45.73562
1019.82        54.93344
1020.20        63.43275
1020.58        65.37534
1020.95        52.64036
1021.33       -10.93503
1021.71        1114.214
1022.09        215.3922
1022.46        171.4847
1022.84         160.797
1023.22        163.4342
1023.60        183.8181
1023.97        404.8837
1024.35        28.43324
1024.73        69.77569
