SpectraSmart Spectrum 2.9.0.0
--------- Device Information -----------
Spectrum Name :  反射率_0
Saving Time :  2024/04/26 01:37:02
Spectro-Module Model Name : SE2030-DUVN
Spectro-Module Serial Number : OS361AC55029948
Wavelength Start : 200
Wavelength End : 1025
Wavelength Unit : Wavelength(nm)
Spectrum Unit : Reflectance(%)
-----------Spectrum Setting ------------
Integration Time : 20ms
Average : 10
Boxcar : 0
Background removal :  enabled
linearity correction :  enabled
SC :  disabled
Intensity correction :  disabled
DWT denoise :  enabled
savitzky-golay :  disabled
FFT :  disabled
Running average :  disabled
Kalman :  disabled
High pass :  disabled
---------------BEGIN--------------------
Wavelength(nm)             Reflectance(%)
200.29               0
200.75        97.10549
201.21        90.89681
201.67        82.99361
202.13        77.19437
202.58        74.15046
203.04        73.11947
203.50        73.36696
203.96        73.83495
204.42        74.05785
204.88        74.27402
205.34        74.73232
205.80        75.81346
206.26        77.95118
206.72        82.22332
207.18        89.62623
207.64        93.81241
208.10        85.51912
208.55        73.96903
209.01        67.57327
209.47        66.09993
209.93        67.48204
210.39        71.06638
210.85        75.02476
211.31        75.34931
211.77        70.91405
212.23        63.20693
212.69        55.68417
213.14        53.73862
213.60        58.13811
214.06        67.55399
214.52        78.26936
214.98        84.51203
215.44        84.86758
215.90        81.10581
216.36        76.17896
216.81        74.17313
217.27        75.92467
217.73        79.64825
218.19        82.88864
218.65        82.50125
219.11        77.42057
219.57        67.22736
220.02        52.99615
220.48        42.66291
220.94        41.51592
221.40        48.11061
221.86        55.88856
222.32        57.54427
222.77        53.18318
223.23        46.39606
223.69        40.55043
224.15        39.06222
224.61        41.51937
225.06        46.24014
225.52        50.46748
225.98        50.87552
226.44        47.12037
226.90        40.89844
227.36        34.62548
227.81        31.51125
228.27        32.42716
228.73        35.94571
229.19        40.63629
229.65        44.35025
230.10        46.32858
230.56        47.22906
231.02        47.40736
231.48        47.22725
231.93        46.86494
232.39        46.25035
232.85        45.47414
233.31        44.78723
233.77        44.25203
234.22        43.82157
234.68        43.59766
235.14        43.64246
235.60        43.94061
236.05        44.51776
236.51        45.06825
236.97        45.08353
237.43        44.52082
237.88        43.54907
238.34        42.62988
238.80        43.14757
239.26        45.74467
239.71        50.09229
240.17        55.39312
240.63        60.66028
241.08        65.30748
241.54        69.15388
242.00        72.15604
242.46        74.70185
242.91        77.73743
243.37        82.43664
243.83        94.33549
244.28        130.7024
244.74        168.5487
245.20        143.5101
245.66        123.5435
246.11        120.4305
246.57        129.1914
247.03        159.9221
247.48        254.5217
247.94        226.6297
248.40         130.411
248.85        98.12318
249.31        87.38795
249.77        84.72793
250.22         86.0358
250.68        90.64295
251.14        97.67348
251.59        100.5712
252.05        94.39962
252.51        82.98378
252.96        72.67749
253.42         69.1654
253.88         71.5092
254.33         77.1337
254.79        84.14015
255.25        89.34155
255.70        91.70044
256.16         92.6788
256.62        92.07092
257.07        89.51138
257.53        85.82075
257.99        80.95065
258.44        76.08931
258.90        73.62242
259.35        72.67336
259.81        72.52007
260.27        71.54332
260.72        68.14661
261.18        63.08524
261.63        57.06173
262.09        51.59093
262.55        47.76816
263.00        45.55927
263.46        44.49779
263.91        43.72955
264.37        42.60255
264.83        40.92074
265.28        38.81504
265.74        36.82151
266.19         35.5093
266.65        35.05986
267.11        35.11635
267.56        35.15591
268.02         34.5501
268.47        33.18988
268.93        31.30263
269.38        29.23995
269.84        27.84344
270.30        27.34671
270.75        27.51647
271.21        27.92776
271.66        27.94178
272.12        27.38155
272.57        26.45384
273.03        25.46621
273.48        24.79766
273.94        24.56224
274.39        24.57703
274.85        24.63673
275.31        24.45067
275.76        23.94867
276.22        23.26502
276.67        22.54678
277.13        22.08029
277.58        21.87135
278.04        21.84344
278.49        21.80799
278.95        21.55131
279.40        21.02046
279.86        20.35431
280.31         19.6609
280.77        19.19917
281.22        18.98204
281.68        18.93763
282.13        18.96962
282.59        18.96881
283.04        18.89707
283.50        18.81968
283.95        18.71316
284.41        18.55163
284.86        18.34012
285.32        18.09174
285.77        17.90012
286.22        17.96497
286.68        18.28148
287.13        18.76024
287.59        19.21257
288.04        19.35487
288.50        19.15795
288.95        18.70637
289.41        18.18592
289.86        17.77988
290.32         17.5964
290.77        17.56781
291.22        17.67989
291.68        17.87217
292.13        18.13037
292.59        18.48207
293.04        18.93684
293.50        19.50168
293.95        20.15623
294.40        20.85829
294.86        21.57047
295.31        22.25352
295.77        22.90833
296.22        23.56331
296.68        24.22101
297.13        24.85352
297.58        25.48598
298.04        26.14095
298.49         26.9133
298.95        27.99089
299.40        29.38236
299.85        31.01789
300.31         32.7159
300.76         34.1892
301.21        35.34393
301.67        36.28942
302.12        37.10791
302.58        38.00319
303.03        39.01665
303.48        40.10997
303.94        41.32813
304.39        42.69032
304.84        44.19408
305.30        45.83601
305.75        47.47198
306.20        48.88979
306.66        50.06857
307.11         51.0288
307.57        51.94951
308.02        53.01264
308.47        54.30326
308.93        55.75951
309.38        57.26785
309.83        58.68801
310.29        59.96224
310.74        61.11187
311.19        62.18118
311.65        63.24152
312.10        64.30994
312.55          65.369
313.00        66.36544
313.46         67.2203
313.91        67.89661
314.36        68.43066
314.82        68.92496
315.27        69.50045
315.72        70.21763
316.18        71.04473
316.63        71.90243
317.08        72.61947
317.53        73.14287
317.99        73.50314
318.44        73.82613
318.89        74.32381
319.35        75.02179
319.80        75.88108
320.25        76.68604
320.70        77.08084
321.16        76.99804
321.61        76.55697
322.06        76.03616
322.51        75.87519
322.97        76.15901
323.42        76.78991
323.87        77.53152
324.32        77.97121
324.78        77.98582
325.23        77.74595
325.68        77.41358
326.13        77.27554
326.59        77.40398
327.04          77.722
327.49        78.17183
327.94        78.68826
328.39        79.22321
328.85        79.78984
329.30        80.34439
329.75        80.66338
330.20        80.72659
330.66        80.57637
331.11        80.45665
331.56        80.69965
332.01        81.40094
332.46        82.45963
332.92        83.67818
333.37        84.84033
333.82        85.74902
334.27         86.4582
334.72        86.94032
335.17        87.17612
335.63        87.20191
336.08        87.06606
336.53        86.89859
336.98        86.95669
337.43        87.31327
337.88        87.91293
338.34        88.67516
338.79         89.5338
339.24        90.39429
339.69        91.28604
340.14        92.08271
340.59        92.56652
341.05        92.70621
341.50        92.54956
341.95        92.32565
342.40        92.40688
342.85        92.87905
343.30        93.64758
343.75        94.51865
344.20        95.13801
344.66         95.4024
345.11        95.39698
345.56        95.26414
346.01        95.21757
346.46        95.32663
346.91        95.52988
347.36        95.75711
347.81        95.90707
348.26        95.96606
348.72        96.00185
349.17        96.06728
349.62        96.29057
350.07        96.68159
350.52        97.16657
350.97        97.65092
351.42        98.00515
351.87        98.18707
352.32        98.23203
352.77        98.15289
353.22        97.97403
353.67        97.72443
354.13        97.42342
354.58        97.09765
355.03        96.84525
355.48        96.68449
355.93        96.59307
356.38        96.52646
356.83        96.40514
357.28        96.19727
357.73        95.91836
358.18        95.56756
358.63        95.14683
359.08        94.67035
359.53        94.14833
359.98         93.6036
360.43        93.07312
360.88        92.56647
361.33        92.07022
361.78        91.60172
362.23        91.18443
362.68        90.81827
363.13        90.50587
363.58        90.17431
364.03        89.70605
364.48        89.08386
364.93        88.33623
365.38        87.58312
365.83        87.02371
366.28        86.69227
366.73        86.51865
367.18        86.36481
367.63        86.00486
368.08        85.39592
368.53        84.64037
368.98        83.84129
369.43         83.1452
369.88        82.60073
370.33        82.15351
370.78        81.81538
371.23        81.61255
371.68        81.52329
372.13        81.53287
372.58        81.54035
373.03         81.3706
373.48        80.99146
373.93        80.46769
374.38        79.89225
374.83        79.40986
375.28        79.06517
375.72        78.80198
376.17        78.63873
376.62        78.57602
377.07        78.58154
377.52         78.6311
377.97        78.63143
378.42        78.43362
378.87        78.01785
379.32        77.45187
379.77        76.80373
380.22        76.17049
380.67        75.58503
381.11        75.01965
381.56        74.52497
382.01        74.18697
382.46        74.02267
382.91        74.03497
383.36        74.08276
383.81        73.93323
384.26          73.545
384.71        72.96822
385.15        72.38853
385.60        72.16161
386.05        72.29046
386.50        72.64727
386.95        72.96902
387.40        72.81945
387.85        72.15079
388.29        71.15475
388.74        70.17942
389.19        69.42849
389.64        68.95254
390.09        68.63899
390.54        68.52359
390.98        68.66528
391.43        69.01591
391.88        69.51965
392.33        69.93989
392.78        69.85245
393.23        69.23539
393.67        68.42065
394.12        67.71654
394.57        66.91026
395.02        66.29227
395.47        66.75705
395.91        68.08007
396.36        68.81916
396.81        68.76582
397.26        68.60783
397.71        68.45564
398.15        68.09777
398.60        67.66721
399.05        67.35275
399.50        67.10715
399.95        66.39436
400.39        65.67146
400.84        65.39295
401.29        65.62403
401.74        65.83772
402.18        65.92756
402.63        65.89186
403.08        65.83031
403.53        65.99976
403.97        66.40068
404.42        66.81962
404.87        67.09532
405.32        67.02231
405.76        66.55264
406.21        65.92816
406.66        65.33249
407.11        64.80038
407.55        64.54449
408.00        64.99843
408.45        65.94197
408.90        66.50554
409.34        66.40297
409.79        65.72653
410.24        64.80389
410.68        64.29931
411.13        64.33231
411.58        64.54575
412.03        64.84964
412.47         65.2358
412.92        65.58678
413.37        65.92445
413.81        66.17876
414.26         66.2867
414.71        66.22257
415.15        65.98266
415.60        65.65723
416.05        65.42242
416.49        65.33514
416.94        65.38478
417.39        65.45235
417.83        65.31148
418.28        64.94677
418.73        64.44971
419.17        64.04467
419.62        64.08859
420.07        64.59621
420.51         65.4296
420.96        66.31467
421.41        66.72095
421.85        66.49687
422.30        66.10012
422.74        65.63805
423.19        64.93744
423.64        64.24859
424.08        64.52233
424.53        65.58105
424.98        66.15833
425.42        66.08524
425.87        66.29395
426.31        66.77417
426.76        66.54696
427.21        65.94793
427.65        66.50844
428.10        67.98301
428.54         68.9445
428.99        69.29263
429.44        69.15493
429.88        68.76983
430.33        69.69123
430.77        71.14148
431.22        70.05431
431.66        67.08759
432.11        65.74422
432.56        66.31645
433.00        67.25831
433.45         68.3431
433.89        70.02351
434.34        71.03881
434.78         72.0097
435.23        68.85356
435.67        66.79507
436.12        69.72103
436.57         70.7929
437.01        71.04753
437.46        71.40212
437.90        72.13294
438.35        70.99821
438.79        72.11776
439.24         71.9145
439.68        71.64381
440.13        71.18188
440.57        70.92387
441.02        71.72126
441.46        73.19195
441.91        74.30914
442.35        74.62979
442.80        73.71822
443.24        72.15444
443.69        72.61996
444.13        74.68652
444.58         75.0858
445.02        73.12914
445.47        72.82014
445.91        73.86627
446.36        74.21577
446.80        73.81131
447.24        73.72973
447.69        74.01326
448.13        74.24932
448.58        74.44952
449.02        74.73017
449.47        75.08575
449.91        75.40695
450.36        75.66133
450.80         75.9947
451.25         76.2861
451.69        76.00379
452.13        75.30669
452.58        74.94435
453.02        74.96605
453.47        74.94042
453.91        74.86367
454.36        75.02953
454.80        75.38314
455.24        75.55824
455.69        75.48743
456.13        75.44162
456.58        75.45308
457.02        74.93326
457.46        74.15068
457.91        74.50227
458.35         75.0677
458.79        75.37486
459.24        75.17577
459.68         74.9367
460.13        74.68254
460.57        74.67328
461.01         74.3205
461.46        73.88204
461.90        73.47009
462.34        73.82406
462.79        73.16444
463.23        73.36603
463.68        73.81186
464.12        74.47408
464.56        75.07442
465.01        75.12371
465.45        74.59902
465.89        74.27264
466.34        74.10665
466.78         73.1574
467.22        71.93034
467.67        71.50495
468.11        72.79318
468.55          73.519
468.99        73.62541
469.44        73.27127
469.88        72.67113
470.32        72.59965
470.77        72.98787
471.21        72.95329
471.65        72.46433
472.10        72.19984
472.54        72.21883
472.98          72.271
473.42        72.34464
473.87        72.64586
474.31        73.00639
474.75        72.92756
475.20         72.4944
475.64        72.34258
476.08        72.55511
476.52        72.50261
476.97        72.14318
477.41        72.62775
477.85        72.90797
478.29        72.38555
478.74         72.7065
479.18        72.43591
479.62        71.67154
480.06        72.26324
480.50        72.52555
480.95        72.98836
481.39        73.16292
481.83         72.2968
482.27        72.47086
482.72        72.23195
483.16        70.91481
483.60        71.11615
484.04        72.46767
484.48        72.93829
484.93        73.08751
485.37        74.30392
485.81        74.84094
486.25        73.84074
486.69        100.5787
487.14        80.61811
487.58        50.15213
488.02         61.4589
488.46        70.05904
488.90         69.8882
489.34        71.67674
489.79        70.40984
490.23        72.53367
490.67        73.14044
491.11        72.01739
491.55        72.14806
491.99        73.00915
492.43        72.98514
492.88        72.11601
493.32        71.94006
493.76        72.00471
494.20        72.16605
494.64        72.18864
495.08        72.38354
495.52        72.73531
495.96        72.61898
496.41        72.08745
496.85        72.62865
497.29        73.88634
497.73        72.69882
498.17         70.1767
498.61        70.52534
499.05         73.6768
499.49        74.19116
499.93        73.67929
500.37        73.36852
500.82        73.19078
501.26        73.07242
501.70        73.50456
502.14         73.7173
502.58        73.52071
503.02        73.39561
503.46        73.26065
503.90         72.8988
504.34        72.45677
504.78        72.30171
505.22        72.46726
505.66        72.89682
506.10        73.43067
506.54        73.56879
506.98        73.18102
507.42        73.19345
507.86        72.59724
508.30         72.1595
508.74        72.46809
509.18        72.75197
509.62         73.1163
510.06         73.3123
510.50        73.29152
510.94        73.11454
511.38        72.88204
511.82        72.76605
512.26         72.8106
512.70        72.95744
513.14        73.13857
513.58        73.25169
514.02        73.25954
514.46         73.1913
514.90        73.09631
515.34        73.03311
515.78        73.00967
516.22        73.06482
516.66         73.1498
517.10        73.03328
517.54        72.70444
517.98        72.76126
518.42        72.49437
518.86        72.57884
519.30        72.79229
519.74        73.15091
520.18        73.55189
520.62        73.82397
521.06        73.92569
521.50        73.89829
521.93        73.78316
522.37        73.65037
522.81        73.53793
523.25        73.42996
523.69        73.34679
524.13        73.31953
524.57        73.35294
525.01        73.44784
525.45        73.57446
525.89        73.67719
526.32         73.7298
526.76         73.7375
527.20        73.71674
527.64        73.71609
528.08        73.76143
528.52        73.77673
528.96        73.70387
529.40        73.66381
529.83        73.69004
530.27        73.00293
530.71        73.11549
531.15        72.97446
531.59        73.03347
532.03        73.21777
532.46        73.48868
532.90        73.74439
533.34        73.92947
533.78        74.06643
534.22        74.14345
534.66         74.1531
535.09        74.08843
535.53        73.97649
535.97        73.82282
536.41        73.66331
536.85        73.51939
537.28        73.39568
537.72        73.30691
538.16        73.27893
538.60        73.30145
539.04        73.34116
539.47        73.38466
539.91        73.49297
540.35        73.55251
540.79        73.73369
541.22         73.2769
541.66        73.19759
542.10        73.27217
542.54        73.30685
542.97        73.30212
543.41         73.3907
543.85        73.56519
544.29        73.80927
544.72        73.99432
545.16        73.94857
545.60        73.64362
546.04        73.13416
546.47         72.6482
546.91        72.56552
547.35        72.94801
547.79        73.69179
548.22        74.45496
548.66        74.75095
549.10        74.44553
549.53        73.55323
549.97         72.4929
550.41         72.0495
550.84        72.32298
551.28        72.84749
551.72        73.39408
552.15        73.78725
552.59         73.9188
553.03        73.81121
553.46        73.54698
553.90        73.38857
554.34        73.38829
554.77        73.31919
555.21        73.20074
555.65        73.40973
556.08        73.90496
556.52        73.52763
556.96        73.94396
557.39        73.67024
557.83        73.35791
558.27        73.37348
558.70        73.71977
559.14        73.90512
559.57          73.992
560.01        74.17514
560.45        74.42488
560.88        74.44925
561.32        74.26307
561.75        74.04366
562.19        73.85886
562.63        73.42186
563.06        72.89541
563.50        72.94928
563.93        73.45544
564.37        73.68188
564.80        73.55606
565.24        73.51773
565.68        73.56558
566.11        73.57269
566.55         73.6028
566.98        73.54204
567.42        73.45476
567.85        73.77594
568.29        74.42034
568.72        74.40931
569.16        73.99428
569.60        74.54459
570.03        74.88199
570.47        74.99732
570.90        74.98857
571.34        72.62171
571.77        73.87318
572.21        73.83768
572.64        73.67075
573.08        72.44466
573.51        69.24121
573.95        72.01329
574.38        76.82913
574.82         75.1361
575.25        74.21124
575.69        71.91437
576.12        71.01767
576.56        69.88419
576.99        71.32803
577.42        74.55726
577.86        74.60077
578.29           74.06
578.73        77.95065
579.16        71.98734
579.60        65.58181
580.03        68.49769
580.47        72.93597
580.90        74.70258
581.33        73.33313
581.77        72.40269
582.20        79.60926
582.64        79.42547
583.07        67.74448
583.51        66.40541
583.94        65.07269
584.37        67.97569
584.81        71.60178
585.24        75.47657
585.68        77.12939
586.11        75.99212
586.54        70.76698
586.98        68.22346
587.41        68.61172
587.85        72.67117
588.28        75.34722
588.71        71.62528
589.15        69.14197
589.58        70.99603
590.01        71.10501
590.45        72.09962
590.88         72.8686
591.31        72.26675
591.75        72.06047
592.18        71.97783
592.61        73.13651
593.05        73.65113
593.48        76.99029
593.91        78.09489
594.35        71.96504
594.78        70.11167
595.21        69.57433
595.65        72.74018
596.08        75.99143
596.51        72.96018
596.94        70.75505
597.38        71.33241
597.81        74.24359
598.24        76.10979
598.68         74.5069
599.11        73.15895
599.54        76.19562
599.97        77.72366
600.41        72.36128
600.84        72.55312
601.27        74.17065
601.70        73.01723
602.14        73.13094
602.57        72.04076
603.00        72.61294
603.43        74.20687
603.87        75.77896
604.30        75.74301
604.73        73.22771
605.16        71.66855
605.60        72.55729
606.03        73.73671
606.46        74.90719
606.89        74.61058
607.32        72.00185
607.76        72.01731
608.19        74.36221
608.62         73.6185
609.05        72.39246
609.48        72.91586
609.92        72.75893
610.35        72.22575
610.78        74.41913
611.21        75.46382
611.64        71.88226
612.07         72.6967
612.50        73.18449
612.94        73.69415
613.37        73.10625
613.80        73.23267
614.23         73.7717
614.66         73.5878
615.09          73.687
615.52        73.73685
615.96          73.832
616.39        73.99535
616.82        72.96439
617.25        72.62984
617.68        73.31074
618.11        74.04829
618.54        74.67129
618.97        74.15594
619.40        72.94765
619.84        72.74387
620.27        73.93555
620.70        74.62706
621.13        74.70414
621.56        74.08185
621.99        73.10741
622.42        73.78139
622.85        75.59328
623.28        75.42376
623.71        74.82571
624.14        74.65327
624.57        74.76538
625.00        74.15427
625.43        74.56265
625.86        73.76099
626.29        73.74873
626.72        74.20562
627.15        74.06979
627.58        74.35294
628.01         74.3914
628.44        75.12432
628.87        74.70567
629.30        74.54005
629.73         75.2315
630.16        75.55355
630.59        75.09216
631.02        74.60637
631.45        74.08202
631.88        73.75601
632.31        73.67218
632.74        73.82282
633.17        73.94147
633.60        74.08179
634.03         74.1425
634.46        74.15937
634.89        74.15276
635.32        74.13205
635.75        74.16338
636.18        74.17425
636.61        74.18994
637.04        74.23568
637.47        74.30804
637.89        74.41586
638.32        74.49625
638.75        74.48074
639.18        74.35559
639.61        74.20661
640.04        73.97987
640.47        73.81911
640.90         73.7232
641.33        73.67484
641.76         73.6491
642.18        73.71107
642.61        73.85026
643.04        73.87999
643.47         73.7429
643.90        74.30554
644.33        74.02792
644.76         74.1516
645.18        74.20335
645.61        74.18324
646.04        74.07219
646.47        73.85875
646.90        73.66296
647.33        73.62283
647.75        73.79146
648.18        74.18685
648.61        74.54584
649.04        74.49139
649.47        73.98827
649.89        72.91557
650.32        71.81661
650.75        71.94719
651.18        73.16037
651.61        74.05373
652.03        74.20337
652.46        74.03152
652.89        73.95132
653.32        73.28732
653.74        72.41598
654.17        74.19631
654.60        74.69486
655.03        72.29321
655.46         73.0461
655.88        77.36551
656.31        82.66032
656.74        187.7989
657.16        121.6052
657.59        42.71627
658.02        32.14133
658.45        55.71622
658.87        71.35954
659.30        74.68513
659.73        73.84415
660.15        71.62088
660.58        73.79252
661.01        75.52368
661.44        73.04372
661.86        72.15123
662.29        72.04141
662.72        72.91898
663.14        74.48882
663.57        74.54884
664.00        73.33671
664.42        73.10857
664.85        73.92979
665.27        74.31375
665.70        74.08334
666.13        73.80833
666.55        73.49451
666.98        72.97507
667.41           72.42
667.83         72.1708
668.26        72.29578
668.69        72.66322
669.11        73.05553
669.54        73.47707
669.96         73.1723
670.39        72.79333
670.82        72.32887
671.24        72.15953
671.67        72.38201
672.09        72.76234
672.52        73.08012
672.94        73.66666
673.37        73.21651
673.80        73.12322
674.22        73.06672
674.65        72.99976
675.07        72.91315
675.50        72.69412
675.92        72.43845
676.35        72.39775
676.77        72.60036
677.20        72.89671
677.62        73.19937
678.05        73.36901
678.47        73.35085
678.90        73.20271
679.32        73.02093
679.75        72.80096
680.17        72.86223
680.60        72.99281
681.02        73.16322
681.45        73.02811
681.87        72.62813
682.30        72.34596
682.72          72.284
683.15        72.29379
683.57        72.44117
684.00         72.8843
684.42        73.59072
684.85        73.92592
685.27        73.84148
685.70        73.55724
686.12        73.18697
686.54        72.90524
686.97        72.77402
687.39        72.78568
687.82        72.87542
688.24        72.96642
688.66        73.01202
689.09        73.05476
689.51        73.12571
689.94        73.23639
690.36        73.39687
690.78        73.56235
691.21        73.68873
691.63        73.77806
692.06        73.79678
692.48        73.64239
692.90        73.41225
693.33         73.3561
693.75        73.50511
694.17        73.75528
694.60        74.01737
695.02        74.15528
695.44        74.09216
695.87         74.0516
696.29        74.07925
696.71        73.71333
697.14        73.21258
697.56        73.74259
697.98        74.93588
698.41        75.16695
698.83        74.10609
699.25        73.58769
699.68        73.62167
700.10        73.53458
700.52        73.35294
700.94         73.4758
701.37        73.83418
701.79        74.17569
702.21        74.40739
702.64        74.60654
703.06        74.71024
703.48        74.60574
703.90        74.31059
704.33        73.87066
704.75        73.40842
705.17        73.21426
705.59        73.35454
706.01        73.62104
706.44        73.90613
706.86        74.62291
707.28        74.70016
707.70        75.08097
708.12         75.3776
708.55        75.13482
708.97         74.4895
709.39        74.23936
709.81        74.43027
710.23        74.44036
710.66        74.26785
711.08        74.36711
711.50        74.63757
711.92        74.71115
712.34        74.54794
712.76        74.24007
713.19        73.93389
713.61        73.89819
714.03        74.17079
714.45        74.65657
714.87        75.14576
715.29        75.31519
715.71        75.09539
716.13        74.59216
716.56        74.00609
716.98        73.69335
717.40         73.7417
717.82        74.04626
718.24        74.45158
718.66        74.69329
719.08        74.69154
719.50           74.53
719.92        74.29654
720.34        74.14799
720.76        74.13373
721.19        74.07817
721.61         74.1816
722.03        74.25263
722.45        74.33796
722.87        74.44856
723.29        74.57495
723.71        74.68834
724.13        74.77628
724.55        74.83326
724.97        74.86932
725.39         74.9101
725.81        74.95816
726.23        75.00614
726.65        75.03311
727.07        75.00322
727.49         74.9197
727.91        74.81118
728.33        74.71142
728.75        74.67464
729.17        74.71741
729.59         74.8133
730.01        74.96231
730.43        75.18406
730.85        75.47438
731.27        75.79275
731.69        76.03191
732.10        76.31406
732.52        76.10027
732.94        75.87344
733.36        75.65191
733.78        75.55634
734.20        75.62004
734.62        76.20532
735.04        77.04302
735.46        76.77151
735.88        75.71362
736.30        75.91368
736.72        77.31602
737.13        77.88679
737.55        77.34621
737.97        77.36295
738.39        77.91459
738.81        77.16909
739.23        75.65424
739.65        76.47894
740.06         79.1002
740.48         79.4342
740.90         77.5627
741.32        76.73076
741.74        77.20747
742.16        77.39719
742.57        77.34915
742.99        77.92261
743.41        78.91872
743.83        79.54703
744.25        79.67229
744.67        79.48773
745.08        79.19044
745.50        79.10248
745.92        79.32637
746.34        79.73851
746.75        80.19704
747.17        80.46091
747.59        80.49231
748.01        80.39104
748.42         80.3156
748.84         80.4837
749.26        80.97993
749.68        81.68346
750.09        82.41779
750.51        83.08037
750.93        83.46307
751.35        83.02473
751.76        82.04652
752.18        81.67339
752.60        81.93954
753.01        82.01689
753.43        81.87502
753.85        82.04474
754.27        82.53248
754.68        83.09924
755.10        83.64989
755.52        84.19754
755.93         84.6723
756.35        84.98132
756.77        85.16538
757.18        85.27061
757.60        85.33301
758.02        85.56896
758.43        85.67258
758.85        85.40353
759.26        83.47717
759.68        83.29273
760.10        84.28205
760.51        84.97712
760.93        84.92876
761.34        84.28465
761.76        83.60967
762.18        82.76451
762.59        82.20632
763.01        82.46584
763.42          83.563
763.84        84.52818
764.26        85.15322
764.67        85.73379
765.09        86.09807
765.50        85.93133
765.92        85.24643
766.33        83.87461
766.75         82.3295
767.16        81.66385
767.58        82.11964
768.00        83.56571
768.41        85.61135
768.83        87.23424
769.24        87.73665
769.66        86.78973
770.07        85.03963
770.49        83.33736
770.90        82.21184
771.32        83.36957
771.73        85.99214
772.15         85.6028
772.56        82.64753
772.97        81.88773
773.39        83.34614
773.80        83.92525
774.22        83.41891
774.63        83.62465
775.05         84.3803
775.46        84.72334
775.88        84.50687
776.29        83.95755
776.70        83.31499
777.12        83.04623
777.53        83.27281
777.95        83.79292
778.36        84.34772
778.77        84.49673
779.19        84.17453
779.60        83.52279
780.02        82.84875
780.43        82.70685
780.84        83.25899
781.26        83.87308
781.67        84.40626
782.09        85.57318
782.50        86.77655
782.91        85.58048
783.33        82.80559
783.74        81.86121
784.15        82.94771
784.57        83.88171
784.98        84.23336
785.39         84.3921
785.81        84.22581
786.22        83.47859
786.63        82.60037
787.04        82.41433
787.46        83.02639
787.87        84.16959
788.28        85.42218
788.70        86.07076
789.11        85.92983
789.52        85.24842
789.93         84.3838
790.35        83.83023
790.76        83.73466
791.17        83.99918
791.58        84.43132
792.00        84.65531
792.41        84.56298
792.82        84.30757
793.23         84.1244
793.65        83.95219
794.06        83.97588
794.47        85.13319
794.88        86.68672
795.29        86.18617
795.71        83.89095
796.12        81.89243
796.53        80.80606
796.94         80.4183
797.35        80.83468
797.76        82.07601
798.18        83.55001
798.59        84.45906
799.00        84.44488
799.41        83.55731
799.82        82.26154
800.23        81.47172
800.64        81.40298
801.06        81.69487
801.47        82.23161
801.88        82.70997
802.29        82.99818
802.70        83.23048
803.11        83.38405
803.52         83.3874
803.93        83.25534
804.34        82.95488
804.75        82.64412
805.17         82.6596
805.58        83.09708
805.99        83.66566
806.40        84.12138
806.81        84.53813
807.22        84.58115
807.63        83.28443
808.04        81.24072
808.45        80.31158
808.86        80.71238
809.27        81.58869
809.68        82.53146
810.09        83.11172
810.50        83.10239
810.91        82.65749
811.32        82.03271
811.73        81.64026
812.14         81.5997
812.55        81.73279
812.96        81.99701
813.37        82.31866
813.78        82.63335
814.19        83.02731
814.60        83.28606
815.01        83.06242
815.42        82.33089
815.83        81.14621
816.24        79.98043
816.65        79.66819
817.05        80.44242
817.46         82.0349
817.87         83.7869
818.28        84.51391
818.69        83.90617
819.10        82.26709
819.51         80.3674
819.92        79.52532
820.33        80.07948
820.74        81.59611
821.14        83.35609
821.55        84.13599
821.96        83.62144
822.37        82.14972
822.78        80.34729
823.19        79.22994
823.60        79.06111
824.00        79.53405
824.41        80.30399
824.82        80.95807
825.23        81.27263
825.64        81.40593
826.04        81.42011
826.45        81.38784
826.86        81.33907
827.27        81.18449
827.68        80.96461
828.08        80.82082
828.49        80.72256
828.90        80.72799
829.31        80.73007
829.72        80.51385
830.12        80.08137
830.53        79.50021
830.94        79.02891
831.35        79.00651
831.75        79.52728
832.16        80.42123
832.57        81.46737
832.97        82.19694
833.38        82.36868
833.79         82.1076
834.20        81.64083
834.60        81.31914
835.01        81.26984
835.42        81.38701
835.82        81.51756
836.23        81.32745
836.64        80.79594
837.04        80.06873
837.45        79.39402
837.86        79.15244
838.26        79.43571
838.67        80.08395
839.08        80.87582
839.48        81.40617
839.89        81.50314
840.29        81.29991
840.70        80.92828
841.11         80.5757
841.51         80.3221
841.92        80.08316
842.33        79.90136
842.73        79.86678
843.14        79.94405
843.54        80.16002
843.95        80.36064
844.35        80.34486
844.76        80.06049
845.17        79.59526
845.57        79.07999
845.98        78.72843
846.38        78.59966
846.79         78.6011
847.19        78.72811
847.60        78.87345
848.00         79.0238
848.41        79.17548
848.81        79.29646
849.22        79.26112
849.62        79.11038
850.03         78.8762
850.43        78.68671
850.84        78.69051
851.24        78.97863
851.65        79.31635
852.05        79.80857
852.46        80.43461
852.86        81.14404
853.27        81.97242
853.67        82.38477
854.07         81.6872
854.48        79.92841
854.88        77.35739
855.29        74.90607
855.69        73.93053
856.10        74.69228
856.50        77.02345
856.90        80.07249
857.31        81.85466
857.71        81.73176
858.12        80.21442
858.52        78.24492
858.92        77.07843
859.33        76.98976
859.73        77.63013
860.13        78.73098
860.54        79.72671
860.94        80.42336
861.34        80.96477
861.75        81.35316
862.15        81.67297
862.55         81.9204
862.96        82.00574
863.36        82.00051
863.76          82.022
864.17        82.10519
864.57        82.29205
864.97        82.53778
865.38        82.74683
865.78        82.93849
866.18        83.05719
866.58        83.16612
866.99        83.35583
867.39        83.70321
867.79        84.22177
868.19        84.63821
868.60         84.4463
869.00        83.57605
869.40        82.17435
869.80        80.98201
870.21        81.14067
870.61        82.95004
871.01        86.05496
871.41        89.43351
871.81        91.33808
872.22        91.29926
872.62        89.82806
873.02        87.93056
873.42        87.30298
873.82        88.20705
874.22        89.94821
874.63        91.95037
875.03        92.93845
875.43        92.31731
875.83        91.14452
876.23        89.20981
876.63        88.42471
877.03        88.95084
877.44        90.96402
877.84        101.6328
878.24        97.72875
878.64        97.28309
879.04        95.83882
879.44        92.43666
879.84        90.79325
880.24        93.65683
880.64         95.7439
881.04        97.57127
881.44        98.71423
881.84        98.26563
882.24        96.64545
882.65        94.95452
883.05         94.4287
883.45        95.29678
883.85        97.34152
884.25        99.76253
884.65        101.0029
885.05        100.5939
885.45        99.10188
885.85        97.40706
886.25        96.69991
886.65        97.22327
887.05        98.56078
887.45        100.2063
887.85        101.2612
888.25        101.3957
888.65        100.9439
889.04        100.1377
889.44        99.37316
889.84        98.79771
890.24        98.24979
890.64        97.84928
891.04        97.80982
891.44        98.11823
891.84        98.75925
892.24        99.40475
892.64        99.42228
893.04        98.74474
893.44        97.67721
893.83        96.63795
894.23        96.25254
894.63        96.62445
895.03        97.46999
895.43        98.73733
895.83        100.2924
896.23         101.929
896.63        103.6744
897.02        104.9005
897.42         104.611
897.82         102.751
898.22        99.69393
898.62        96.57983
899.01        95.08688
899.41        95.56168
899.81        97.46519
900.21        99.87463
900.61        101.2677
901.00        101.2123
901.40        100.1951
901.80        98.82091
902.20        98.02395
902.59        98.08542
902.99         98.6913
903.39        99.48398
903.79        99.88721
904.18        99.72514
904.58        99.24313
904.98        98.77588
905.38        98.81454
905.77        99.40794
906.17        100.3205
906.57        101.1927
906.96        101.5598
907.36        101.2783
907.76        100.5623
908.15        99.61082
908.55        98.63746
908.95        97.81901
909.34        97.05091
909.74        96.51393
910.14        96.30452
910.53          96.437
910.93        96.95442
911.33        97.62824
911.72        98.04124
912.12        98.02763
912.52        97.66718
912.91        97.29711
913.31        97.37653
913.70        98.02753
914.10        99.15858
914.49         100.382
914.89        100.6009
915.29        99.50313
915.68        97.46712
916.08        95.56679
916.47        94.77206
916.87        95.20442
917.26        96.56147
917.66        98.07417
918.05         98.5303
918.45        97.63175
918.84          95.811
919.24        93.96646
919.64        93.39554
920.03        94.41404
920.42        96.61927
920.82        99.18456
921.21        100.7998
921.61        100.8835
922.00        99.89949
922.40         98.4127
922.79          97.172
923.19        96.44052
923.58        95.97887
923.98        95.59053
924.37        95.05686
924.77        94.51872
925.16        92.95616
925.55        93.08791
925.95        93.72841
926.34        95.66353
926.74        98.28209
927.13        100.9217
927.52        102.2983
927.92        102.2112
928.31        101.0761
928.70         99.2743
929.10        97.47279
929.49        95.92043
929.89        94.46619
930.28         93.5343
930.67        93.83827
931.07        95.31071
931.46        97.82376
931.85        100.3103
932.24        101.1345
932.64        99.96918
933.03        97.11908
933.42        93.44075
933.82        90.89244
934.21        90.11833
934.60        90.62804
934.99        91.60521
935.39        92.10683
935.78         91.9631
936.17        91.23051
936.56         89.9073
936.96        90.40448
937.35        89.98084
937.74        90.63146
938.13        91.29047
938.53        92.06311
938.92        92.98167
939.31         94.1695
939.70        95.28615
940.09        95.37592
940.49        94.23953
940.88        92.32832
941.27        90.44618
941.66        89.52145
942.05        89.66049
942.44        90.57255
942.84        91.89217
943.23        93.06518
943.62        93.74087
944.01        94.01078
944.40        93.95013
944.79        93.68427
945.18        93.25884
945.57        92.62337
945.97        91.63603
946.36        90.23582
946.75        88.72723
947.14        87.39842
947.53        86.65019
947.92        86.79565
948.31        87.77718
948.70        89.53628
949.09        91.64845
949.48        93.02999
949.87        93.16175
950.26        92.23852
950.65        90.88622
951.04        90.13538
951.43        90.25171
951.82        90.94746
952.21         91.7392
952.60        91.84695
952.99        91.08419
953.38        89.75071
953.77        88.34803
954.16        87.55991
954.55        87.53487
954.94        88.09838
955.33        88.76503
955.72         88.7317
956.11        87.82637
956.50        86.29462
956.89        84.81446
957.28        84.61111
957.66        86.07661
958.05         88.5592
958.44        91.26292
958.83        93.01843
959.22        93.47687
959.61        92.91184
960.00        91.67478
960.39        90.34194
960.78        89.16513
961.16        88.07386
961.55        86.92734
961.94         85.5639
962.33        84.07265
962.72        82.66744
963.11         81.7352
963.49        81.72488
963.88        82.65055
964.27        84.40732
964.66        86.45439
965.04        87.60999
965.43        87.31625
965.82        85.96899
966.21        84.32008
966.60        83.37515
966.98        83.34146
967.37        83.87817
967.76        84.63161
968.15        84.91795
968.53        84.52378
968.92        83.70325
969.31        82.77418
969.69        82.09039
970.08        81.74924
970.47        81.64188
970.86        81.61256
971.24        81.41922
971.63        80.99796
972.02        80.45377
972.40        80.05925
972.79        80.23891
973.17        81.20584
973.56        82.69002
973.95        84.35155
974.33        85.48998
974.72        85.71314
975.11        85.13544
975.49        84.18101
975.88        83.53452
976.26        83.30804
976.65        83.41262
977.04        83.29895
977.42         81.8285
977.81        78.91125
978.19        75.20107
978.58        72.46721
978.96        72.43228
979.35        75.27966
979.74        80.71726
980.12        87.54156
980.51         91.6755
980.89        91.76644
981.28        88.92171
981.66        85.04007
982.05        82.60359
982.43        82.06233
982.82         82.5634
983.20        83.82246
983.59        85.56346
983.97        87.69455
984.35        90.51978
984.74        93.29866
985.12        94.56676
985.51        93.41425
985.89         90.0256
986.28        85.56799
986.66        82.09074
987.04        80.49188
987.43         80.3402
987.81        80.78841
988.20        80.73033
988.58        79.80207
988.96        77.99363
989.35        75.61905
989.73        74.80386
990.12         76.7536
990.50        80.55177
990.88        83.70278
991.27        84.45182
991.65        83.15847
992.03        80.39497
992.42        77.43186
992.80        76.31464
993.18        77.67552
993.56        80.23722
993.95        82.96724
994.33        85.19972
994.71        86.62714
995.10        87.71406
995.48        88.20568
995.86        87.49595
996.24        85.51334
996.63        82.15197
997.01        78.29032
997.39        76.65415
997.77        78.41637
998.15         82.8568
998.54        87.70998
998.92        90.05956
999.30        88.90812
999.68        85.13189
1000.06         79.5034
1000.45        74.22758
1000.83        70.59818
1001.21        68.18506
1001.59         67.2479
1001.97        68.07913
1002.35        70.53242
1002.73        75.11999
1003.12        80.57818
1003.50         82.5475
1003.88        78.95849
1004.26        71.82094
1004.64        64.91798
1005.02         61.5743
1005.40        62.13002
1005.78        66.33438
1006.16        74.83804
1006.54        83.89629
1006.92        87.93364
1007.30        87.83212
1007.69        86.45258
1008.07        86.05981
1008.45        87.08206
1008.83        89.58129
1009.21        93.84545
1009.59        94.51675
1009.97        67.92802
1010.35       -3.364569
1010.73       -24.53659
1011.11        5.346738
1011.49        35.25029
1011.86        58.51632
1012.24        72.58327
1012.62         79.3343
1013.00        81.83662
1013.38        82.08975
1013.76         81.8027
1014.14        85.45422
1014.52        96.41961
1014.90         114.434
1015.28        135.1239
1015.66        147.4554
1016.04        143.6268
1016.41        124.6776
1016.79        99.17381
1017.17        77.39049
1017.55        64.13272
1017.93        56.83048
1018.31        53.63806
1018.69        53.74513
1019.06        56.53849
1019.44        61.82952
1019.82        71.34354
1020.20        85.98363
1020.58        106.7607
1020.95        139.3709
1021.33        197.1013
1021.71       -522.1287
1022.09        65.22607
1022.46        102.4437
1022.84        117.2591
1023.22        127.2936
1023.60        142.3996
1023.97        262.5996
1024.35        62.56795
1024.73        83.62035
