SpectraSmart Spectrum 2.9.0.0
--------- Device Information -----------
Spectrum Name :  反射率_0
Saving Time :  2024/04/26 01:56:50
Spectro-Module Model Name : SE2030-DUVN
Spectro-Module Serial Number : OS361AC55029948
Wavelength Start : 200
Wavelength End : 1025
Wavelength Unit : Wavelength(nm)
Spectrum Unit : Reflectance(%)
-----------Spectrum Setting ------------
Integration Time : 20ms
Average : 10
Boxcar : 0
Background removal :  enabled
linearity correction :  enabled
SC :  disabled
Intensity correction :  disabled
DWT denoise :  enabled
savitzky-golay :  disabled
FFT :  disabled
Running average :  disabled
Kalman :  disabled
High pass :  disabled
---------------BEGIN--------------------
Wavelength(nm)             Reflectance(%)
200.29               0
200.75        82.97177
201.21        76.28213
201.67        69.06116
202.13        65.13364
202.58        64.88154
203.04        67.43189
203.50        71.32664
203.96        73.95798
204.42        74.48981
204.88        73.82809
205.34        72.96845
205.80        72.97507
206.26        74.31742
206.72         77.6361
207.18        83.94507
207.64        88.52481
208.10        83.10275
208.55        74.45779
209.01        69.52978
209.47        68.46867
209.93        69.78989
210.39        73.02962
210.85        76.73742
211.31        77.67976
211.77        74.90694
212.23        69.54161
212.69        64.64581
213.14        65.07976
213.60        71.31334
214.06        81.86835
214.52        92.76805
214.98        98.03045
215.44        96.33421
215.90        89.72695
216.36        81.46648
216.81        76.08577
217.27        74.80903
217.73        76.02503
218.19        77.19621
218.65         74.8601
219.11        67.68544
219.57        54.99724
220.02        38.30986
220.48         27.4015
220.94        28.40179
221.40        39.08649
221.86        50.63023
222.32        53.54879
222.77        48.41135
223.23        39.99265
223.69        32.89908
224.15        31.83694
224.61        36.28975
225.06        43.79917
225.52        51.12727
225.98        54.24904
226.44        52.45929
226.90        47.63527
227.36        41.90967
227.81        38.06914
228.27        37.14014
228.73        38.03238
229.19        40.05387
229.65        42.18898
230.10        43.91107
230.56         45.4128
231.02        46.69963
231.48          47.749
231.93        48.56878
232.39        49.15394
232.85        49.38673
233.31        49.17054
233.77        48.51181
234.22        47.43852
234.68        46.24986
235.14        45.49183
235.60        45.37217
236.05        45.81853
236.51        46.47276
236.97        46.71993
237.43        46.44976
237.88        45.88208
238.34        45.31356
238.80        45.71384
239.26        47.48219
239.71        50.28892
240.17        53.56064
240.63        56.78162
241.08        59.68869
241.54        62.33587
242.00        64.39761
242.46        65.53692
242.91        65.94317
243.37        64.79184
243.83        63.18471
244.28        79.30425
244.74        137.8862
245.20        155.1825
245.66        147.0758
246.11        144.0586
246.57        146.6084
247.03        156.1893
247.48        171.5249
247.94        114.9929
248.40        86.90983
248.85        83.66132
249.31        85.10718
249.77        88.09939
250.22        92.66988
250.68        100.1595
251.14        110.0784
251.59        114.6115
252.05        107.1786
252.51        92.09862
252.96        76.91927
253.42        68.13833
253.88        64.98017
254.33        65.16477
254.79        68.34355
255.25        73.29207
255.70        78.48857
256.16        83.70159
256.62        86.86031
257.07        85.88464
257.53        81.78352
257.99        75.46105
258.44         69.0705
258.90        66.00445
259.35        65.45151
259.81        66.13761
260.27        66.05446
260.72        63.28366
261.18        58.55123
261.63        52.72006
262.09        47.45368
262.55        44.01588
263.00        42.33353
263.46        41.82287
263.91        41.48066
264.37        40.48728
264.83        38.68991
265.28        36.31574
265.74        34.07478
266.19         32.8039
266.65         32.6858
267.11        33.22539
267.56        33.74095
268.02        33.43324
268.47        32.18909
268.93        30.30439
269.38          28.198
269.84        26.81879
270.30        26.43687
270.75         26.7817
271.21        27.39039
271.66        27.57597
272.12        27.14303
272.57        26.30613
273.03         25.3953
273.48        24.82128
273.94         24.6982
274.39        24.83086
274.85        24.96436
275.31        24.73622
275.76        24.07949
276.22         23.1691
276.67        22.23302
277.13        21.67322
277.58        21.51178
278.04        21.62306
278.49        21.75502
278.95          21.605
279.40        21.09794
279.86        20.40293
280.31        19.64731
280.77        19.11727
281.22        18.84198
281.68         18.7451
282.13        18.73602
282.59        18.71686
283.04        18.64712
283.50          18.581
283.95         18.4969
284.41        18.36911
284.86        18.19474
285.32         17.9859
285.77        17.79818
286.22        17.77513
286.68        17.91341
287.13        18.15005
287.59        18.36554
288.04        18.38019
288.50        18.18123
288.95        17.81749
289.41        17.40966
289.86        17.04569
290.32        16.80776
290.77        16.65441
291.22        16.60952
291.68        16.67058
292.13         16.8377
292.59        17.11899
293.04        17.49073
293.50        17.91033
293.95         18.3511
294.40        18.79099
294.86        19.23502
295.31        19.70757
295.77        20.21494
296.22         20.7549
296.68        21.28214
297.13         21.6953
297.58        22.00242
298.04        22.25647
298.49        22.57865
298.95        23.18977
299.40        24.11944
299.85        25.29474
300.31        26.55832
300.76        27.66667
301.21        28.53082
301.67        29.23876
302.12        29.84596
302.58        30.49633
303.03        31.21804
303.48        31.98469
303.94         32.8286
304.39        33.76354
304.84        34.79094
305.30        35.90316
305.75         37.0162
306.20        38.00687
306.66        38.86524
307.11        39.59969
307.57        40.29814
308.02        41.01616
308.47        41.81619
308.93        42.68419
309.38        43.60827
309.83        44.60329
310.29         45.6412
310.74        46.68564
311.19        47.70066
311.65        48.63614
312.10        49.47511
312.55         50.2419
313.00        50.90086
313.46        51.40153
313.91        51.73808
314.36        51.94433
314.82        52.16595
315.27        52.60199
315.72        53.31046
316.18        54.23452
316.63        55.22806
317.08        56.00901
317.53        56.49058
317.99        56.73175
318.44        56.88874
318.89        57.22427
319.35        57.79029
319.80        58.52826
320.25        59.24073
320.70         59.6018
321.16         59.5462
321.61        59.18946
322.06        58.77932
322.51         58.6998
322.97        59.02529
323.42        59.66159
323.87           60.39
324.32        60.83387
324.78        60.87655
325.23        60.65844
325.68        60.33496
326.13        60.17654
326.59        60.25795
327.04        60.52037
327.49        60.88644
327.94        61.24997
328.39        61.56554
328.85        61.85495
329.30        62.16697
329.75        62.46732
330.20        62.76032
330.66        63.02823
331.11        63.31821
331.56        63.65413
332.01         64.0554
332.46        64.50542
332.92        64.99879
333.37        65.63708
333.82        66.36772
334.27        67.16734
334.72         67.9016
335.17        68.35303
335.63        68.47421
336.08        68.35452
336.53        68.15869
336.98        68.18632
337.43        68.52205
337.88        69.08514
338.34         69.7514
338.79        70.38571
339.24        70.89687
339.69        71.34559
340.14        71.72561
340.59          72.017
341.05          72.227
341.50        72.34144
341.95        72.43955
342.40        72.66776
342.85        73.05756
343.30        73.57886
343.75        74.13091
344.20        74.52511
344.66        74.71342
345.11         74.7317
345.56        74.67561
346.01        74.68983
346.46        74.81916
346.91        75.02762
347.36        75.25571
347.81        75.41405
348.26        75.48818
348.72        75.52975
349.17         75.5783
349.62        75.75284
350.07        76.06537
350.52         76.4595
350.97        76.84386
351.42        77.08771
351.87        77.16155
352.32        77.11091
352.77        76.98411
353.22        76.85989
353.67        76.76786
354.13         76.6935
354.58        76.62064
355.03        76.57439
355.48        76.54675
355.93        76.53465
356.38        76.48843
356.83        76.32545
357.28        76.03032
357.73        75.62813
358.18        75.17852
358.63         74.7761
359.08        74.45512
359.53        74.20539
359.98        73.98541
360.43         73.7275
360.88        73.41067
361.33        73.03901
361.78        72.67775
362.23        72.43134
362.68        72.30994
363.13        72.28072
363.58        72.20221
364.03        71.85633
364.48        71.21242
364.93        70.34368
365.38        69.44881
365.83        68.84864
366.28        68.61529
366.73        68.64797
367.18        68.76141
367.63        68.64745
368.08        68.23006
368.53        67.62737
368.98        66.96385
369.43        66.42127
369.88        66.05763
370.33         65.8062
370.78        65.64823
371.23        65.56348
371.68        65.52454
372.13        65.53561
372.58        65.54846
373.03        65.47364
373.48        65.29194
373.93        65.02905
374.38        64.71821
374.83         64.4169
375.28        64.14609
375.72        63.87794
376.17        63.65481
376.62        63.51194
377.07        63.44282
377.52        63.42601
377.97          63.389
378.42        63.21518
378.87        62.88677
379.32        62.45435
379.77        61.97738
380.22        61.53839
380.67        61.16026
381.11        60.82037
381.56        60.52291
382.01        60.28075
382.46        60.09882
382.91        59.99272
383.36        59.91579
383.81        59.78834
384.26        59.59659
384.71         59.3488
385.15        59.10966
385.60        59.03904
386.05        59.11942
386.50        59.29031
386.95        59.42184
387.40        59.30091
387.85        58.91259
388.29        58.34336
388.74         57.7961
389.19        57.35161
389.64        57.03153
390.09        56.76964
390.54        56.61668
390.98        56.65761
391.43        56.88345
391.88        57.24547
392.33        57.54195
392.78        57.46996
393.23        57.02337
393.67         56.3096
394.12        55.63469
394.57        55.25312
395.02        55.22776
395.47        55.45309
395.91        55.86634
396.36        56.26712
396.81        56.57547
397.26        56.80728
397.71         56.9026
398.15        56.72775
398.60        56.36498
399.05        55.87222
399.50        55.35004
399.95        54.78154
400.39        54.44893
400.84        54.16264
401.29         54.0107
401.74        54.02835
402.18        54.22314
402.63        54.52379
403.08        54.89844
403.53        55.28522
403.97        55.64174
404.42         55.9562
404.87        56.12498
405.32        55.98238
405.76        55.52526
406.21        54.88563
406.66        54.26308
407.11        53.93995
407.55        54.01689
408.00        54.40229
408.45        54.94257
408.90        55.43229
409.34         55.6322
409.79        55.20129
410.24        54.41044
410.68        54.05104
411.13        54.22382
411.58        54.52315
412.03        54.86112
412.47        55.24575
412.92        55.57107
413.37        55.85754
413.81        56.04976
414.26        56.09754
414.71        55.98784
415.15        55.72812
415.60        55.40998
416.05        55.20519
416.49        55.16758
416.94        55.28258
417.39        55.43616
417.83        55.41628
418.28        55.19077
418.73        54.82151
419.17        54.49876
419.62        54.52779
420.07        54.93134
420.51        55.60489
420.96        56.28473
421.41        56.51526
421.85        56.18497
422.30        55.58191
422.74        54.92106
423.19        54.47594
423.64        54.35933
424.08        54.77607
424.53        55.53158
424.98        56.05165
425.42        56.21332
425.87        56.35022
426.31        56.46614
426.76        56.53683
427.21        56.65168
427.65        57.03009
428.10        57.58525
428.54        58.16059
428.99        58.72364
429.44        58.94837
429.88         58.8554
430.33        59.42477
430.77        60.15111
431.22        59.11633
431.66        56.87567
432.11        55.95754
432.56        56.54559
433.00        57.40446
433.45        58.34513
433.89        59.81084
434.34        60.72306
434.78        61.64053
435.23        58.81124
435.67        57.08138
436.12        59.39264
436.57        60.26908
437.01        60.53212
437.46        60.78188
437.90        61.22063
438.35         60.6528
438.79        61.41406
439.24        61.39602
439.68        61.32743
440.13        61.05584
440.57        60.88262
441.02        61.74461
441.46        63.23873
441.91        63.89111
442.35        63.56584
442.80        62.85056
443.24        62.13205
443.69        62.79828
444.13        64.43182
444.58        64.84586
445.02        63.29654
445.47         63.1997
445.91        64.20774
446.36        64.49643
446.80        64.01302
447.24        63.73899
447.69        63.80641
448.13         63.9978
448.58        64.33688
449.02        64.83261
449.47        65.36485
449.91        65.74636
450.36        65.92435
450.80        65.92983
451.25        65.82709
451.69        65.69438
452.13        65.58731
452.58        65.48979
453.02        65.42151
453.47        65.45161
453.91        65.56274
454.36        65.73865
454.80        65.92664
455.24        65.93073
455.69        65.73137
456.13        65.56871
456.58        65.48947
457.02        65.00446
457.46         64.3996
457.91        64.67374
458.35        65.57722
458.79        65.96143
459.24        65.81223
459.68        65.49091
460.13        64.99181
460.57        65.19385
461.01        65.09165
461.46        64.04041
461.90        63.78085
462.34        64.67016
462.79        64.03917
463.23        64.39737
463.68        64.72911
464.12        65.07783
464.56        65.32151
465.01        65.46835
465.45        65.36857
465.89        65.13655
466.34        64.77927
466.78        63.71455
467.22        62.44431
467.67        62.50377
468.11        63.78497
468.55        64.46626
468.99        64.29463
469.44        63.99491
469.88        63.76817
470.32        63.96371
470.77         64.4632
471.21        64.53139
471.65        64.11873
472.10         63.8094
472.54        63.70816
472.98        63.67491
473.42         63.7188
473.87        64.03458
474.31        64.43033
474.75        64.31876
475.20        63.81933
475.64        63.66517
476.08        63.89749
476.52        63.91072
476.97        63.68978
477.41        63.76732
477.85        64.15988
478.29        63.82835
478.74        64.14375
479.18        64.10838
479.62        63.25906
480.06        63.55729
480.50        64.14257
480.95        64.50109
481.39        64.36364
481.83        64.05746
482.27        64.07547
482.72        63.47504
483.16        62.69591
483.60        62.48583
484.04         63.9545
484.48        64.23536
484.93        64.08419
485.37        65.49784
485.81        66.12194
486.25        64.65354
486.69        86.43286
487.14        69.77216
487.58         44.2794
488.02        54.55518
488.46        62.41326
488.90        62.17456
489.34        63.81604
489.79        62.80926
490.23        64.82951
490.67        65.28481
491.11        63.98738
491.55        63.91313
491.99        64.63591
492.43         64.5896
492.88        63.81827
493.32        63.74705
493.76        63.94384
494.20        64.23637
494.64        64.40511
495.08        64.62846
495.52        64.90847
495.96        64.99059
496.41        64.83018
496.85        65.11572
497.29        65.65594
497.73        64.55656
498.17        62.72968
498.61        63.01791
499.05        65.40011
499.49        65.78553
499.93        65.60694
500.37        65.52576
500.82        65.46367
501.26        65.16274
501.70        65.76947
502.14        65.95433
502.58        65.97813
503.02        65.91133
503.46         65.7534
503.90        65.39413
504.34        64.96802
504.78        64.77425
505.22        64.83588
505.66        65.13515
506.10        65.56377
506.54        65.67017
506.98        65.28458
507.42        65.62906
507.86         64.7469
508.30        64.53226
508.74        64.82331
509.18        65.16861
509.62        65.53036
510.06        65.72854
510.50        65.72676
510.94        65.56532
511.38        65.35291
511.82        65.26289
512.26        65.33889
512.70        65.52139
513.14        65.74139
513.58        65.89085
514.02        65.93028
514.46        65.89457
514.90        65.82129
515.34         65.7479
515.78        65.67969
516.22        65.67278
516.66        65.71569
517.10         65.5961
517.54        65.30949
517.98        65.58234
518.42        65.43191
518.86        65.58291
519.30        65.73431
519.74        65.95652
520.18        66.19883
520.62        66.37125
521.06        66.45991
521.50        66.47684
521.93        66.44753
522.37        66.41406
522.81        66.39898
523.25        66.40037
523.69         66.4136
524.13        66.43131
524.57        66.45409
525.01        66.48283
525.45        66.54173
525.89        66.66727
526.32        66.84689
526.76        67.05815
527.20        67.23098
527.64        67.27579
528.08        67.19337
528.52        66.96261
528.96        66.62818
529.40        66.44976
529.83        66.49585
530.27        66.01838
530.71        66.30886
531.15        66.29824
531.59        66.36427
532.03        66.46947
532.46        66.63483
532.90        66.85915
533.34        67.11078
533.78        67.37646
534.22        67.57533
534.66        67.60004
535.09         67.4304
535.53        67.13036
535.97        66.78764
536.41        66.56186
536.85        66.50063
537.28         66.5657
537.72        66.69238
538.16        66.78368
538.60        66.80698
539.04        66.73925
539.47        66.61559
539.91        66.66673
540.35        66.83113
540.79        66.80797
541.22        66.60845
541.66        66.52439
542.10        66.55851
542.54        66.54088
542.97        66.48943
543.41        66.53345
543.85         66.6683
544.29        66.87987
544.72        67.06072
545.16        67.07441
545.60        66.89146
546.04        66.54312
546.47        66.20727
546.91        66.19406
547.35        66.53655
547.79        67.13612
548.22        67.71455
548.66        67.85701
549.10         67.4836
549.53        66.71893
549.97        65.89993
550.41        65.51202
550.84        65.67152
551.28        66.19308
551.72        66.85246
552.15        67.32905
552.59        67.47712
553.03        67.28833
553.46         66.9118
553.90        66.74269
554.34        66.84421
554.77        66.98402
555.21        67.06519
555.65        67.18718
556.08        67.35558
556.52        66.74433
556.96        66.96655
557.39        66.81863
557.83        66.80691
558.27        66.85054
558.70        66.96506
559.14         67.1588
559.57        67.38042
560.01        67.62776
560.45        67.81966
560.88        67.83414
561.32        67.66764
561.75        67.35332
562.19          67.024
562.63        66.62012
563.06        66.30357
563.50        66.57229
563.93        67.23635
564.37        67.58431
564.80        67.49628
565.24        67.29553
565.68        67.06549
566.11        66.91063
566.55        66.91957
566.98        66.90434
567.42        66.88024
567.85        67.16499
568.29         67.6858
568.72         67.6646
569.16        67.25472
569.60        67.73829
570.03        67.98206
570.47        67.90194
570.90        67.57278
571.34         65.9016
571.77        66.60724
572.21        66.90344
572.64        66.24622
573.08        65.21782
573.51        63.04319
573.95        65.43398
574.38        69.11548
574.82        67.06854
575.25        66.76878
575.69        64.68237
576.12        63.22666
576.56         62.7412
576.99        64.45798
577.42        67.54477
577.86        67.43788
578.29        66.46855
578.73        69.66615
579.16         64.3521
579.60         59.1692
580.03         61.9133
580.47        65.72977
580.90        67.43567
581.33        66.18742
581.77        65.29862
582.20        71.15021
582.64        70.69312
583.07         60.7576
583.51        59.77462
583.94        58.80091
584.37        62.15132
584.81        65.25489
585.24        68.48192
585.68        69.31597
586.11        68.62878
586.54        63.78321
586.98        61.70019
587.41        62.31177
587.85        65.92794
588.28        67.92313
588.71        64.95603
589.15        62.80764
589.58        64.35297
590.01        64.71639
590.45        65.74393
590.88         66.3836
591.31        65.65983
591.75        65.21267
592.18        65.37542
592.61        66.93389
593.05        67.36047
593.48        69.60667
593.91        70.26691
594.35        64.86257
594.78        63.80745
595.21        63.53014
595.65        66.32381
596.08        68.71988
596.51        66.09502
596.94        64.33705
597.38        65.02855
597.81        67.59835
598.24        69.04121
598.68        67.92641
599.11        66.59015
599.54        69.30925
599.97         70.8444
600.41        65.92339
600.84         65.6716
601.27        67.25999
601.70         66.4081
602.14        66.22289
602.57        65.38269
603.00        66.10855
603.43        67.78892
603.87        68.73689
604.30        68.66706
604.73        66.47904
605.16        65.33918
605.60        66.36111
606.03        67.35043
606.46        68.06536
606.89        67.92075
607.32         65.7353
607.76        65.96026
608.19        67.98936
608.62        67.27017
609.05        66.15467
609.48        66.74902
609.92        66.81578
610.35        66.03044
610.78        68.04115
611.21         68.7863
611.64        65.57981
612.07        66.31268
612.50          66.731
612.94        67.23676
613.37        66.81425
613.80        66.87038
614.23        67.45345
614.66        67.41825
615.09        67.71205
615.52        67.69775
615.96        67.51609
616.39        67.55793
616.82        66.70096
617.25        66.40882
617.68        67.14742
618.11        67.73852
618.54        67.88695
618.97        67.43788
619.40         66.6721
619.84        66.78453
620.27        67.67394
620.70        68.39814
621.13        68.76499
621.56        67.94556
621.99        67.11316
622.42        67.79359
622.85        69.71671
623.28        69.42713
623.71        68.80602
624.14        68.38947
624.57        68.39874
625.00        67.95857
625.43        68.27619
625.86        67.71803
626.29        67.91041
626.72        68.46304
627.15        68.28696
627.58        68.30142
628.01        68.38486
628.44        68.67737
628.87        68.73686
629.30        68.89545
629.73        68.83784
630.16         69.5062
630.59        68.78745
631.02        68.51038
631.45        68.17473
631.88        67.96301
632.31        67.90988
632.74        67.99863
633.17        68.19203
633.60         68.3623
634.03        68.47109
634.46        68.54939
634.89        68.59548
635.32        68.60806
635.75        68.59473
636.18        68.54856
636.61        68.49582
637.04        68.48259
637.47        68.50576
637.89        68.59176
638.32        68.70846
638.75        68.72775
639.18        68.60841
639.61        68.84006
640.04        68.59082
640.47        68.48652
640.90        68.29868
641.33        68.05971
641.76        67.80966
642.18        67.72993
642.61        67.85204
643.04        67.96345
643.47        67.96998
643.90        68.60094
644.33        68.40863
644.76        68.55882
645.18        68.62035
645.61        68.60284
646.04        68.49529
646.47        68.28069
646.90        68.07387
647.33        68.01811
647.75        68.16447
648.18        68.51501
648.61        68.83413
649.04        68.79555
649.47        68.35288
649.89         67.3775
650.32        66.35937
650.75        66.40835
651.18        67.42348
651.61        68.26546
652.03        68.55781
652.46        68.48491
652.89        68.34552
653.32        67.84737
653.74        67.26156
654.17        68.49081
654.60        68.79584
655.03        67.24237
655.46         67.4454
655.88        71.03984
656.31        75.10487
656.74        164.2114
657.16         106.322
657.59        37.86685
658.02        29.19088
658.45        51.21336
658.87        65.26322
659.30        68.47923
659.73        68.12408
660.15        65.61658
660.58        68.01183
661.01           69.55
661.44        67.34494
661.86        66.78358
662.29        67.04417
662.72        67.82464
663.14        68.88515
663.57        68.82485
664.00        67.88954
664.42        67.70921
664.85        68.35652
665.27        68.74619
665.70        68.69731
666.13        68.55457
666.55        68.30572
666.98        67.85083
667.41        67.35816
667.83         67.1545
668.26        67.30577
668.69         67.6779
669.11        68.05664
669.54        68.41826
669.96         68.0524
670.39        67.62221
670.82        67.13403
671.24        66.84167
671.67        66.89355
672.09        67.36006
672.52         67.9515
672.94        68.52122
673.37        67.87605
673.80        67.71999
674.22        67.76797
674.65        67.72114
675.07         67.5719
675.50        67.35696
675.92        67.16409
676.35        67.16296
676.77        67.37437
677.20        67.67159
677.62        67.97549
678.05        68.16155
678.47        68.18045
678.90        68.08244
679.32        67.93941
679.75        67.74099
680.17        67.78798
680.60        67.83557
681.02        67.89484
681.45        67.83598
681.87        67.64947
682.30        67.37034
682.72        67.11329
683.15        67.07862
683.57        67.31152
684.00        67.64642
684.42        68.09875
684.85        68.28484
685.27        68.18916
685.70        67.90031
686.12        67.53538
686.54         67.3226
686.97        67.30762
687.39        67.43874
687.82        67.62213
688.24        67.75414
688.66        67.77738
689.09        67.73308
689.51        67.68751
689.94        67.71251
690.36         67.8267
690.78        68.01225
691.21        68.21576
691.63        68.28798
692.06        68.19746
692.48        68.28441
692.90        68.08965
693.33        68.09056
693.75        68.15519
694.17        68.27737
694.60        68.43214
695.02        68.56363
695.44         68.6181
695.87        68.79102
696.29        69.06032
696.71        68.78708
697.14        68.18623
697.56        68.59617
697.98        69.74085
698.41        69.51295
698.83        68.62963
699.25        68.02713
699.68         68.0153
700.10        67.93515
700.52        67.81644
700.94        68.02513
701.37        68.46579
701.79        68.87727
702.21        69.15617
702.64        69.37123
703.06        69.47402
703.48        69.38637
703.90        69.12361
704.33        68.70742
704.75        68.24387
705.17        67.99201
705.59        68.02158
706.01         68.1674
706.44        68.31459
706.86        68.84274
707.28        68.81464
707.70        68.95138
708.12        69.00598
708.55        69.01511
708.97        68.96825
709.39        68.85775
709.81        68.74072
710.23        68.70724
710.66        68.77967
711.08        68.96797
711.50        69.15579
711.92        69.17047
712.34        68.98039
712.76        68.62373
713.19         68.2647
713.61        68.19807
714.03        68.46787
714.45        68.98746
714.87        69.51909
715.29        69.68436
715.71        69.40694
716.13        68.81055
716.56        68.14143
716.98        67.82743
717.40        67.97046
717.82        68.43871
718.24        69.02522
718.66        69.37828
719.08        69.39203
719.50        69.17897
719.92        68.85924
720.34         68.6399
720.76        68.58824
721.19        68.51904
721.61          68.618
722.03        68.71124
722.45         68.8356
722.87        69.00476
723.29        69.18141
723.71        69.28728
724.13        69.30308
724.55        69.24059
724.97        69.14874
725.39         69.1176
725.81        69.16892
726.23        69.27732
726.65         69.3985
727.07        69.45953
727.49        69.44615
727.91        69.38935
728.33        69.32379
728.75        69.30676
729.17        69.35262
729.59        69.42951
730.01        69.52284
730.43        69.63446
730.85        69.76484
731.27        69.88831
731.69        69.93812
732.10        70.10236
732.52        69.86047
732.94        69.68594
733.36        69.56423
733.78        69.59248
734.20        69.78711
734.62        70.42375
735.04        71.26519
735.46        71.19662
735.88        70.44977
736.30         70.6357
736.72        71.72546
737.13        72.12806
737.55        71.62217
737.97        71.60508
738.39        72.06416
738.81        71.35662
739.23        69.98161
739.65         70.8559
740.06        73.42266
740.48        73.75813
740.90        71.91904
741.32        70.96785
741.74        71.22558
742.16        71.33405
742.57        71.37552
742.99        72.11126
743.41         73.2768
743.83        74.00279
744.25        74.12576
744.67         73.8629
745.08        73.47322
745.50        73.38233
745.92        73.71465
746.34        74.30829
746.75        74.95468
747.17         75.3146
747.59         75.3187
748.01        75.08083
748.42        74.80834
748.84        74.81837
749.26        75.19491
749.68        75.78395
750.09        76.41089
750.51        76.86242
750.93        77.03573
751.35        76.80695
751.76        76.32898
752.18        76.15981
752.60        76.29105
753.01        76.21595
753.43        75.98532
753.85         76.0958
754.27        76.57813
754.68         77.2618
755.10        77.89546
755.52        78.48055
755.93        78.89833
756.35        79.10419
756.77        79.17929
757.18        79.19139
757.60        79.17366
758.02        79.38473
758.43        79.57211
758.85        79.08285
759.26        77.48663
759.68        77.42262
760.10        78.44268
760.51        79.05204
760.93        78.98588
761.34        77.47894
761.76        77.27324
762.18        76.79787
762.59        76.90495
763.01        77.28899
763.42         77.9225
763.84        78.51842
764.26         78.9756
764.67        79.29012
765.09        79.33987
765.50        79.17818
765.92        78.79079
766.33        77.50258
766.75        75.77162
767.16        75.82717
767.58        76.36042
768.00         77.8632
768.41        79.54015
768.83        81.04019
769.24        81.72461
769.66        80.88148
770.07        79.13385
770.49        77.53765
770.90         76.5519
771.32        77.52311
771.73        79.73387
772.15        79.26666
772.56        76.55818
772.97        75.94226
773.39        77.38913
773.80        77.88835
774.22        77.26434
774.63        77.38184
775.05        78.11716
775.46        78.46121
775.88        78.27857
776.29        77.85951
776.70        77.39172
777.12        77.20087
777.53        77.38459
777.95        77.79745
778.36        78.21182
778.77        78.23959
779.19        77.83212
779.60        77.11376
780.02        76.40907
780.43         76.2534
780.84        76.78989
781.26        77.54881
781.67        78.31821
782.09        79.30227
782.50        80.06443
782.91        79.09254
783.33        77.04588
783.74        76.34002
784.15        77.12907
784.57        77.79192
784.98        78.03133
785.39        78.18221
785.81        78.14806
786.22        77.69301
786.63        77.12141
787.04        77.03193
787.46         77.4892
787.87        78.28553
788.28        79.13847
788.70        79.56052
789.11        79.43047
789.52        78.96761
789.93        78.38303
790.35         77.8801
790.76        77.59041
791.17        77.63631
791.58        77.95145
792.00        78.19968
792.41        78.30205
792.82        78.50091
793.23        78.84116
793.65        78.76694
794.06        78.47761
794.47         79.3509
794.88        80.75357
795.29        80.12798
795.71        77.75166
796.12        75.79713
796.53        74.82438
796.94          74.424
797.35        74.72391
797.76        76.00916
798.18        77.68667
798.59        78.71676
799.00        78.72681
799.41        77.89716
799.82        76.69321
800.23        75.96745
800.64        75.93543
801.06         76.2593
801.47        76.81322
801.88        77.28458
802.29        77.54125
802.70        77.71407
803.11        77.80725
803.52        77.79582
803.93        77.70377
804.34        77.48954
804.75        77.25791
805.17        77.26802
805.58        77.60091
805.99        77.96188
806.40        78.18613
806.81        78.56274
807.22        78.75082
807.63        77.56041
808.04        75.55235
808.45        74.69037
808.86         75.1751
809.27        76.07832
809.68        76.98199
810.09        77.49397
810.50        77.39625
810.91        76.82662
811.32        76.08736
811.73        75.66718
812.14        75.69955
812.55        75.99603
812.96         76.4421
813.37        76.82736
813.78        77.05135
814.19        77.23947
814.60         77.2683
815.01        76.92879
815.42        76.22578
815.83        75.17442
816.24        74.16998
816.65        73.91428
817.05        74.60049
817.46        76.00663
817.87        77.54661
818.28        78.15932
818.69        77.57037
819.10        76.04581
819.51        74.29665
819.92        73.53339
820.33        74.06693
820.74        75.52736
821.14        77.23318
821.55        77.97205
821.96        77.46871
822.37        76.13731
822.78        74.57043
823.19        73.63798
823.60        73.58157
824.00        74.17774
824.41        75.03783
824.82        75.61238
825.23        75.67162
825.64        75.42373
826.04        75.07221
826.45        74.89922
826.86        74.97577
827.27        75.15389
827.68        75.34871
828.08         75.4756
828.49        75.43555
828.90        75.34329
829.31        75.16254
829.72        74.81709
830.12        74.36187
830.53        73.80856
830.94        73.39582
831.35        73.44339
831.75        74.02895
832.16        75.00375
832.57        76.11113
832.97        76.80523
833.38        76.84188
833.79        76.37527
834.20        75.70111
834.60        75.27443
835.01        75.24666
835.42         75.4824
835.82        75.79871
836.23        75.80742
836.64        75.45667
837.04        74.90456
837.45        74.37563
837.86        74.21961
838.26        74.51823
838.67        75.09763
839.08        75.77909
839.48        76.24488
839.89        76.34267
840.29        76.18884
840.70        75.82406
841.11        75.29082
841.51        74.65755
841.92        73.90651
842.33        73.21608
842.73        72.89095
843.14        72.96122
843.54        73.39272
843.95         73.9349
844.35        74.21548
844.76         74.1098
845.17        73.72734
845.57          73.245
845.98        72.95007
846.38          72.921
846.79        73.04902
847.19        73.24665
847.60        73.28472
848.00        73.14149
848.41         72.8712
848.81        72.61437
849.22        72.49332
849.62        72.58887
850.03        72.86858
850.43        73.26482
850.84        73.57698
851.24        73.77363
851.65        73.72591
852.05        73.70593
852.46        73.99245
852.86        74.63247
853.27        75.56229
853.67        76.17976
854.07        75.68694
854.48        74.08297
854.88        71.65643
855.29        69.31189
855.69        68.35879
856.10        69.05292
856.50        71.20586
856.90        74.00864
857.31        75.59535
857.71        75.37595
858.12        73.85561
858.52         71.9205
858.92        70.72057
859.33        70.51564
859.73         70.9786
860.13        71.91026
860.54        72.88858
860.94        73.74625
861.34        74.57742
861.75        75.28848
862.15         75.8153
862.55         76.1161
862.96        76.15616
863.36        76.03484
863.76        75.93559
864.17        75.92886
864.57        76.02845
864.97        76.25081
865.38        76.59721
865.78        77.08688
866.18        77.63938
866.58        78.17179
866.99        78.52367
867.39        78.69928
867.79        78.76454
868.19        78.61533
868.60        78.07657
869.00        77.18548
869.40        76.01995
869.80        75.15546
870.21        75.45519
870.61        77.13898
871.01        79.93809
871.41        82.97366
871.81        84.73246
872.22         84.8133
872.62        83.62999
873.02        82.02906
873.42        81.54317
873.82        82.32767
874.22        83.57733
874.63        84.90195
875.03        85.49208
875.43        84.94431
875.83        84.52927
876.23        82.77283
876.63        81.91702
877.03         81.8665
877.44        82.74363
877.84        104.5589
878.24        89.65907
878.64        90.50609
879.04        91.10492
879.44        87.40703
879.84        85.49608
880.24        89.24899
880.64        90.93077
881.04        91.27841
881.44        91.24255
881.84        90.54219
882.24        89.31796
882.65        88.28786
883.05        88.04131
883.45        88.68349
883.85        90.28817
884.25        92.25546
884.65        93.27826
885.05        92.98412
885.45        91.80305
885.85        90.46273
886.25        89.97499
886.65        90.54522
887.05        91.84044
887.45        93.39819
887.85        94.38554
888.25        94.51498
888.65        94.08866
889.04        93.39159
889.44        92.91164
889.84        92.77587
890.24        92.75923
890.64         92.8489
891.04        93.05972
891.44        93.33923
891.84        93.74799
892.24        94.01257
892.64        93.61625
893.04        92.57368
893.44        91.17419
893.83         89.9311
894.23        89.58583
894.63        90.24533
895.03        91.60611
895.43        93.43806
895.83        95.26942
896.23        96.78139
896.63        98.05873
897.02        98.68966
897.42        98.06179
897.82        96.22945
898.22        93.48022
898.62        90.72659
899.01         89.3053
899.41        89.50442
899.81        90.90031
900.21        92.83858
900.61        94.21579
901.00        94.66014
901.40        94.48116
901.80        93.95119
902.20        93.50346
902.59        93.29475
902.99        93.16033
903.39        93.00964
903.79         92.7325
904.18         92.3303
904.58        91.95335
904.98        91.76147
905.38        91.96415
905.77        92.53938
906.17        93.33008
906.57        94.14427
906.96        94.76142
907.36        95.04215
907.76        95.07451
908.15        94.80679
908.55        94.05406
908.95        92.91545
909.34        91.45981
909.74        90.10631
910.14        89.32211
910.53        89.25524
910.93        89.84707
911.33        90.88562
911.72        91.94775
912.12        92.73829
912.52        93.25498
912.91        93.62125
913.31        94.04533
913.70        94.62909
914.10        95.32195
914.49        95.80434
914.89        95.31084
915.29        93.75275
915.68        91.47453
916.08        89.51553
916.47        88.78338
916.87        89.32592
917.26        90.86079
917.66        92.52445
918.05        92.91698
918.45        91.71868
918.84        89.44899
919.24        87.09246
919.64        86.08971
920.03         86.8115
920.42        88.80356
920.82         91.3708
921.21        93.39065
921.61        94.24902
922.00        94.30613
922.40        93.77068
922.79         92.9536
923.19        92.07121
923.58        90.91088
923.98        89.54401
924.37        88.62373
924.77        88.56415
925.16        86.96088
925.55        88.19884
925.95         88.8954
926.34        90.28419
926.74        91.98162
927.13        93.61326
927.52        94.26601
927.92        93.84114
928.31        92.62978
928.70        91.02322
929.10        89.72689
929.49        88.91863
929.89        88.42432
930.28         88.3797
930.67        89.01072
931.07        90.14972
931.46        91.80568
931.85        93.25114
932.24         93.3923
932.64        92.06474
933.03        89.43678
933.42        86.23048
933.82        84.09116
934.21        83.51608
934.60        84.10557
934.99        85.07356
935.39        85.61727
935.78        85.62125
936.17        84.90863
936.56        83.36195
936.96        84.49618
937.35        83.60757
937.74        84.26431
938.13         84.9165
938.53         85.8222
938.92        87.03079
939.31        88.67602
939.70        90.29083
940.09        90.52581
940.49        89.06451
940.88        86.53049
941.27          84.043
941.66        82.90711
942.05        83.25184
942.44        84.63335
942.84        86.52702
943.23         88.0582
943.62        88.77168
944.01        88.91286
944.40        88.55446
944.79        87.79999
945.18        86.71513
945.57        85.16136
945.97        83.38692
946.36        82.13802
946.75        81.81448
947.14        82.24622
947.53        83.01446
947.92         83.6396
948.31        84.05963
948.70        84.42847
949.09        84.76495
949.48        85.06989
949.87        85.30898
950.26        85.36319
950.65        85.33276
951.04        85.43365
951.43         85.6901
951.82        86.06495
952.21        86.26985
952.60        85.84532
952.99        84.73232
953.38        83.09312
953.77        81.40538
954.16         80.3428
954.55        80.04887
954.94        80.41995
955.33        80.92848
955.72        80.66838
956.11        79.45578
956.50        77.53328
956.89        75.74653
957.28         75.6328
957.66        77.62897
958.05        80.97069
958.44        84.53284
958.83         86.6582
959.22        86.93423
959.61        85.82407
960.00        83.98061
960.39         82.4869
960.78        81.73137
961.16        81.43117
961.55        81.32647
961.94        81.00504
962.33        80.35443
962.72        79.61042
963.11        78.96516
963.49        78.59475
963.88        78.49891
964.27        78.61114
964.66        78.72097
965.04        78.49245
965.43        77.79752
965.82        76.86658
966.21        76.07537
966.60        75.88488
966.98        76.36787
967.37        77.33146
967.76        78.49949
968.15        79.29335
968.53         79.4753
968.92        79.15208
969.31        78.56435
969.69        78.02057
970.08        77.62264
970.47        77.31433
970.86        76.96508
971.24        76.36815
971.63        75.50007
972.02        74.45193
972.40        73.58823
972.79        73.50193
973.17        74.43863
973.56        76.15051
973.95        78.10565
974.33         79.2339
974.72        79.10095
975.11         77.9925
975.49        76.60371
975.88        75.95979
976.26        76.22559
976.65        77.19574
977.04        78.22716
977.42        77.82587
977.81        75.59791
978.19        72.23844
978.58        69.42056
978.96        68.75783
979.35        70.45631
979.74        74.19204
980.12        79.11306
980.51        82.15483
980.89        82.36393
981.28        80.51403
981.66        77.96514
982.05        76.45895
982.43        76.30587
982.82        76.89252
983.20        77.98111
983.59        79.32689
983.97        80.87511
984.35        82.81018
984.74        84.65343
985.12        85.58214
985.51        84.95556
985.89        82.78147
986.28        79.68639
986.66        76.69339
987.04         74.5381
987.43        73.28613
987.81        72.44005
988.20        71.16332
988.58        69.06393
988.96        65.71347
989.35        61.90595
989.73        61.50461
990.12        66.58479
990.50        75.00401
990.88        81.78156
991.27        83.40822
991.65         80.5631
992.03        74.41585
992.42         67.4177
992.80        64.11107
993.18        65.86192
993.56        70.22616
993.95        75.20599
994.33        79.15037
994.71         81.5092
995.10           83.17
995.48        83.75204
995.86        82.33912
996.24        78.81107
996.63        72.91505
997.01        66.00908
997.39        62.40512
997.77        64.14368
998.15        70.41187
998.54        77.86572
998.92        81.80386
999.30        80.75788
999.68        75.92121
1000.06        68.83408
1000.45        63.34261
1000.83        61.12052
1001.21        60.93159
1001.59        61.95246
1001.97        63.34766
1002.35        64.76737
1002.73        66.85665
1003.12        68.79887
1003.50        68.06644
1003.88        63.99847
1004.26        58.19528
1004.64        53.00843
1005.02        50.23645
1005.40        49.88178
1005.78        51.55483
1006.16        56.44565
1006.54        64.36641
1006.92        71.17556
1007.30        75.18208
1007.69        76.54555
1008.07        76.15926
1008.45        74.08892
1008.83        68.49597
1009.21        53.86991
1009.59        16.88877
1009.97       -57.60159
1010.35       -123.0656
1010.73       -72.99737
1011.11        -12.8982
1011.49        20.66682
1011.86        41.95337
1012.24        53.20411
1012.62         57.9237
1013.00         58.8998
1013.38        56.82946
1013.76        53.26462
1014.14        53.86538
1014.52        63.32319
1014.90        83.07713
1015.28        107.5598
1015.66        119.6464
1016.04        109.2753
1016.41        80.32697
1016.79        49.45522
1017.17        33.64341
1017.55        31.83035
1017.93        35.38194
1018.31        40.12006
1018.69        44.25355
1019.06        47.90813
1019.44        51.69736
1019.82        56.44969
1020.20         61.5039
1020.58        64.72468
1020.95        62.75705
1021.33        33.62901
1021.71        692.5739
1022.09        175.7036
1022.46        153.5617
1022.84        151.0225
1023.22        159.5841
1023.60        190.0789
1023.97        504.2183
1024.35       -29.39152
1024.73        30.89975
