SpectraSmart Spectrum 2.9.0.0
--------- Device Information -----------
Spectrum Name :  反射率_0
Saving Time :  2024/04/26 01:45:20
Spectro-Module Model Name : SE2030-DUVN
Spectro-Module Serial Number : OS361AC55029948
Wavelength Start : 200
Wavelength End : 1025
Wavelength Unit : Wavelength(nm)
Spectrum Unit : Reflectance(%)
-----------Spectrum Setting ------------
Integration Time : 20ms
Average : 10
Boxcar : 0
Background removal :  enabled
linearity correction :  enabled
SC :  disabled
Intensity correction :  disabled
DWT denoise :  enabled
savitzky-golay :  disabled
FFT :  disabled
Running average :  disabled
Kalman :  disabled
High pass :  disabled
---------------BEGIN--------------------
Wavelength(nm)             Reflectance(%)
200.29               0
200.75         101.402
201.21        91.40677
201.67        79.75019
202.13        72.43498
202.58        70.33206
203.04        71.94282
203.50        75.72567
203.96        79.02363
204.42        80.68582
204.88        81.43952
205.34         82.1108
205.80         83.8136
206.26        87.45535
206.72        94.76463
207.18        107.8593
207.64        117.1241
208.10         105.734
208.55        87.33055
209.01        76.59018
209.47         73.5484
209.93        74.91064
210.39        79.51627
210.85        84.53094
211.31        83.92598
211.77        76.28653
212.23        64.10062
212.69        52.71836
213.14        50.37782
213.60         58.3137
214.06        73.91405
214.52        91.68086
214.98        103.1394
215.44        105.8074
215.90        102.2742
216.36        95.40359
216.81        89.13506
217.27        85.22854
217.73        82.64387
218.19        80.03462
218.65        75.40131
219.11        67.65472
219.57        55.90678
220.02        41.77565
220.48        34.17718
220.94        37.96745
221.40        50.64801
221.86        62.60051
222.32        63.93607
222.77        55.94231
223.23        44.13402
223.69        34.10171
224.15        31.56224
224.61        35.87265
225.06        44.03529
225.52        52.31443
225.98        55.98004
226.44        54.12501
226.90        48.85266
227.36        42.40308
227.81        37.71554
228.27        35.87357
228.73        35.70703
229.19        36.66148
229.65        37.95531
230.10         39.1575
230.56        40.47279
231.02        41.70129
231.48        42.53392
231.93        42.98154
232.39        43.10451
232.85        43.08052
233.31        43.28606
233.77        43.78694
234.22         44.4464
234.68        45.15937
235.14        45.61461
235.60        45.72935
236.05        45.72022
236.51        45.62832
236.97         45.4443
237.43        45.29033
237.88        45.25884
238.34        45.86096
238.80        48.31712
239.26        52.93579
239.71        59.35352
240.17        66.13425
240.63        71.35605
241.08        74.39642
241.54        75.42808
242.00        75.40796
242.46        76.00437
242.91         78.5311
243.37        84.50119
243.83        102.7977
244.28        161.6716
244.74        227.0296
245.20        190.2655
245.66        157.6304
246.11        150.2358
246.57        159.2646
247.03        194.1221
247.48        300.7621
247.94        260.9489
248.40        150.6702
248.85        115.1044
249.31        104.2293
249.77        102.7716
250.22        106.5059
250.68        115.1834
251.14        128.4341
251.59        137.5791
252.05        133.7961
252.51        121.1565
252.96        107.5302
253.42        100.6207
253.88        99.89391
254.33        102.3647
254.79         107.104
255.25        112.1774
255.70        116.1936
256.16        119.8391
256.62         121.688
257.07          120.18
257.53        116.3818
257.99        110.7132
258.44        104.7711
258.90        101.6369
259.35        100.2919
259.81        99.87654
260.27        98.60686
260.72          94.735
261.18        89.17035
261.63        82.60081
262.09        76.54085
262.55        71.91117
263.00        68.69362
263.46        66.57708
263.91        64.85714
264.37        63.20823
264.83        61.31387
265.28        59.17607
265.74        57.02491
266.19        54.91781
266.65        53.16672
267.11        51.70591
267.56        50.38684
268.02        49.02485
268.47        47.46839
268.93        45.78308
269.38         44.0898
269.84         42.8331
270.30        42.11959
270.75        41.82999
271.21         41.6885
271.66        41.27173
272.12         40.4648
272.57        39.38322
273.03        38.26166
273.48        37.36152
273.94        36.78769
274.39        36.40928
274.85        36.09311
275.31        35.62131
275.76        34.93659
276.22        34.14765
276.67        33.36036
277.13        32.83455
277.58        32.54358
278.04         32.4298
278.49        32.28267
278.95        31.89111
279.40        31.18901
279.86        30.33054
280.31        29.42283
280.77        28.75365
281.22        28.33793
281.68        28.11672
282.13          27.994
282.59        27.88091
283.04         27.7322
283.50        27.62572
283.95        27.51652
284.41        27.35913
284.86        27.15119
285.32        26.91749
285.77        26.77023
286.22        26.95304
286.68        27.45852
287.13        28.15583
287.59        28.82285
288.04        29.11297
288.50        28.98872
288.95        28.54815
289.41        27.99152
289.86        27.50274
290.32        27.22022
290.77        27.08836
291.22        27.14327
291.68        27.39128
292.13        27.83623
292.59        28.50605
293.04        29.38307
293.50        30.42739
293.95        31.59398
294.40        32.83857
294.86        34.14018
295.31        35.48939
295.77        36.88435
296.22        38.32488
296.68        39.75433
297.13          41.052
297.58        42.21825
298.04        43.30825
298.49        44.47284
298.95         46.0037
299.40        47.93985
299.85        50.19109
300.31        52.54725
300.76        54.65902
301.21        56.40502
301.67        57.91629
302.12        59.26781
302.58        60.69833
303.03        62.23869
303.48        63.85025
303.94        65.56995
304.39          67.387
304.84        69.29795
305.30        71.30103
305.75        73.25343
306.20        74.96628
306.66        76.42357
307.11        77.61953
307.57        78.71865
308.02        79.83524
308.47        81.07252
308.93        82.40887
309.38        83.77141
309.83        85.10326
310.29        86.37016
310.74        87.54831
311.19          88.678
311.65        89.81702
312.10        90.95662
312.55        92.09011
313.00        93.09538
313.46         93.7867
313.91        94.12375
314.36        94.18835
314.82        94.21471
315.27        94.50325
315.72        95.16108
316.18        96.10045
316.63        97.14771
317.08        97.96361
317.53        98.44408
317.99        98.67111
318.44        98.82582
318.89        99.21107
319.35        99.87389
319.80        100.7457
320.25        101.5822
320.70        101.9917
321.16        101.8916
321.61        101.4138
322.06         100.842
322.51         100.621
322.97        100.8352
323.42        101.4007
323.87        102.0712
324.32        102.4225
324.78        102.3344
325.23         101.992
325.68        101.5971
326.13         101.508
326.59        101.7958
327.04        102.3638
327.49        103.0699
327.94        103.7191
328.39        104.2238
328.85        104.6199
329.30        104.9407
329.75         105.059
330.20         105.004
330.66        104.8041
331.11        104.6921
331.56        104.9641
332.01        105.7057
332.46        106.8219
332.92        108.1329
333.37        109.5035
333.82        110.7191
334.27        111.8073
334.72        112.6302
335.17        112.9927
335.63        112.8943
336.08        112.4468
336.53        111.9247
336.98        111.8313
337.43         112.299
337.88        113.1976
338.34        114.3278
338.79        115.4388
339.24        116.3692
339.69        117.2161
340.14        117.8876
340.59        118.2281
341.05        118.2529
341.50        117.9799
341.95        117.6846
342.40        117.8187
342.85        118.4685
343.30        119.5136
343.75        120.6686
344.20        121.4138
344.66        121.6071
345.11        121.3849
345.56        120.9596
346.01        120.6567
346.46        120.5849
346.91        120.6489
347.36        120.7834
347.81        120.8956
348.26        120.9563
348.72        121.0246
349.17        121.1063
349.62        121.2403
350.07        121.4213
350.52         121.612
350.97        121.7626
351.42        121.8116
351.87        121.7467
352.32         121.591
352.77        121.3743
353.22        121.1474
353.67        120.9274
354.13        120.7095
354.58        120.4662
355.03        120.2179
355.48        119.9537
355.93        119.6664
356.38        119.3138
356.83        118.8272
357.28        118.1983
357.73        117.4574
358.18        116.6556
358.63        115.8732
359.08        115.1454
359.53        114.4671
359.98        113.8269
360.43        113.2006
360.88        112.5696
361.33        111.9231
361.78        111.2795
362.23        110.6681
362.68        110.0951
363.13        109.5684
363.58        109.0021
364.03        108.2601
364.48        107.3317
364.93        106.2549
365.38        105.2085
365.83        104.4871
366.28        104.1279
366.73        104.0107
367.18        103.9085
367.63        103.4489
368.08        102.5585
368.53        101.4098
368.98         100.141
369.43        98.95055
369.88        97.92129
370.33         96.9765
370.78        96.22983
371.23        95.87467
371.68        95.90997
372.13        96.28462
372.58        96.69064
373.03        96.59476
373.48        95.88661
373.93        94.73716
374.38        93.48263
374.83        92.64873
375.28        92.35974
375.72         92.4295
376.17        92.68012
376.62        92.79739
377.07        92.65472
377.52        92.33288
377.97         91.8551
378.42        91.25405
378.87        90.58003
379.32        89.85152
379.77        89.09383
380.22         88.3451
380.67        87.61805
381.11        86.90513
381.56        86.29383
382.01         85.9215
382.46        85.80798
382.91        85.93024
383.36        86.06635
383.81        85.86319
384.26         85.2619
384.71        84.35746
385.15        83.43636
385.60        83.01067
386.05         83.1096
386.50        83.56129
386.95        84.02234
387.40         83.9184
387.85         83.1669
388.29        82.00163
388.74        80.85439
389.19        79.99464
389.64        79.48292
390.09        79.17484
390.54        79.06467
390.98        79.14872
391.43        79.35851
391.88         79.6647
392.33        79.88103
392.78          79.594
393.23        78.76655
393.67        77.93035
394.12        77.36565
394.57        76.26857
395.02        74.97173
395.47        76.13168
395.91        77.37826
396.36        78.42583
396.81        78.37356
397.26        78.26486
397.71        78.16492
398.15        77.69595
398.60         77.0467
399.05        76.45088
399.50         75.9126
399.95        75.02812
400.39        74.30453
400.84        73.87076
401.29        73.87384
401.74        74.43118
402.18        75.24181
402.63        75.19981
403.08        74.47989
403.53        74.37793
403.97        74.93865
404.42        75.34185
404.87        75.40382
405.32        75.16764
405.76        74.59789
406.21        73.90898
406.66        73.24833
407.11        72.58762
407.55        72.15372
408.00        72.37268
408.45        73.10404
408.90        73.77177
409.34        74.00893
409.79        73.40446
410.24         72.2723
410.68        71.69958
411.13         71.8138
411.58        71.90209
412.03        71.87339
412.47        72.41025
412.92        72.56112
413.37         72.9844
413.81        73.30009
414.26        73.38628
414.71        73.19447
415.15        72.76366
415.60        72.24509
416.05        71.88415
416.49        71.75819
416.94        71.82446
417.39        71.92312
417.83        71.76076
418.28        71.30083
418.73        70.66193
419.17        70.08193
419.62        69.93665
420.07        70.24909
420.51        70.87875
420.96        71.57657
421.41        71.85262
421.85        71.56587
422.30        71.18963
422.74        70.78902
423.19        70.09431
423.64         69.3592
424.08        69.64226
424.53        70.76512
424.98        71.37484
425.42        71.30087
425.87        71.51839
426.31        71.98209
426.76        71.67667
427.21        70.90007
427.65        71.08533
428.10        72.12493
428.54        72.87799
428.99        73.26943
429.44        73.43664
429.88        73.42506
430.33        74.17683
430.77        75.05122
431.22        73.87514
431.66        71.21088
432.11        69.77565
432.56        69.88942
433.00        70.51328
433.45        71.50058
433.89        73.33298
434.34        74.60813
434.78        75.53898
435.23        71.72532
435.67        69.76227
436.12        71.84035
436.57        73.08763
437.01        73.93214
437.46        74.40958
437.90        74.70399
438.35        73.69007
438.79        74.54592
439.24         74.2985
439.68        73.92766
440.13        73.36346
440.57        73.02967
441.02        73.90316
441.46         75.5743
441.91        76.81622
442.35        77.16857
442.80        76.25215
443.24        74.63413
443.69        75.10458
444.13        77.26361
444.58          77.249
445.02        75.30125
445.47        74.95928
445.91        76.12352
446.36        76.44353
446.80        75.84646
447.24        75.51507
447.69        75.56081
448.13        75.72658
448.58        76.03723
449.02        76.43166
449.47        76.77682
449.91        77.22765
450.36        77.18752
450.80        77.12395
451.25        76.93919
451.69         76.7261
452.13        76.53705
452.58        76.35875
453.02        76.22344
453.47        76.21347
453.91        76.31503
454.36        76.51137
454.80        76.71333
455.24        76.69167
455.69        76.42825
456.13        76.08331
456.58        75.78812
457.02        75.36369
457.46        75.01154
457.91        75.25194
458.35         75.8681
458.79        76.12238
459.24        75.99889
459.68        75.67078
460.13        75.18797
460.57        75.14052
461.01        75.02435
461.46        74.05404
461.90        74.09521
462.34        74.19614
462.79        73.86629
463.23        73.80268
463.68         74.1573
464.12         74.5349
464.56        74.91255
465.01        74.95837
465.45        74.60017
465.89        74.43835
466.34        74.32619
466.78         73.2236
467.22        71.75693
467.67        70.99266
468.11        72.61008
468.55        73.36962
468.99        73.39931
469.44        73.01183
469.88         72.4181
470.32        72.29171
470.77        72.58179
471.21        72.50391
471.65        72.03527
472.10         71.8215
472.54        71.89583
472.98        71.96227
473.42        71.99461
473.87        72.23603
474.31        72.53002
474.75        72.34126
475.20        71.79124
475.64        71.63506
476.08        71.92074
476.52        71.86594
476.97        71.38857
477.41        71.78766
477.85        72.02526
478.29        71.52171
478.74        71.53167
479.18        72.04842
479.62        70.86223
480.06        71.18109
480.50        71.68093
480.95        72.05831
481.39        72.16741
481.83        71.28223
482.27        71.29656
482.72        71.60841
483.16        70.09584
483.60        70.37646
484.04        71.92357
484.48        72.17078
484.93        71.70332
485.37        73.35445
485.81        73.82001
486.25        72.66461
486.69        99.07243
487.14        80.26119
487.58         49.7233
488.02        60.91257
488.46        68.98003
488.90        68.65443
489.34        69.91363
489.79        69.31767
490.23        71.31857
490.67        72.21635
491.11        71.18385
491.55        71.02376
491.99        71.35247
492.43        71.08906
492.88        70.36502
493.32        70.39919
493.76         70.6572
494.20         70.9579
494.64        71.02441
495.08        71.16357
495.52        71.40643
495.96        71.23006
496.41        70.71624
496.85        71.26573
497.29        72.48205
497.73        71.32938
498.17        68.86167
498.61        68.89641
499.05        71.49139
499.49        72.11777
499.93        72.23594
500.37        72.06746
500.82        71.48562
501.26        71.33917
501.70        71.47564
502.14        71.70082
502.58        71.82723
503.02        71.76127
503.46        71.48236
503.90        71.05523
504.34         70.6361
504.78        70.42181
505.22        70.43588
505.66        70.70871
506.10        71.15832
506.54        71.27553
506.98        70.91561
507.42        71.43396
507.86        71.01037
508.30        70.59436
508.74        70.94733
509.18        71.02422
509.62        71.12402
510.06         71.1199
510.50        71.01719
510.94        70.82762
511.38        70.62718
511.82        70.55783
512.26        70.64557
512.70        70.84869
513.14        71.08419
513.58        71.21877
514.02        71.20948
514.46        71.08678
514.90        70.92753
515.34        70.83791
515.78        70.83678
516.22        70.95722
516.66         71.1209
517.10         71.0357
517.54         70.6766
517.98        70.69347
518.42        70.35213
518.86         70.4235
519.30        70.67544
519.74        71.11372
520.18        71.58595
520.62        71.84039
521.06        71.82667
521.50        71.62083
521.93        71.32921
522.37        71.12708
522.81         71.0763
523.25        71.11813
523.69        71.22684
524.13        71.36482
524.57        71.50773
525.01        71.67255
525.45        71.81667
525.89        71.86544
526.32        71.79882
526.76        71.63007
527.20        71.41804
527.64        71.28075
528.08        71.26231
528.52        71.27565
528.96        71.23824
529.40        71.21815
529.83        71.23522
530.27         70.5545
530.71        70.64758
531.15        70.51014
531.59        70.58504
532.03        70.78804
532.46        71.08789
532.90        71.39986
533.34        71.66486
533.78        71.89558
534.22        72.05206
534.66         72.0853
535.09         71.9826
535.53        71.78497
535.97        71.52695
536.41        71.28999
536.85        71.11028
537.28        70.98263
537.72        70.90614
538.16        70.88506
538.60        70.91469
539.04         70.9389
539.47        70.94452
539.91        71.10115
540.35        71.31985
540.79        71.29808
541.22        71.07392
541.66        70.99873
542.10        71.08374
542.54        71.13248
542.97        71.12794
543.41        71.15569
543.85        71.19991
544.29        71.26408
544.72        71.28845
545.16        71.18768
545.60         70.9424
546.04        70.63532
546.47        70.38815
546.91        70.26031
547.35         70.3422
547.79        70.93217
548.22        71.72128
548.66        71.88947
549.10        71.37106
549.53        70.61294
549.97        69.93047
550.41        69.56932
550.84        69.63181
551.28        70.05591
551.72        70.64043
552.15        71.00983
552.59        71.06127
553.03        70.91896
553.46        70.66935
553.90        70.51244
554.34        70.49871
554.77         70.4828
555.21        70.44375
555.65        70.57788
556.08        70.90111
556.52        70.50994
556.96        71.00576
557.39        70.90253
557.83        70.72511
558.27        70.61127
558.70        70.60309
559.14        70.52721
559.57        70.42862
560.01        70.64812
560.45        71.07406
560.88        71.25221
561.32         71.1404
561.75        70.93216
562.19        70.72497
562.63        70.31638
563.06        69.87344
563.50         69.9939
563.93        70.52494
564.37        70.73816
564.80        70.55653
565.24        70.41355
565.68        70.35565
566.11        70.31115
566.55        70.34641
566.98        70.39494
567.42        70.46578
567.85        70.71131
568.29        71.09642
568.72        71.09767
569.16        70.93416
569.60        71.30202
570.03         71.8624
570.47        71.87769
570.90        71.64528
571.34        70.07211
571.77         70.8747
572.21        71.22444
572.64        70.60609
573.08        69.52146
573.51        66.61447
573.95        69.20831
574.38        73.65827
574.82        71.40746
575.25        71.02854
575.69        68.96755
576.12        67.87506
576.56        66.80195
576.99        68.04742
577.42        71.73946
577.86        71.80111
578.29        70.92912
578.73        74.63102
579.16         69.0323
579.60        62.92986
580.03        65.70293
580.47        70.25192
580.90          71.678
581.33        70.51687
581.77         69.7368
582.20        76.87508
582.64        76.50731
583.07        65.05511
583.51        63.64436
583.94        62.44024
584.37        65.20186
584.81        68.50884
585.24        72.37019
585.68        74.45018
586.11        72.87822
586.54         67.9222
586.98        65.73442
587.41         66.1524
587.85        69.65717
588.28        72.26737
588.71        68.89938
589.15        66.60912
589.58        67.89935
590.01        68.53677
590.45        69.32298
590.88        69.80548
591.31        69.00671
591.75        68.68763
592.18        68.88242
592.61        70.54632
593.05        70.90179
593.48        73.49543
593.91        75.17098
594.35        68.53278
594.78        67.21034
595.21          66.689
595.65         69.6674
596.08        72.41149
596.51        69.55993
596.94        67.48906
597.38        68.07088
597.81        70.72494
598.24        72.63469
598.68        71.20708
599.11        69.81208
599.54        72.83345
599.97        74.44353
600.41        68.97314
600.84        68.96873
601.27        70.54388
601.70        69.64192
602.14        69.72478
602.57        68.69727
603.00        69.11803
603.43        70.73253
603.87        71.97957
604.30          71.559
604.73        69.75547
605.16        67.79403
605.60        69.20019
606.03        70.17256
606.46        71.03181
606.89         70.8997
607.32        68.67279
607.76        68.74883
608.19        70.85708
608.62        69.90462
609.05         68.6575
609.48        69.12735
609.92        68.99448
610.35        68.82206
610.78        70.76134
611.21        71.53899
611.64        68.30084
612.07        69.00052
612.50        69.38261
612.94        69.74525
613.37        69.02895
613.80        69.50959
614.23        69.75887
614.66        69.78647
615.09        70.12576
615.52        70.17168
615.96        70.05436
616.39        70.13446
616.82        69.24369
617.25         69.0464
617.68        69.74324
618.11        70.32637
618.54        70.66282
618.97        70.02866
619.40        68.87423
619.84        68.72488
620.27         69.7042
620.70        70.42708
621.13        70.69646
621.56        69.88716
621.99        68.80332
622.42        69.52747
622.85        71.66819
623.28        71.53838
623.71        70.68451
624.14        70.87257
624.57        70.26509
625.00        70.09106
625.43        70.31189
625.86        69.84443
626.29        70.16364
626.72        70.46852
627.15        70.39835
627.58        70.45584
628.01        70.38824
628.44         70.7766
628.87        70.57907
629.30        70.82602
629.73        71.09695
630.16        71.19879
630.59        71.12777
631.02        70.48244
631.45        70.38629
631.88        70.06481
632.31        69.86532
632.74        69.75141
633.17        69.72136
633.60        69.74541
634.03        69.79945
634.46        69.90475
634.89        70.02647
635.32        70.10677
635.75        70.13129
636.18         70.1015
636.61        70.05679
637.04         70.0706
637.47        70.15543
637.89        70.29658
638.32        70.42078
638.75        70.45535
639.18          70.381
639.61        70.23139
640.04        70.04967
640.47         69.9012
640.90        69.81219
641.33        69.76044
641.76        69.71858
642.18        69.74197
642.61        69.82142
643.04        69.78754
643.47        69.59422
643.90          70.071
644.33        69.76823
644.76        69.85217
645.18          69.881
645.61        69.85861
646.04        69.77122
646.47        69.61813
646.90         69.4859
647.33        69.47321
647.75        69.62112
648.18        69.90597
648.61        70.14871
649.04        70.16695
649.47        69.87916
649.89        69.03533
650.32        68.08321
650.75        68.00974
651.18        68.79276
651.61        69.70064
652.03        70.27589
652.46        70.17062
652.89        69.76437
653.32        69.00424
653.74        68.33089
654.17        69.84109
654.60        70.46393
655.03        68.13637
655.46         69.2645
655.88        72.84889
656.31        78.04192
656.74        178.4958
657.16        116.1195
657.59        41.04987
658.02        30.53505
658.45        52.43018
658.87        67.03549
659.30        70.08943
659.73        69.10745
660.15        66.77579
660.58        69.18327
661.01        70.91279
661.44        68.61681
661.86        67.86274
662.29        67.87978
662.72        68.72967
663.14        70.13564
663.57        70.14526
664.00        68.99243
664.42        68.73861
664.85        69.45402
665.27        69.78448
665.70        69.58001
666.13        69.38104
666.55        69.18846
666.98        68.83295
667.41        68.44742
667.83        68.30977
668.26        68.47201
668.69        68.82481
669.11        69.15889
669.54        69.47738
669.96        69.07291
670.39        68.56001
670.82        67.98315
671.24        67.77315
671.67        68.02976
672.09        68.55951
672.52        69.05865
672.94        69.57961
673.37        68.91576
673.80        68.66914
674.22        68.58675
674.65        68.49772
675.07        68.41066
675.50        68.31906
675.92        68.26741
676.35        68.35618
676.77        68.57803
677.20        68.84215
677.62        69.09115
678.05        69.17548
678.47        69.05143
678.90        69.00819
679.32        68.71142
679.75        68.47845
680.17        68.48827
680.60        68.49822
681.02        68.54713
681.45        68.51771
681.87        68.39713
682.30        68.31423
682.72        68.29527
683.15        68.15219
683.57        68.02474
684.00        68.34393
684.42        69.11757
684.85        69.45033
685.27        69.30872
685.70        69.07984
686.12        68.85197
686.54        68.70048
686.97        68.66769
687.39        68.61366
687.82        68.71675
688.24        68.73501
688.66        68.70467
689.09        68.64602
689.51        68.60372
689.94        68.62153
690.36         68.7148
690.78        68.83743
691.21        68.95675
691.63        69.07403
692.06        69.15598
692.48        69.12695
692.90        69.02569
693.33         68.9812
693.75        69.01231
694.17        69.06334
694.60        69.12056
695.02        69.16512
695.44        69.15236
695.87         69.2644
696.29        69.50363
696.71        69.29533
697.14        68.83829
697.56        69.39364
697.98        70.65183
698.41        70.49133
698.83        69.62646
699.25        68.98516
699.68        68.88618
700.10        68.69286
700.52        68.45103
700.94        68.52361
701.37        68.85335
701.79        69.23999
702.21        69.58967
702.64        69.95905
703.06        70.23472
703.48        70.22986
703.90        69.93736
704.33        69.40922
704.75        68.81802
705.17        68.53493
705.59        68.65612
706.01        68.97438
706.44        69.31713
706.86        69.98756
707.28        69.97063
707.70        70.06754
708.12        70.05773
708.55        69.95718
708.97        69.89935
709.39        69.76585
709.81        69.63571
710.23        69.57168
710.66        69.59344
711.08        69.71898
711.50        69.86384
711.92        69.90591
712.34         69.8164
712.76        69.61276
713.19        69.39842
713.61        69.37074
714.03         69.5535
714.45         69.8939
714.87         70.2184
715.29        70.25127
715.71         69.9464
716.13        69.39891
716.56        68.82005
716.98         68.5798
717.40        68.75765
717.82        69.23714
718.24        69.82108
718.66        70.17242
719.08        70.19037
719.50        69.98029
719.92        69.65244
720.34        69.40242
720.76        69.30021
721.19        69.17003
721.61        69.22412
722.03         69.3242
722.45        69.51504
722.87        69.79609
723.29         70.1048
723.71        70.32127
724.13        70.40749
724.55        70.38081
724.97        70.29711
725.39        70.24426
725.81        70.24587
726.23        70.30907
726.65        70.40057
727.07        70.29256
727.49        70.25178
727.91        70.09945
728.33        69.96366
728.75        69.90987
729.17        69.95825
729.59         70.0704
730.01        70.23346
730.43        70.42659
730.85         70.6345
731.27        70.88776
731.69        71.11104
732.10        71.16254
732.52        71.02016
732.94        70.75864
733.36         70.5406
733.78        70.49625
734.20        70.66019
734.62        71.29497
735.04        72.13802
735.46        72.05261
735.88        71.24374
736.30         71.3666
736.72        72.39869
737.13        72.76907
737.55        72.26455
737.97        72.25877
738.39        72.71878
738.81        72.02065
739.23         70.6344
739.65        71.36902
740.06         73.7285
740.48        74.01021
740.90        72.29835
741.32        71.54458
741.74        72.03249
742.16        72.35876
742.57        72.56379
742.99        73.41871
743.41          74.635
743.83        75.29939
744.25        75.25068
744.67        74.72511
745.08        74.03723
745.50        73.70582
745.92         73.8884
746.34        74.41074
746.75        75.04819
747.17        75.41818
747.59        75.43754
748.01         75.2523
748.42        75.05635
748.84        75.11809
749.26        75.53722
749.68        76.19365
750.09        76.91444
750.51        77.52756
750.93        77.86737
751.35        77.59925
751.76         76.9184
752.18        76.64823
752.60        76.79868
753.01        76.70399
753.43        76.40942
753.85        76.49026
754.27        76.98048
754.68        77.63832
755.10        78.29391
755.52        78.82128
755.93         79.1315
756.35        79.20116
756.77        79.17101
757.18        79.16185
757.60        79.23458
758.02        79.62061
758.43         80.0253
758.85        79.46565
759.26        78.41519
759.68        77.63245
760.10        79.23054
760.51        79.49585
760.93        78.87141
761.34        78.09606
761.76        77.63453
762.18        77.38375
762.59          77.479
763.01        77.80511
763.42        78.33553
763.84        78.81297
764.26         79.1702
764.67        79.38881
765.09        79.40732
765.50        79.16798
765.92        78.68708
766.33        77.75175
766.75         76.7111
767.16        76.34692
767.58        76.83112
768.00        78.05812
768.41        79.76253
768.83        81.23872
769.24        81.82592
769.66        81.04261
770.07        79.40294
770.49        77.50991
770.90        75.98476
771.32        76.95132
771.73        79.64375
772.15        79.35692
772.56        76.48026
772.97        75.81731
773.39        77.33762
773.80        77.81557
774.22        77.07174
774.63        77.02654
775.05        77.62157
775.46        77.96279
775.88        77.93888
776.29        77.80161
776.70        77.62804
777.12        77.57564
777.53        77.69764
777.95        77.87965
778.36        78.02168
778.77        77.95586
779.19        77.69295
779.60         77.2952
780.02        76.92161
780.43        76.91154
780.84        77.37405
781.26        77.73797
781.67        77.98841
782.09        79.08645
782.50        80.47551
782.91        79.59525
783.33        77.12996
783.74        76.33287
784.15        77.36835
784.57        78.12262
784.98        78.26695
785.39        78.34386
785.81        78.26714
786.22        77.74093
786.63        77.11256
787.04        77.04689
787.46        77.61279
787.87        78.59431
788.28         79.6496
788.70         80.1653
789.11          79.991
789.52        79.42345
789.93        78.72756
790.35        78.09106
790.76        77.70124
791.17        77.87009
791.58        78.44501
792.00        78.67904
792.41        78.43474
792.82        78.33751
793.23        78.50202
793.65        77.96788
794.06        77.19604
794.47        78.53046
794.88        81.06519
795.29         80.9826
795.71        78.45699
796.12        76.19837
796.53        74.93531
796.94        74.58497
797.35        75.21503
797.76        76.37638
798.18         77.5104
798.59        78.34136
799.00        78.54671
799.41        77.86977
799.82         76.7048
800.23        75.99865
800.64        75.94475
801.06        76.17091
801.47        76.58686
801.88        76.95033
802.29        77.15064
802.70        77.30749
803.11        77.40049
803.52        77.35574
803.93        77.18913
804.34        76.88798
804.75        76.58561
805.17        76.57256
805.58        76.93869
805.99        77.39881
806.40        77.77825
806.81        78.28013
807.22        78.57844
807.63        77.63193
808.04        75.92992
808.45        75.20775
808.86        75.64423
809.27        76.40262
809.68        77.14783
810.09        77.59898
810.50        77.57786
810.91        77.20308
811.32        76.65687
811.73        76.22973
812.14        76.01527
812.55        75.88122
812.96        75.87473
813.37        76.07708
813.78        76.46529
814.19        77.06453
814.60        77.56964
815.01        77.50107
815.42        76.79605
815.83        75.55162
816.24        74.26831
816.65        73.83092
817.05        74.49892
817.46        75.99158
817.87        77.67065
818.28        78.39411
818.69        77.85226
819.10         76.3362
819.51        74.57497
819.92        73.80012
820.33        74.32986
820.74        75.78746
821.14        77.46223
821.55        78.10062
821.96         77.4335
822.37        75.90331
822.78        74.17244
823.19        73.21178
823.60        73.28328
824.00        74.13498
824.41        75.31312
824.82         76.1343
825.23        76.30679
825.64        76.06097
826.04        75.63774
826.45         75.3849
826.86        75.39967
827.27        75.52145
827.68        75.65297
828.08        75.69265
828.49        75.54111
828.90        75.32278
829.31        75.04944
829.72        74.72073
830.12         74.3983
830.53        74.06163
830.94        73.85488
831.35        73.96207
831.75        74.44121
832.16        75.18788
832.57        76.02987
832.97        76.58679
833.38        76.67036
833.79        76.37177
834.20        75.93632
834.60        75.74677
835.01        75.91702
835.42        76.33011
835.82        76.75127
836.23        76.70254
836.64        76.12752
837.04        75.21743
837.45        74.29705
837.86        73.87589
838.26        74.08214
838.67        74.71301
839.08        75.54008
839.48        76.14225
839.89        76.32772
840.29         76.2421
840.70        75.94113
841.11        75.49192
841.51         74.9688
841.92        74.32908
842.33        73.74284
842.73        73.51494
843.14        73.66368
843.54        74.14596
843.95        74.70303
844.35        74.94537
844.76        74.75601
845.17        74.27872
845.57        73.68185
845.98        73.23446
846.38        73.02483
846.79        72.94239
847.19        73.01071
847.60        73.18605
848.00        73.46505
848.41        73.83464
848.81        74.21316
849.22         74.3979
849.62        74.40379
850.03        74.26447
850.43        74.13383
850.84        74.22557
851.24        74.63404
851.65        75.11277
852.05        75.67571
852.46        76.16766
852.86        76.53127
853.27        76.86501
853.67        76.80293
854.07        75.89219
854.48        74.22259
854.88        71.97446
855.29        69.90961
855.69        69.12955
856.10        69.83142
856.50        71.88755
856.90        74.58696
857.31        76.25335
857.71         76.3354
858.12        75.22299
858.52        73.65412
858.92        72.61632
859.33        72.33967
859.73        72.55189
860.13        73.10768
860.54        73.70927
860.94        74.27676
861.34        74.89389
861.75        75.47963
862.15        75.97655
862.55        76.32374
862.96         76.4738
863.36        76.50188
863.76         76.5335
864.17        76.61002
864.57        76.76612
864.97        76.95219
865.38        77.07509
865.78        77.16846
866.18        77.18756
866.58         77.2443
866.99        77.51142
867.39        78.06913
867.79        78.89841
868.19        79.66219
868.60        79.72872
869.00        78.97336
869.40          77.591
869.80        76.31385
870.21        76.28518
870.61        77.82677
871.01        80.56586
871.41         83.6329
871.81        85.53794
872.22        85.84283
872.62         84.9642
873.02        83.60867
873.42        83.06314
873.82        83.47292
874.22        84.11817
874.63        84.71033
875.03        84.78982
875.43        84.13445
875.83        83.93537
876.23        82.47507
876.63        81.90826
877.03        82.10873
877.44        83.29437
877.84         104.291
878.24         90.4492
878.64        91.07041
879.04        91.30637
879.44        87.34023
879.84         85.2494
880.24        89.05327
880.64         90.8249
881.04        91.29543
881.44        91.34363
881.84        90.62225
882.24          89.326
882.65        88.19083
883.05        87.81483
883.45        88.31086
883.85        89.73916
884.25        91.58892
884.65        92.71198
885.05         92.7373
885.45        92.00256
885.85        91.06706
886.25        90.71415
886.65        91.11189
887.05        92.00814
887.45        93.01117
887.85         93.4413
888.25        93.09553
888.65        92.23164
889.04         91.2193
889.44           90.66
889.84        90.67938
890.24        91.04984
890.64        91.53496
891.04        91.79559
891.44        91.72267
891.84        91.45127
892.24        91.02589
892.64        90.50509
893.04        90.00787
893.44         89.5929
893.83        89.36108
894.23        89.47717
894.63        89.93866
895.03        90.63073
895.43        91.58561
895.83        92.81531
896.23        94.19592
896.63        95.67667
897.02        96.73135
897.42         96.5488
897.82        95.08028
898.22        92.66412
898.62        90.17712
899.01        88.90157
899.41        89.11165
899.81        90.36311
900.21        92.04347
900.61        93.13356
901.00        93.31091
901.40        92.92378
901.80        92.20583
902.20        91.51195
902.59         91.0014
902.99        90.52457
903.39        90.17644
903.79        90.15256
904.18        90.47153
904.58         91.1442
904.98        91.95306
905.38        92.53616
905.77         92.7751
906.17        92.72523
906.57        92.54188
906.96        92.52805
907.36        92.68089
907.76        92.92616
908.15         93.0686
908.55         92.6831
908.95        91.76744
909.34        90.46829
909.74         89.1979
910.14        88.40035
910.53        88.22994
910.93        88.60891
911.33        89.37202
911.72        90.21669
912.12        90.89462
912.52        91.38847
912.91        91.78246
913.31         92.2167
913.70        92.77082
914.10        93.40427
914.49        93.81202
914.89        93.27853
915.29        91.73506
915.68          89.524
916.08        87.62015
916.47        86.86063
916.87        87.29488
917.26        88.66419
917.66        90.20982
918.05        90.71222
918.45        89.86845
918.84        88.10877
919.24        86.26025
919.64        85.52857
920.03        86.22271
920.42        87.95747
920.82        90.10806
921.21        91.70321
921.61        92.22598
922.00        92.02084
922.40        91.32825
922.79        90.50336
923.19        89.75877
923.58        88.84368
923.98        87.76564
924.37        87.09908
924.77        87.19672
925.16        85.40035
925.55        86.62715
925.95        87.13432
926.34        88.34161
926.74        89.82898
927.13        91.27978
927.52        91.85168
927.92        91.44919
928.31        90.37486
928.70        88.92064
929.10        87.62145
929.49        86.62925
929.89        85.81818
930.28        85.48197
930.67         86.1152
931.07        87.60053
931.46        89.84698
931.85        91.93428
932.24        92.47585
932.64        91.23874
933.03        88.48355
933.42        85.02798
933.82        82.72146
934.21        82.13142
934.60         82.7447
934.99        83.76815
935.39        84.43087
935.78        84.59856
936.17        84.09942
936.56        82.62118
936.96        83.37766
937.35        81.39209
937.74        80.94364
938.13        80.73031
938.53        81.26868
938.92        82.56107
939.31        84.63293
939.70        87.00288
940.09        88.11407
940.49        87.41434
940.88        85.51525
941.27        83.38766
941.66        82.19818
942.05        82.13119
942.44        82.78775
942.84         83.9113
943.23         85.1426
943.62         86.1781
944.01        87.11441
944.40        87.76164
944.79        87.81853
945.18        87.21008
945.57        85.86874
945.97        84.02346
946.36         82.4481
946.75        81.64685
947.14        81.52768
947.53        81.75201
947.92        81.85839
948.31        81.76931
948.70        81.63904
949.09         81.5955
949.48        81.88672
949.87        82.54423
950.26        83.32375
950.65        84.11053
951.04         84.8139
951.43        85.37074
951.82        85.82973
952.21        85.88189
952.60        85.07388
952.99        83.41433
953.38        81.06744
953.77         78.7831
954.16        77.63644
954.55         77.8226
954.94        79.16154
955.33        80.72255
955.72        80.90436
956.11        79.34017
956.50          76.409
956.89        73.45029
957.28        72.94075
957.66         75.5746
958.05        80.28001
958.44        85.29804
958.83         88.0358
959.22        87.87908
959.61        85.59007
960.00        82.33279
960.39         80.0154
960.78        79.27322
961.16        79.58564
961.55        80.31296
961.94        80.37397
962.33        79.46104
962.72        78.05885
963.11         76.7079
963.49        76.02822
963.88        76.12704
964.27         76.8306
964.66         77.6937
965.04        77.88155
965.43        77.08295
965.82        75.68827
966.21         74.4416
966.60        74.29136
966.98        75.37608
967.37        77.34166
967.76        79.55901
968.15        80.78213
968.53         80.5838
968.92        79.34335
969.31        77.69239
969.69        76.44823
970.08        75.84811
970.47        75.71652
970.86        75.78336
971.24        75.59268
971.63        75.02615
972.02        74.23292
972.40        73.71143
972.79        74.27722
973.17         76.2054
973.56        79.13393
973.95        82.15868
974.33        83.59286
974.72        82.89055
975.11         80.5976
975.49        77.92945
975.88        76.52499
976.26        76.63543
976.65        77.91254
977.04        79.44656
977.42        79.10969
977.81        76.29176
978.19         71.9904
978.58        68.22874
978.96        66.97638
979.35        68.48991
979.74        72.31417
980.12        77.53047
980.51         80.9343
980.89        81.43187
981.28        79.79684
981.66        77.34423
982.05        75.76617
982.43        75.39001
982.82        75.62634
983.20        76.27464
983.59        77.13278
983.97        78.16984
984.35        79.58491
984.74        80.99496
985.12        81.75988
985.51        81.38007
985.89        79.84309
986.28        77.72054
986.66        75.87892
987.04        74.84232
987.43        74.50423
987.81         74.3525
988.20        73.65582
988.58        72.10647
988.96        69.40601
989.35        66.00403
989.73        64.70036
990.12        67.32101
990.50        72.73814
990.88        77.42026
991.27        78.70164
991.65        77.02386
992.03        73.12171
992.42        68.84765
992.80         67.3907
993.18        69.55314
993.56        73.47415
993.95        77.34848
994.33        79.64956
994.71        80.06113
995.10        79.49865
995.48        78.16505
995.86        76.12128
996.24        73.51721
996.63        70.03886
997.01        66.62623
997.39        66.15607
997.77        69.68229
998.15        76.41621
998.54        83.31963
998.92        86.46541
999.30        84.67561
999.68        78.88042
1000.06        70.62191
1000.45        63.94891
1000.83        60.78741
1001.21        60.12592
1001.59        61.11365
1001.97        62.76023
1002.35        64.67508
1002.73        67.51788
1003.12        70.53849
1003.50        71.10828
1003.88         68.1423
1004.26        62.96503
1004.64        57.82473
1005.02        54.49198
1005.40        52.96052
1005.78         52.7266
1006.16        54.84871
1006.54        60.49926
1006.92        67.01308
1007.30        71.90929
1007.69        74.72018
1008.07        76.36576
1008.45        77.49754
1008.83        78.18861
1009.21        76.90508
1009.59        64.87773
1009.97        17.63145
1010.35       -65.68246
1010.73       -68.95475
1011.11        -24.5931
1011.49        11.38714
1011.86        38.04753
1012.24        53.56701
1012.62        60.47952
1013.00        62.21674
1013.38        60.59045
1013.76        57.14577
1014.14        57.06794
1014.52        64.72649
1014.90        80.65277
1015.28        100.7965
1015.66        112.7986
1016.04         108.646
1016.41        90.43297
1016.79        68.42874
1017.17        53.48681
1017.55        47.43423
1017.93        45.86914
1018.31         46.5864
1018.69        48.83978
1019.06        52.53524
1019.44        57.90583
1019.82        66.52283
1020.20        78.86615
1020.58        94.91217
1020.95        117.4116
1021.33        148.8668
1021.71       -154.7605
1022.09        98.90823
1022.46        117.5474
1022.84        126.5465
1023.22        135.3764
1023.60        153.2978
1023.97         316.205
1024.35        44.36629
1024.73        78.59923
