SpectraSmart Spectrum 2.9.0.0
--------- Device Information -----------
Spectrum Name :  反射率_0
Saving Time :  2024/04/26 02:08:44
Spectro-Module Model Name : SE2030-DUVN
Spectro-Module Serial Number : OS361AC55029948
Wavelength Start : 200
Wavelength End : 1025
Wavelength Unit : Wavelength(nm)
Spectrum Unit : Reflectance(%)
-----------Spectrum Setting ------------
Integration Time : 20ms
Average : 10
Boxcar : 0
Background removal :  enabled
linearity correction :  enabled
SC :  disabled
Intensity correction :  disabled
DWT denoise :  enabled
savitzky-golay :  disabled
FFT :  disabled
Running average :  disabled
Kalman :  disabled
High pass :  disabled
---------------BEGIN--------------------
Wavelength(nm)             Reflectance(%)
200.29               0
200.75         89.7252
201.21         83.9532
201.67        76.60107
202.13        72.00813
202.58        70.82877
203.04        72.20115
203.50        74.74201
203.96         76.1105
204.42         75.6947
204.88        74.40358
205.34        73.28476
205.80        73.41035
206.26        75.31523
206.72        80.13703
207.18        89.35338
207.64        95.86157
208.10        87.60088
208.55        74.53519
209.01        67.11446
209.47        65.61545
209.93        67.64838
210.39        72.30314
210.85        77.24066
211.31         77.3288
211.77        71.21161
212.23        60.99887
212.69        50.99881
213.14        47.84279
213.60        52.57814
214.06        63.36409
214.52        76.13129
214.98        84.52564
215.44        86.66966
215.90        84.40012
216.36        80.00651
216.81        76.62452
217.27        75.37766
217.73        75.15125
218.19        74.44198
218.65        71.13879
219.11        64.22871
219.57        52.92696
220.02        38.29724
220.48        28.32203
220.94        28.11906
221.40         36.2891
221.86        45.48387
222.32         47.6007
222.77        43.02725
223.23        35.70895
223.69        29.60733
224.15        28.81274
224.61        32.82446
225.06        39.52352
225.52        45.89792
225.98        48.24556
226.44        45.98217
226.90        40.87984
227.36        35.05858
227.81        31.30816
228.27        30.59471
228.73        31.79159
229.19        34.13555
229.65        36.48114
230.10        38.27905
230.56        39.76952
231.02         40.9175
231.48        41.64374
231.93        41.98903
232.39        41.94833
232.85        41.61582
233.31        41.21801
233.77        40.81729
234.22        40.38436
234.68        39.92625
235.14        39.37646
235.60        38.80662
236.05        38.37913
236.51        38.17263
236.97        38.21443
237.43        38.57898
237.88        39.36288
238.34        40.78179
238.80        43.19965
239.26         46.5166
239.71        50.52412
240.17        54.39008
240.63        57.32691
241.08        59.17312
241.54        59.94874
242.00        60.25962
242.46        61.17532
242.91        63.69229
243.37        69.45271
243.83        86.97717
244.28        143.9071
244.74        208.8067
245.20        173.5079
245.66        140.8398
246.11        131.5685
246.57        135.6875
247.03        157.1041
247.48        218.9556
247.94        174.5122
248.40        105.1019
248.85        85.61292
249.31        80.83371
249.77        81.76543
250.22        86.39367
250.68        95.31683
251.14        108.7439
251.59         119.311
252.05        118.5176
252.51        108.9204
252.96        97.16603
253.42        90.36337
253.88        88.30061
254.33        88.55855
254.79        90.59277
255.25        93.13945
255.70        95.32845
256.16        97.67715
256.62        99.08721
257.07        98.30795
257.53        96.02525
257.99        92.39289
258.44        88.39446
258.90        86.28178
259.35        85.18303
259.81        84.53107
260.27        83.04423
260.72        79.46104
261.18         74.5324
261.63        68.76518
262.09         63.3904
262.55        59.09797
263.00        55.95033
263.46        53.79753
263.91        52.08258
264.37        50.52025
264.83        48.84909
265.28        47.01174
265.74        45.31271
266.19        43.94759
266.65        43.08826
267.11        42.55422
267.56        41.98022
268.02        40.91683
268.47        39.25078
268.93        37.14267
269.38        34.90711
269.84        33.34424
270.30        32.68017
270.75        32.70816
271.21        33.01071
271.66        32.94267
272.12        32.32621
272.57        31.35741
273.03        30.33725
273.48        29.63535
273.94         29.3616
274.39        29.31967
274.85        29.31459
275.31        29.06472
275.76        28.49837
276.22        27.75689
276.67        26.95821
277.13        26.35691
277.58        25.96107
278.04        25.72248
278.49        25.50019
278.95        25.15824
279.40        24.64201
279.86        24.05938
280.31        23.46319
280.77         23.0394
281.22        22.77935
281.68        22.64547
282.13        22.56136
282.59        22.45369
283.04        22.29823
283.50        22.16154
283.95         22.0268
284.41        21.88586
284.86        21.74018
285.32        21.59232
285.77        21.52754
286.22        21.73769
286.68         22.2036
287.13        22.82339
287.59        23.37742
288.04        23.53178
288.50        23.26167
288.95        22.67543
289.41         22.0083
289.86        21.50736
290.32        21.30746
290.77        21.32832
291.22         21.5481
291.68        21.89005
292.13        22.33027
292.59        22.90309
293.04        23.61789
293.50        24.47738
293.95        25.45854
294.40        26.52336
294.86        27.61995
295.31        28.69091
295.77        29.73862
296.22        30.78639
296.68        31.87843
297.13          33.053
297.58        34.32666
298.04        35.68462
298.49          37.126
298.95        38.70435
299.40        40.40528
299.85        42.21202
300.31        44.02489
300.76        45.68309
301.21        47.12977
301.67        48.43724
302.12        49.65211
302.58        50.95102
303.03        52.34649
303.48        53.81716
303.94        55.38725
304.39        57.02579
304.84        58.72935
305.30        60.50572
305.75         62.2296
306.20        63.73951
306.66        65.02328
307.11        66.06231
307.57        67.03683
308.02        68.10318
308.47         69.3489
308.93        70.73833
309.38        72.11449
309.83        73.27976
310.29        74.18764
310.74        74.87663
311.19        75.51344
311.65        76.35062
312.10        77.42586
312.55        78.66999
313.00        79.86847
313.46        80.67656
313.91         81.0014
314.36        80.97022
314.82        80.85431
315.27        81.02123
315.72        81.59244
316.18        82.45193
316.63        83.41387
317.08        84.13058
317.53        84.49844
317.99        84.61662
318.44        84.66721
318.89        84.94479
319.35        85.50063
319.80        86.26067
320.25        87.00813
320.70        87.39473
321.16        87.34369
321.61        86.97592
322.06        86.52222
322.51        86.34455
322.97        86.51222
323.42        86.94907
323.87        87.47581
324.32        87.78658
324.78        87.78595
325.23        87.61485
325.68        87.38384
326.13        87.29507
326.59        87.39379
327.04        87.64108
327.49        87.99274
327.94        88.40972
328.39        88.85725
328.85        89.32491
329.30         89.8086
329.75         90.1402
330.20        90.30356
330.66        90.32849
331.11        90.37434
331.56        90.62798
332.01        91.15525
332.46        91.88781
332.92        92.73605
333.37        93.70795
333.82        94.67191
334.27        95.63495
334.72        96.44931
335.17        96.88147
335.63        96.90012
336.08        96.61383
336.53        96.25463
336.98        96.24944
337.43        96.70773
337.88        97.50582
338.34          98.463
338.79        99.36352
339.24        100.0681
339.69        100.6633
340.14        101.0916
340.59        101.2561
341.05        101.1828
341.50        100.8896
341.95        100.5926
342.40        100.6398
342.85        101.0997
343.30        101.8866
343.75        102.7856
344.20        103.4007
344.66        103.6227
345.11        103.5472
345.56        103.3347
346.01        103.2328
346.46        103.3204
346.91        103.5202
347.36        103.7664
347.81        103.9684
348.26        104.0972
348.72        104.1989
349.17        104.2866
349.62        104.4228
350.07        104.6064
350.52        104.7992
350.97         104.928
351.42         104.891
351.87        104.6766
352.32        104.3301
352.77        103.9269
353.22        103.5855
353.67        103.3427
354.13        103.1768
354.58          103.03
355.03         102.867
355.48        102.6601
355.93        102.4152
356.38        102.1137
356.83        101.7242
357.28        101.2447
357.73        100.6894
358.18         100.077
358.63        99.44044
359.08        98.80438
359.53        98.17536
359.98        97.57977
360.43        97.05251
360.88        96.58685
361.33        96.15575
361.78         95.7283
362.23        95.25517
362.68         94.7234
363.13        94.16051
363.58        93.54064
364.03        92.82197
364.48        92.01385
364.93        91.12947
365.38        90.27856
365.83        89.64135
366.28        89.23833
366.73        88.99826
367.18        88.77783
367.63        88.34053
368.08        87.63905
368.53        86.78051
368.98        85.84747
369.43        84.95657
369.88        84.15932
370.33        83.41364
370.78        82.79382
371.23        82.42818
371.68        82.31911
372.13        82.42686
372.58        82.57505
373.03        82.45715
373.48        82.00308
373.93        81.31105
374.38        80.53944
374.83        79.93646
375.28        79.56737
375.72        79.33643
376.17        79.20544
376.62        79.08741
377.07        78.92998
377.52        78.74615
377.97        78.49181
378.42        78.09256
378.87        77.55495
379.32        76.92712
379.77        76.25425
380.22        75.59859
380.67        74.98029
381.11        74.38047
381.56        73.85656
382.01         73.5052
382.46        73.34261
382.91        73.35982
383.36        73.40173
383.81        73.21825
384.26        72.76475
384.71         72.1005
385.15        71.42308
385.60        71.10069
386.05         71.1435
386.50        71.42534
386.95        71.68729
387.40        71.50102
387.85        70.82058
388.29         69.8307
388.74        68.87376
389.19        68.15607
389.64        67.71703
390.09        67.42857
390.54        67.31419
390.98        67.41565
391.43        67.69753
391.88        68.13135
392.33         68.4688
392.78        68.32436
393.23        67.69595
393.67        66.74303
394.12        65.87105
394.57        65.37675
395.02        65.37069
395.47        65.86609
395.91        66.67694
396.36        67.21037
396.81        67.31649
397.26        67.19157
397.71          66.892
398.15        66.38126
398.60        65.79917
399.05        65.23194
399.50        64.73865
399.95        64.07337
400.39        63.60848
400.84        63.47156
401.29        63.67212
401.74        63.76571
402.18        63.70371
402.63        63.65268
403.08        63.68348
403.53        63.79951
403.97         63.9994
404.42        64.25167
404.87        64.41026
405.32        64.23933
405.76        63.71309
406.21        62.97743
406.66        62.24105
407.11        61.84723
407.55        61.87793
408.00        62.10229
408.45        62.40793
408.90        62.80095
409.34        63.05833
409.79        62.70835
410.24        61.95516
410.68        61.55287
411.13        61.58737
411.58        61.65279
412.03        61.73088
412.47        61.97147
412.92        62.30537
413.37        62.71171
413.81        63.06656
414.26        63.21872
414.71        63.12071
415.15        62.80283
415.60        62.38958
416.05        62.10614
416.49        62.01986
416.94        62.09552
417.39        62.18554
417.83        62.02372
418.28        61.58284
418.73         60.9716
419.17        60.43174
419.62        60.33957
420.07        60.72614
420.51        61.44921
420.96        62.24063
421.41        62.62234
421.85        62.44766
422.30        62.03907
422.74        61.51813
423.19        60.96561
423.64         60.5195
424.08        60.58552
424.53        61.05521
424.98         61.3671
425.42         61.4463
425.87        61.67851
426.31        62.03922
426.76         62.1225
427.21        62.03778
427.65        62.27652
428.10        62.78581
428.54         63.3059
428.99        63.81769
429.44        63.99143
429.88         63.8595
430.33        64.52358
430.77        65.38164
431.22        64.25258
431.66         61.7217
432.11        60.51402
432.56        60.85472
433.00        61.63626
433.45        62.71877
433.89        64.25877
434.34        64.95099
434.78        66.57814
435.23        62.86338
435.67        61.01399
436.12        63.32377
436.57        64.35635
437.01        64.87267
437.46        65.06217
437.90        65.08733
438.35        64.78461
438.79        65.04131
439.24        64.94455
439.68        64.80169
440.13        64.48289
440.57        64.28724
441.02        65.23547
441.46        66.89008
441.91        67.57455
442.35         67.1776
442.80        66.36674
443.24        65.67133
443.69        66.17245
444.13        67.58239
444.58        67.44133
445.02          65.979
445.47        65.79047
445.91        66.79102
446.36        67.09908
446.80        66.64361
447.24        66.48277
447.69        66.70549
448.13        66.72248
448.58        67.03104
449.02        67.29301
449.47        67.59875
449.91        67.84984
450.36        68.02525
450.80        68.12364
451.25        68.14764
451.69        68.08801
452.13        67.97032
452.58        67.79957
453.02        67.63154
453.47        67.59222
453.91        67.68327
454.36         67.8801
454.80        68.10126
455.24        68.08141
455.69        67.79093
456.13        67.48611
456.58        67.33399
457.02         66.6819
457.46        66.70534
457.91        66.85659
458.35        67.29536
458.79        67.50491
459.24        67.45173
459.68        67.33983
460.13        67.20607
460.57        66.93371
461.01        66.58292
461.46        66.19377
461.90        65.84086
462.34        65.68192
462.79        65.71609
463.23         65.8855
463.68        66.12563
464.12        66.39418
464.56        66.62714
465.01        66.84988
465.45        66.89183
465.89        66.75227
466.34        66.36101
466.78        65.34738
467.22         64.2954
467.67        63.52419
468.11        65.16753
468.55        65.74165
468.99        65.61359
469.44        65.24171
469.88        64.83267
470.32        64.85094
470.77        65.20573
471.21        65.20233
471.65        64.80386
472.10        64.59146
472.54        64.60724
472.98        64.61366
473.42         64.6002
473.87        64.76781
474.31        64.99547
474.75        64.85745
475.20          64.464
475.64        64.40652
476.08        64.70274
476.52        64.72006
476.97        64.41686
477.41         64.4902
477.85        64.90831
478.29        64.16848
478.74         64.8283
479.18        64.74346
479.62        64.03874
480.06        64.55556
480.50        64.70953
480.95        65.01366
481.39        65.10027
481.83        63.89032
482.27        64.30531
482.72        63.97653
483.16        62.88459
483.60        63.14985
484.04        64.46197
484.48        64.90337
484.93        64.97975
485.37        65.89137
485.81        66.67185
486.25        65.58871
486.69         88.2421
487.14        70.99189
487.58        44.61427
488.02        54.74049
488.46        62.16755
488.90        61.88136
489.34        63.44266
489.79        62.75898
490.23        64.63193
490.67        65.34284
491.11        64.37528
491.55        64.27614
491.99        64.67701
492.43        64.48769
492.88        63.80723
493.32        63.81466
493.76        64.02147
494.20        64.26459
494.64        64.31557
495.08        64.34873
495.52        64.42805
495.96        64.44861
496.41        64.35715
496.85        64.66806
497.29         65.1842
497.73        64.14378
498.17        62.44256
498.61        62.80427
499.05         65.1628
499.49        65.54404
499.93        65.36308
500.37        65.00706
500.82         64.4596
501.26        64.42014
501.70        64.65044
502.14        65.07664
502.58        65.15871
503.02        64.79366
503.46        64.90163
503.90        64.48174
504.34         64.0135
504.78        63.82066
505.22        63.95856
505.66        64.34843
506.10        64.82605
506.54        64.96719
506.98        64.65482
507.42        64.58553
507.86         64.1319
508.30        63.68661
508.74          63.997
509.18        64.24857
509.62         64.5738
510.06        64.73699
510.50        64.69196
510.94        64.49794
511.38        64.24962
511.82        64.11162
512.26        64.12714
512.70        64.24393
513.14         64.3995
513.58        64.49794
514.02        64.50483
514.46        64.44827
514.90        64.37632
515.34        64.34241
515.78        64.34837
516.22        64.44613
516.66        64.58785
517.10        64.49586
517.54        64.15391
517.98        64.32966
518.42        64.04987
518.86        64.13647
519.30        64.29128
519.74        64.56363
520.18        64.86947
520.62        65.06175
521.06        65.11551
521.50        65.07314
521.93        64.96959
522.37        64.86278
522.81        64.78494
523.25        64.71678
523.69        64.69353
524.13        64.77176
524.57        64.94977
525.01        65.20926
525.45        65.47065
525.89        65.60137
526.32        65.56281
526.76        65.39103
527.20         65.1553
527.64        64.98627
528.08        64.93502
528.52        64.91251
528.96        64.85187
529.40        64.83046
529.83         64.8661
530.27        64.28584
530.71        64.41048
531.15        64.29185
531.59        64.32729
532.03        64.45017
532.46        64.65108
532.90        64.88659
533.34        65.11361
533.78        65.33504
534.22        65.50356
534.66        65.55743
535.09        65.47955
535.53         65.3122
535.97        65.09164
536.41         64.8987
536.85        64.76672
537.28        64.68604
537.72        64.64831
538.16        64.64658
538.60        64.67414
539.04        64.68339
539.47           64.67
539.91        64.79998
540.35          64.995
540.79        64.97518
541.22        64.76999
541.66        64.69238
542.10        64.74918
542.54        64.76166
542.97        64.72024
543.41        64.71184
543.85        64.73014
544.29        64.78392
544.72        64.80704
545.16        64.72242
545.60        64.51579
546.04        64.20186
546.47        63.93221
546.91        63.96523
547.35        64.31705
547.79        64.92338
548.22        65.51339
548.66        65.62851
549.10        65.21673
549.53        64.51764
549.97         63.8285
550.41        63.45567
550.84        63.48999
551.28        63.90598
551.72        64.48012
552.15        64.81879
552.59        64.79005
553.03         64.8764
553.46        64.52499
553.90        64.41415
554.34         64.4019
554.77        64.37244
555.21        64.30253
555.65        64.36221
556.08        64.58124
556.52        64.18594
556.96        64.63868
557.39        64.51985
557.83        64.35155
558.27        64.38471
558.70        64.63076
559.14        64.82873
559.57        64.92957
560.01        65.11267
560.45        65.29261
560.88        65.23563
561.32        64.96329
561.75        64.59081
562.19        64.25317
562.63        63.90292
563.06        63.64959
563.50        63.83814
563.93         64.3164
564.37        64.55913
564.80        64.48278
565.24         64.3733
565.68        64.28171
566.11        64.20698
566.55        64.21516
566.98        64.25021
567.42         64.3111
567.85        64.46391
568.29        64.70303
568.72        64.69569
569.16        64.62696
569.60        64.94936
570.03        65.34992
570.47        65.31554
570.90        65.12196
571.34        63.43117
571.77        64.37199
572.21        64.44362
572.64        64.05621
573.08        63.36079
573.51        60.32491
573.95        62.59651
574.38        66.57983
574.82        64.68132
575.25        64.36998
575.69        62.56354
576.12          61.289
576.56        60.63177
576.99         62.2393
577.42         64.9942
577.86        65.16594
578.29        63.82149
578.73        67.48273
579.16        62.25542
579.60        56.91452
580.03        59.61356
580.47        63.63532
580.90        64.81596
581.33        64.02296
581.77        63.06617
582.20        68.89149
582.64        68.59954
583.07        58.79214
583.51        57.70798
583.94        56.83306
584.37        59.44473
584.81        62.27744
585.24        65.54192
585.68         67.1825
586.11        65.67229
586.54        61.26497
586.98         59.4494
587.41        59.91503
587.85        63.22469
588.28        65.35947
588.71        62.41405
589.15        60.31408
589.58        61.63805
590.01        61.72645
590.45        63.02562
590.88        63.37055
591.31        62.80867
591.75        62.51228
592.18        62.71322
592.61        64.18265
593.05        64.47049
593.48        66.76761
593.91        67.24974
594.35        62.45706
594.78        60.96172
595.21        60.39316
595.65        62.97524
596.08        65.70697
596.51        62.92247
596.94        61.72559
597.38        62.31744
597.81        64.52607
598.24        66.43822
598.68        64.51931
599.11        63.64228
599.54         66.0823
599.97         67.2401
600.41        62.69641
600.84        62.83821
601.27         64.2393
601.70        63.28538
602.14        63.47577
602.57        62.52365
603.00        62.88795
603.43        64.28765
603.87         65.6265
604.30        65.26896
604.73        63.52917
605.16        62.00842
605.60        63.12942
606.03        63.91381
606.46        64.52573
606.89        64.12789
607.32        62.86629
607.76        62.51076
608.19        64.79013
608.62        63.90776
609.05        62.86507
609.48        63.36117
609.92        63.28019
610.35        62.92711
610.78        64.61446
611.21        65.42274
611.64         62.3187
612.07        62.98114
612.50          63.353
612.94        63.72963
613.37        63.13319
613.80        63.49439
614.23        63.78738
614.66        63.78725
615.09        64.07377
615.52        64.08031
615.96         63.9155
616.39        63.94684
616.82        63.11789
617.25        62.71524
617.68        63.36352
618.11        63.91129
618.54        64.34482
618.97        64.05172
619.40         63.3642
619.84        63.04809
620.27         64.0239
620.70        64.51452
621.13        64.67358
621.56        64.23962
621.99        63.43464
622.42         64.2606
622.85        65.87605
623.28        65.14316
623.71        64.97463
624.14        64.54213
624.57        64.37168
625.00         64.2149
625.43        64.27763
625.86        63.82801
626.29        64.13712
626.72        64.39249
627.15        64.23035
627.58        64.24979
628.01        64.27084
628.44        64.35045
628.87        64.51194
629.30        64.76342
629.73        64.96395
630.16        65.28072
630.59         64.8548
631.02        64.49754
631.45        64.09536
631.88        63.83494
632.31        63.76259
632.74        63.83828
633.17        64.00575
633.60        64.12422
634.03        64.15021
634.46        64.18079
634.89        64.21516
635.32        64.12541
635.75        63.97956
636.18        64.04156
636.61        64.28497
637.04        64.43098
637.47        64.45592
637.89        64.53606
638.32        64.63215
638.75        64.62377
639.18         64.5005
639.61        64.37225
640.04        64.15295
640.47        64.00037
640.90        63.90275
641.33         63.8466
641.76        63.80651
642.18        63.83377
642.61        63.92082
643.04        63.90838
643.47        63.75767
643.90        64.23519
644.33        64.01141
644.76         64.1516
645.18        64.23494
645.61        64.24371
646.04        64.15556
646.47        63.96835
646.90        63.78319
647.33        63.71885
647.75        63.82072
648.18        64.09382
648.61        64.33833
649.04        64.26836
649.47        63.85402
649.89        63.01346
650.32        62.16732
650.75        62.23978
651.18        63.15726
651.61        63.94262
652.03         64.2404
652.46        64.30035
652.89        64.39433
653.32        63.75365
653.74        62.71623
654.17        64.02473
654.60        64.53255
655.03         62.0294
655.46        63.34559
655.88        66.70495
656.31        70.58926
656.74        157.4107
657.16        102.3953
657.59        36.33362
658.02        27.52805
658.45        47.86083
658.87        61.51743
659.30        64.21548
659.73        63.26815
660.15        61.23052
660.58        63.51997
661.01        65.22099
661.44        63.13006
661.86        62.30716
662.29        62.10058
662.72        62.78869
663.14        64.13585
663.57         64.1684
664.00        63.09884
664.42        62.91987
664.85        63.69041
665.27        64.13071
665.70        64.04648
666.13        63.85606
666.55        63.55167
666.98        63.01353
667.41        62.43729
667.83        62.19484
668.26        62.36359
668.69        62.80474
669.11         63.2808
669.54        63.71452
669.96        63.42916
670.39        63.01423
670.82            62.5
671.24        62.28242
671.67        62.46484
672.09        62.81744
672.52        63.11792
672.94        63.62555
673.37        63.19312
673.80        62.99813
674.22        62.80805
674.65        62.69637
675.07        62.67336
675.50        62.58896
675.92        62.48492
676.35        62.51864
676.77        62.67987
677.20        62.90701
677.62        63.16388
678.05        63.21963
678.47        63.00543
678.90        63.27303
679.32        62.86395
679.75        62.75676
680.17        62.86081
680.60        62.97841
681.02        63.08811
681.45        63.03945
681.87        62.82948
682.30        62.48982
682.72        62.15422
683.15        62.05773
683.57        62.25645
684.00        62.56472
684.42        63.02413
684.85        63.23847
685.27        63.19587
685.70        62.97783
686.12        62.67252
686.54         62.4965
686.97        62.49812
687.39        62.55311
687.82        62.57235
688.24        62.84661
688.66        62.78102
689.09        62.71809
689.51        62.76508
689.94        62.77411
690.36        62.83012
690.78        62.91354
691.21        63.00497
691.63        63.06446
692.06        63.08229
692.48        63.07222
692.90        63.06743
693.33        63.10762
693.75        63.20331
694.17        63.34878
694.60        63.48991
695.02        63.54466
695.44        63.46767
695.87        63.37178
696.29        63.33017
696.71        63.12782
697.14        62.88565
697.56        63.30044
697.98        64.14417
698.41        63.94037
698.83        63.34906
699.25         62.9573
699.68        63.00818
700.10        62.94844
700.52        62.79671
700.94        62.87357
701.37        63.13767
701.79        63.43272
702.21        63.68539
702.64        63.94425
703.06         64.1251
703.48        64.08199
703.90        63.81558
704.33        63.37896
704.75         62.8979
705.17         62.6561
705.59         62.7258
706.01        62.92421
706.44        63.14321
706.86        63.72944
707.28        63.77078
707.70        64.02221
708.12        64.18874
708.55         64.0745
708.97        63.73249
709.39        63.50364
709.81        63.45963
710.23        63.42017
710.66        63.40383
711.08        63.59778
711.50        63.86652
711.92         63.9086
712.34        63.68028
712.76        63.26189
713.19        62.83193
713.61         62.7069
714.03        62.94258
714.45        63.43569
714.87        63.96447
715.29        64.18011
715.71        64.00369
716.13        63.55005
716.56        63.01448
716.98          62.739
717.40        62.81012
717.82        63.12041
718.24        63.52801
718.66        63.79486
719.08        63.84404
719.50        63.75062
719.92        63.57974
720.34        63.44969
720.76          63.401
721.19        63.28608
721.61        63.29425
722.03        63.29367
722.45        63.33459
722.87        63.42455
723.29        63.53609
723.71        63.61019
724.13        63.63032
724.55         63.6027
724.97        63.56921
725.39        63.60417
725.81        63.71801
726.23        63.88519
726.65        64.04261
727.07        64.08935
727.49        64.01189
727.91        63.85448
728.33         63.6841
728.75        63.61458
729.17        63.67426
729.59        63.81185
730.01        64.00427
730.43        64.20615
730.85        64.39425
731.27        64.60939
731.69        64.77095
732.10         64.7275
732.52        64.46634
732.94        64.06889
733.36        63.72549
733.78        63.62801
734.20        63.81862
734.62        64.50107
735.04        65.40993
735.46        65.45455
735.88        64.82671
736.30         65.0379
736.72        66.03577
737.13        66.37528
737.55        65.87624
737.97        65.62469
738.39        65.72358
738.81        65.33793
739.23        64.73164
739.65        65.44129
740.06        67.06642
740.48        67.19781
740.90         65.9477
741.32        65.44072
741.74        65.86397
742.16        66.07918
742.57        66.11857
742.99        66.65783
743.41        67.50992
743.83         67.9721
744.25         67.9341
744.67         67.5845
745.08        67.16458
745.50        67.05939
745.92        67.37808
746.34        67.98537
746.75        68.66605
747.17        69.05935
747.59        69.08742
748.01        68.85872
748.42         68.5864
748.84        68.59712
749.26        68.97556
749.68        69.59521
750.09        70.26519
750.51        70.67474
750.93        70.75016
751.35        70.53706
751.76        70.17233
752.18        70.03766
752.60        70.12348
753.01        70.03849
753.43        69.81889
753.85        69.87667
754.27        70.24033
754.68        70.71638
755.10        71.19898
755.52        71.65199
755.93        72.00743
756.35        72.22079
756.77        72.35054
757.18        72.37689
757.60        72.30551
758.02        72.48168
758.43        72.74104
758.85        72.05418
759.26         70.8203
759.68        70.87648
760.10        72.03893
760.51        72.45889
760.93        71.87685
761.34        71.15722
761.76        70.58102
762.18        70.24132
762.59        70.25627
763.01        70.50358
763.42        70.99839
763.84        71.53114
764.26         72.0416
764.67        72.55701
765.09        72.87989
765.50        72.69733
765.92        72.04021
766.33        70.83638
766.75        69.55123
767.16        69.26533
767.58        69.84821
768.00        71.20722
768.41        72.88317
768.83        73.98051
769.24        74.04969
769.66        73.24262
770.07        72.03571
770.49        70.66946
770.90         69.5667
771.32         70.4095
771.73        72.56506
772.15        72.23669
772.56        69.80967
772.97        69.32204
773.39        70.72355
773.80        71.19327
774.22        70.56167
774.63        70.54453
775.05         71.0829
775.46        71.35445
775.88        71.25959
776.29        71.03558
776.70        70.78583
777.12        70.69998
777.53        70.83797
777.95        71.09324
778.36        71.32643
778.77        71.29546
779.19        70.98727
779.60        70.49727
780.02        70.03907
780.43        69.96746
780.84        70.41356
781.26         70.9859
781.67        71.56007
782.09        72.56614
782.50        73.52843
782.91        72.60355
783.33        70.44192
783.74        69.70238
784.15        70.54087
784.57        71.21605
784.98        71.41533
785.39        71.50896
785.81        71.40193
786.22        70.86411
786.63        70.21215
787.04        70.04703
787.46        70.44326
787.87        71.20726
788.28        72.05025
788.70         72.4836
789.11        72.38109
789.52        71.91463
789.93        71.32798
790.35        70.95155
790.76        70.88756
791.17        71.08288
791.58        71.40405
792.00        71.58792
792.41         71.5527
792.82        71.38604
793.23         71.2822
793.65        71.20171
794.06        71.29316
794.47        72.33299
794.88         73.6507
795.29        73.15483
795.71        71.07674
796.12        69.09174
796.53        67.84121
796.94        67.58855
797.35        68.37882
797.76         69.6566
798.18        70.83844
798.59        71.61808
799.00        71.68014
799.41          70.795
799.82        69.44359
800.23        68.69199
800.64        68.75632
801.06        69.23633
801.47        69.95538
801.88        70.51567
802.29        70.75906
802.70        70.85979
803.11        70.82787
803.52        70.64455
803.93        70.34834
804.34        69.89445
804.75        69.47517
805.17        69.44223
805.58        69.87915
805.99        70.61721
806.40        71.33083
806.81        71.64939
807.22        71.34854
807.63        70.16373
808.04        68.60622
808.45        67.84972
808.86        68.07758
809.27        68.81331
809.68        69.71285
810.09        70.27336
810.50        70.28455
810.91        69.92213
811.32         69.3804
811.73        68.96848
812.14        68.78622
812.55        68.68639
812.96        68.68937
813.37        68.84322
813.78        69.12465
814.19        69.57735
814.60        69.95495
815.01        69.86151
815.42        69.25077
815.83        68.19931
816.24        67.14581
816.65        66.86637
817.05        67.57819
817.46        69.01897
817.87        70.60685
818.28        71.30443
818.69        70.82818
819.10        69.44391
819.51        67.79137
819.92        66.95643
820.33        67.23429
820.74        68.30287
821.14        69.59237
821.55        70.08002
821.96        69.54734
822.37        68.36305
822.78        67.04105
823.19        66.32786
823.60         66.4263
824.00        67.13497
824.41        68.10656
824.82        68.84003
825.23        69.10408
825.64        69.05947
826.04        68.85439
826.45        68.70257
826.86        68.66839
827.27        68.63874
827.68        68.57571
828.08        68.46713
828.49        68.25652
828.90         68.0423
829.31        67.80222
829.72        67.47662
830.12        67.10973
830.53        66.70211
830.94        66.43479
831.35        66.54373
831.75        67.08811
832.16        67.94243
832.57        68.88258
832.97        69.43546
833.38        69.39864
833.79        68.90386
834.20        68.24646
834.60        67.88035
835.01        67.94093
835.42        68.28534
835.82        68.69353
836.23        68.71899
836.64         68.2901
837.04        67.58459
837.45        66.84549
837.86        66.44983
838.26        66.50263
838.67        66.84863
839.08        67.35148
839.48        67.76123
839.89        67.95059
840.29        68.01238
840.70        67.95139
841.11        67.76167
841.51         67.4769
841.92         67.0629
842.33        66.66174
842.73        66.52694
843.14        66.67497
843.54        67.08331
843.95        67.51198
844.35        67.61047
844.76        67.28722
845.17        66.67001
845.57        65.99847
845.98        65.64017
846.38        65.68471
846.79         66.0021
847.19        66.44225
847.60        66.66492
848.00        66.59998
848.41        66.32782
848.81        66.00507
849.22        65.78497
849.62        65.76006
850.03        65.88253
850.43        66.11099
850.84         66.3196
851.24        66.49042
851.65        66.50665
852.05        66.56915
852.46        66.83896
852.86        67.34175
853.27        68.04797
853.67        68.46705
854.07        67.96417
854.48        66.55715
854.88        64.47948
855.29        62.50436
855.69        61.75213
856.10         62.4391
856.50        64.41162
856.90        66.97386
857.31        68.50083
857.71        68.46702
858.12        67.28016
858.52        65.69447
858.92        64.68956
859.33         64.4952
859.73        64.83347
860.13        65.54372
860.54        66.28825
860.94        66.94469
861.34        67.60574
861.75        68.19425
862.15        68.66605
862.55        68.97594
862.96        69.08359
863.36        69.07169
863.76        69.09561
864.17        69.19781
864.57        69.39285
864.97         69.6368
865.38        69.84377
865.78        70.03478
866.18        70.15995
866.58        70.25337
866.99        70.36257
867.39        70.53769
867.79        70.79279
868.19        70.92242
868.60        70.55458
869.00        69.63778
869.40        68.31311
869.80        67.19116
870.21        67.19662
870.61         68.5874
871.01        71.08592
871.41        73.87697
871.81        75.55527
872.22        75.75683
872.62        74.86452
873.02        73.61997
873.42        73.48232
873.82        74.48148
874.22        75.60707
874.63        76.63407
875.03        77.12508
875.43        76.77172
875.83        77.09319
876.23        75.28329
876.63        74.01505
877.03         72.8654
877.44        71.80981
877.84        108.6699
878.24        77.38618
878.64        79.09804
879.04        82.16879
879.44        77.01285
879.84        74.50045
880.24        80.85655
880.64        82.98586
881.04        82.31046
881.44         81.5443
881.84        80.83092
882.24        79.98111
882.65        79.45033
883.05        79.34668
883.45        79.69694
883.85        80.84821
884.25        82.40272
884.65        83.26665
885.05        83.14304
885.45        82.35661
885.85        81.41738
886.25        81.05057
886.65        81.40804
887.05        82.24677
887.45        83.23956
887.85        83.81244
888.25        83.76424
888.65        83.29617
889.04        82.63274
889.44        82.15602
889.84        81.96085
890.24        81.90757
890.64        81.91435
891.04        81.86908
891.44        81.73361
891.84        81.59212
892.24        81.42489
892.64        81.17116
893.04        80.87827
893.44        80.59824
893.83        80.46593
894.23        80.69113
894.63        81.27497
895.03        82.08786
895.43        83.03291
895.83        83.90486
896.23        84.57218
896.63        85.09951
897.02        85.24736
897.42        84.67472
897.82        83.43023
898.22        81.67519
898.62        80.05502
899.01         79.5014
899.41        80.16963
899.81        81.74033
900.21        83.54879
900.61        84.50243
901.00        84.31203
901.40        83.31075
901.80        82.01704
902.20         81.2474
902.59        81.22549
902.99         81.6955
903.39        82.32053
903.79        82.53287
904.18        82.17828
904.58        81.53484
904.98        80.89056
905.38        80.66689
905.77        80.94815
906.17        81.53096
906.57        82.24347
906.96        82.90184
907.36        83.35346
907.76        83.66872
908.15         83.7951
908.55        83.53207
908.95        82.92544
909.34        82.00262
909.74        81.02834
910.14        80.25014
910.53        79.76375
910.93        79.55909
911.33         79.6176
911.72        79.90783
912.12        80.30016
912.52        80.75293
912.91        81.18282
913.31        81.45564
913.70        81.58669
914.10        81.55952
914.49        81.30478
914.89        80.75623
915.29        79.99619
915.68        79.10229
916.08        78.40872
916.47         78.0932
916.87        78.16458
917.26        78.57876
917.66        79.07385
918.05        79.29071
918.45        79.13261
918.84         78.7354
919.24        78.36249
919.64        78.36469
920.03        78.83305
920.42        79.61913
920.82        80.52885
921.21        81.38966
921.61        81.93658
922.00        82.22523
922.40         82.1212
922.79        81.51606
923.19         80.5515
923.58        79.05413
923.98        77.11764
924.37        75.99178
924.77        76.33211
925.16        73.13058
925.55        75.35411
925.95        76.09983
926.34        77.95179
926.74        80.33185
927.13         82.6696
927.52        83.66934
927.92        83.12241
928.31        81.47394
928.70        79.24073
929.10        77.34834
929.49        76.08269
929.89         75.2443
930.28        75.01377
930.67        75.68584
931.07        77.09697
931.46        79.24287
931.85        81.29993
932.24         82.0252
932.64        81.19619
933.03        78.94572
933.42        75.99379
933.82        73.98161
934.21        73.40743
934.60        73.89898
934.99        74.59318
935.39        74.72621
935.78        74.20499
936.17        72.41843
936.56        69.22598
936.96        71.41712
937.35        70.26611
937.74        72.31509
938.13        74.07929
938.53        75.39387
938.92        76.34181
939.31        77.20596
939.70        77.77058
940.09        77.28805
940.49        75.74892
940.88        73.55904
941.27        71.59055
941.66        70.84666
942.05        71.38667
942.44        72.89755
942.84        74.84482
943.23        76.28252
943.62        76.77871
944.01        76.57396
944.40        75.88551
944.79        75.06773
945.18        74.24426
945.57        73.24363
945.97        72.16299
946.36        71.26365
946.75        70.80874
947.14        70.83257
947.53        71.11738
947.92        71.36063
948.31        71.51749
948.70        71.65891
949.09        71.85342
949.48         72.2351
949.87        72.77821
950.26        73.31043
950.65         73.7506
951.04        74.03139
951.43        74.13253
951.82         74.1291
952.21        73.84233
952.60        73.01427
952.99        71.68685
953.38        69.95566
953.77        68.40044
954.16        67.85416
954.55        68.42947
954.94        69.95194
955.33        71.59729
955.72        71.95891
956.11        70.70712
956.50        68.17959
956.89        65.47334
957.28        64.64439
957.66        66.34312
958.05        69.70345
958.44        73.43539
958.83        75.61394
959.22        75.74992
959.61        74.39682
960.00        72.32226
960.39        70.77705
960.78        70.17677
961.16        70.15578
961.55        70.30095
961.94        69.92711
962.33        68.89405
962.72        67.59286
963.11        66.40897
963.49         65.7608
963.88        65.70879
964.27        66.11059
964.66        66.77282
965.04        67.32083
965.43        67.49284
965.82        67.42139
966.21        67.27578
966.60        67.29715
966.98        67.56429
967.37        67.95678
967.76        68.35548
968.15        68.53362
968.53        68.41068
968.92        67.99525
969.31        67.49978
969.69        67.17283
970.08        67.05824
970.47        67.14614
970.86        67.13848
971.24        66.50207
971.63        65.15895
972.02        63.25211
972.40        61.42681
972.79        60.86466
973.17        61.96497
973.56        64.34509
973.95        67.19331
974.33        68.89731
974.72        68.82597
975.11         67.4761
975.49        65.63351
975.88        64.37767
976.26        63.88995
976.65        63.85831
977.04        63.86371
977.42        63.04572
977.81        61.27112
978.19        59.05379
978.58        57.40022
978.96        57.10036
979.35        58.24879
979.74        60.68192
980.12        64.04543
980.51        66.56768
980.89        67.68583
981.28        67.60641
981.66        66.94935
982.05        66.54836
982.43        66.59499
982.82        66.79109
983.20        67.14456
983.59        67.69001
983.97        68.47076
984.35        69.55243
984.74        70.53268
985.12         70.7446
985.51        69.73676
985.89        67.52015
986.28         64.7612
986.66        62.36469
987.04        60.89992
987.43        60.29955
987.81        59.85727
988.20        58.46395
988.58        55.59897
988.96        50.60517
989.35        44.19286
989.73        40.91279
990.12        44.34179
990.50        52.66101
990.88           60.18
991.27        62.23697
991.65        59.45877
992.03         53.2445
992.42        46.48362
992.80        44.33356
993.18        48.02594
993.56        54.52778
993.95        61.22904
994.33        65.96434
994.71         68.1888
995.10        69.06999
995.48        68.56631
995.86        66.25078
996.24        62.13987
996.63        55.83162
997.01        48.60883
997.39        44.78145
997.77        46.39798
998.15        52.84921
998.54        60.43262
998.92        63.81392
999.30        61.39424
999.68        54.33345
1000.06        45.06039
1000.45        39.31268
1000.83        39.12022
1001.21        42.44041
1001.59        46.77366
1001.97        49.46638
1002.35        49.91857
1002.73        48.91964
1003.12         46.6242
1003.50        43.70974
1003.88         41.3129
1004.26        39.72791
1004.64        38.69841
1005.02        37.62015
1005.40        36.23977
1005.78        34.33696
1006.16        33.50888
1006.54        38.19043
1006.92        46.95082
1007.30        54.77901
1007.69        59.23752
1008.07        60.22702
1008.45        57.79325
1008.83        50.25394
1009.21         28.6242
1009.59       -34.22357
1009.97       -181.7731
1010.35       -352.5426
1010.73       -283.4801
1011.11       -149.2574
1011.49       -61.12914
1011.86       -2.657731
1012.24        29.29826
1012.62        41.79265
1013.00        42.18232
1013.38        33.20174
1013.76        17.59612
1014.14        7.756217
1014.52        15.24261
1014.90        43.88688
1015.28         84.5486
1015.66        104.1842
1016.04        84.09549
1016.41        33.86584
1016.79       -13.84061
1017.17       -27.38206
1017.55       -15.28785
1017.93        3.505644
1018.31        19.41027
1018.69        27.68385
1019.06        29.12702
1019.44        24.50508
1019.82        14.20751
1020.20        2.915016
1020.58       -3.625861
1020.95        0.552395
1021.33       -4.868958
1021.71        786.9453
1022.09        207.1667
1022.46        193.7417
1022.84        201.0219
1023.22        222.5069
1023.60        282.2157
1023.97        882.1862
1024.35       -135.1013
1024.73       -20.75467
