SpectraSmart Spectrum 2.9.0.0
--------- Device Information -----------
Spectrum Name :  反射率_0
Saving Time :  2024/04/26 02:08:21
Spectro-Module Model Name : SE2030-DUVN
Spectro-Module Serial Number : OS361AC55029948
Wavelength Start : 200
Wavelength End : 1025
Wavelength Unit : Wavelength(nm)
Spectrum Unit : Reflectance(%)
-----------Spectrum Setting ------------
Integration Time : 20ms
Average : 10
Boxcar : 0
Background removal :  enabled
linearity correction :  enabled
SC :  disabled
Intensity correction :  disabled
DWT denoise :  enabled
savitzky-golay :  disabled
FFT :  disabled
Running average :  disabled
Kalman :  disabled
High pass :  disabled
---------------BEGIN--------------------
Wavelength(nm)             Reflectance(%)
200.29               0
200.75        93.22486
201.21        82.54704
201.67          70.981
202.13        64.15239
202.58        62.70402
203.04        65.31322
203.50        70.18676
203.96        74.07671
204.42        75.68052
204.88        75.85486
205.34        75.77209
205.80        76.86413
206.26        80.02356
206.72        86.91705
207.18        99.30135
207.64        106.7594
208.10        93.69644
208.55        75.13832
209.01         65.3164
209.47        64.23215
209.93        68.55479
210.39        77.14686
210.85        86.65557
211.31        89.23229
211.77        82.45046
212.23        69.35693
212.69        56.07491
213.14         52.0288
213.60        58.89122
214.06        73.79378
214.52        91.07986
214.98        102.0137
215.44        104.1186
215.90        100.2067
216.36        93.42592
216.81        88.03436
217.27        85.64633
217.73         84.8779
218.19        84.03261
218.65        80.79976
219.11        74.12374
219.57         63.3152
220.02        49.93846
220.48        42.57284
220.94         45.8885
221.40        57.36219
221.86        68.11092
222.32        69.00271
222.77        61.18199
223.23        49.91174
223.69        40.15395
224.15        36.93817
224.61        39.74154
225.06        45.93806
225.52        52.38073
225.98        55.21835
226.44        53.69928
226.90        49.58628
227.36         44.6515
227.81        41.16167
228.27        40.03854
228.73        40.31571
229.19        41.58087
229.65        43.26765
230.10        44.92459
230.56        46.57333
231.02        48.00882
231.48        48.96446
231.93        49.43666
232.39        49.53951
232.85         49.2963
233.31        48.81632
233.77        48.16478
234.22        47.31452
234.68        46.50024
235.14        46.11606
235.60        46.31751
236.05         47.0993
236.51        48.14276
236.97        48.94017
237.43        49.44714
237.88        49.84914
238.34        50.54514
238.80        52.58382
239.26        56.22313
239.71        61.12428
240.17        66.03477
240.63        69.43205
241.08        70.94648
241.54        70.87154
242.00        70.18635
242.46        70.40234
242.91           72.68
243.37        78.53587
243.83        97.11868
244.28        158.4504
244.74        229.5101
245.20        193.1649
245.66        158.6235
246.11        149.3357
246.57        155.2857
247.03        181.5961
247.48         259.935
247.94        217.6185
248.40        133.2255
248.85        107.8701
249.31        100.6553
249.77         99.7758
250.22        102.3038
250.68        108.0911
251.14        117.0366
251.59        123.6586
252.05        122.1048
252.51        114.8161
252.96         106.222
253.42        101.2336
253.88        99.49933
254.33        99.12336
254.79        100.5873
255.25        103.8803
255.70        107.9051
256.16        112.4541
256.62        115.2676
257.07        114.0249
257.53        109.8201
257.99        103.4972
258.44        97.16487
258.90        94.35992
259.35        93.97039
259.81        94.73402
260.27        94.47216
260.72        91.09981
261.18        85.59129
261.63         78.8616
262.09        72.67974
262.55        68.26591
263.00        65.55923
263.46        64.05289
263.91         62.8644
264.37        61.47843
264.83        59.59999
265.28        57.32932
265.74        55.00864
266.19        52.86383
266.65        51.22823
267.11        49.96735
267.56        48.85769
268.02         47.6315
268.47        46.13793
268.93        44.47571
269.38        42.81412
269.84         41.6702
270.30        41.16209
270.75        41.13773
271.21        41.25925
271.66        41.01816
272.12        40.28235
272.57        39.19171
273.03        38.03251
273.48         37.1478
273.94        36.65535
274.39        36.39032
274.85        36.17559
275.31        35.72924
275.76        34.98354
276.22        34.08103
276.67        33.15366
277.13        32.49494
277.58        32.09736
278.04        31.89854
278.49        31.69905
278.95        31.30155
279.40        30.63634
279.86        29.84673
280.31        29.02188
280.77         28.4198
281.22        28.04479
281.68        27.84301
282.13        27.71849
282.59         27.5831
283.04        27.39781
283.50        27.24348
283.95        27.08695
284.41        26.90229
284.86        26.68846
285.32        26.45739
285.77        26.31738
286.22        26.50407
286.68        27.00412
287.13        27.69332
287.59        28.32653
288.04        28.52282
288.50        28.24943
288.95        27.62289
289.41        26.89429
289.86        26.32542
290.32        26.06095
290.77        26.01106
291.22        26.15791
291.68        26.42764
292.13        26.79925
292.59        27.32043
293.04        27.99261
293.50        28.80752
293.95        29.73917
294.40        30.74254
294.86        31.79824
295.31        32.89945
295.77        34.04553
296.22        35.23706
296.68        36.43805
297.13         37.5572
297.58        38.59592
298.04        39.59851
298.49        40.66177
298.95        41.99212
299.40         43.6123
299.85        45.45089
300.31        47.37033
300.76        49.14471
301.21        50.67972
301.67        52.06696
302.12        53.30358
302.58        54.49834
303.03        55.66575
303.48        56.81297
303.94        58.05301
304.39         59.4953
304.84        61.16236
305.30        63.01236
305.75        64.85178
306.20        66.40899
306.66        67.64476
307.11         68.5869
307.57        69.43015
308.02        70.34618
308.47        71.44014
308.93        72.66318
309.38        73.91515
309.83        75.09265
310.29        76.15603
310.74        77.11586
311.19        78.03073
311.65        78.98385
312.10         79.9807
312.55         80.9994
313.00        81.94351
313.46        82.66822
313.91         83.1255
314.36        83.37342
314.82         83.5688
315.27        83.90282
315.72        84.45976
316.18        85.18939
316.63         85.9815
317.08         86.6107
317.53        87.00923
317.99         87.2225
318.44        87.40845
318.89        87.82932
319.35        88.51426
319.80        89.40877
320.25        90.24707
320.70        90.59437
321.16        90.37037
321.61        89.72704
322.06        89.00006
322.51        88.71519
322.97        88.97785
323.42        89.67091
323.87        90.52238
324.32        91.06057
324.78        91.13139
325.23        90.91268
325.68        90.57938
326.13        90.44527
326.59        90.58503
327.04        90.92464
327.49        91.35744
327.94        91.74547
328.39        92.03685
328.85        92.26728
329.30        92.51537
329.75        92.74219
330.20        92.96992
330.66        93.18239
331.11         93.4837
331.56        93.97227
332.01        94.67749
332.46        95.55132
332.92         96.4875
333.37        97.47684
333.82         98.3843
334.27        99.21189
334.72        99.85719
335.17        100.1737
335.63        100.1574
336.08        99.90797
336.53        99.61507
336.98        99.62865
337.43        100.0397
337.88        100.7493
338.34        101.6164
338.79        102.4905
339.24        103.2514
339.69        103.9678
340.14        104.5421
340.59        104.8112
341.05         104.776
341.50        104.4607
341.95        104.1277
342.40        104.1956
342.85        104.7441
343.30         105.671
343.75        106.6802
344.20        107.2424
344.66        107.2274
345.11        106.7754
345.56        106.1803
346.01        105.8884
346.46        106.0101
346.91        106.4035
347.36        106.8612
347.81        107.0659
348.26        106.9466
348.72        106.6377
349.17        106.2814
349.62        106.1519
350.07        106.3108
350.52        106.6414
350.97         107.011
351.42        107.2299
351.87        107.2415
352.32        107.1156
352.77        106.8818
353.22        106.5847
353.67        106.2556
354.13        105.8869
354.58        105.5065
355.03        105.2241
355.48         105.047
355.93        104.9477
356.38        104.8266
356.83        104.5174
357.28        103.9847
357.73         103.283
358.18        102.5021
358.63        101.7865
359.08        101.1832
359.53        100.6551
359.98        100.1579
360.43        99.62115
360.88        99.01521
361.33         98.3526
361.78        97.66281
362.23        96.99211
362.68        96.35696
363.13        95.75647
363.58        95.13034
364.03        94.38161
364.48        93.50433
364.93        92.53524
365.38        91.60108
365.83        90.90494
366.28        90.47762
366.73        90.23903
367.18        90.04549
367.63        89.66224
368.08        89.03709
368.53        88.27165
368.98         87.4405
369.43        86.64915
369.88        85.94297
370.33         85.2782
370.78        84.72092
371.23        84.38896
371.68         84.2828
372.13        84.36478
372.58        84.47137
373.03        84.31837
373.48         83.8443
373.93        83.14557
374.38        82.36946
374.83        81.74616
375.28        81.33406
375.72        81.03742
376.17        80.83464
376.62        80.66415
377.07        80.48132
377.52        80.30273
377.97        80.04653
378.42        79.57906
378.87        78.90493
379.32        78.09103
379.77        77.26188
380.22        76.59733
380.67        76.12347
381.11        75.77235
381.56        75.49427
382.01        75.20755
382.46        74.89232
382.91        74.61427
383.36        74.30777
383.81        73.86834
384.26        73.30408
384.71        72.62595
385.15         72.0332
385.60        71.89767
386.05        72.20831
386.50        72.83911
386.95        73.43245
387.40        73.38383
387.85        72.61495
388.29        71.36994
388.74        70.13014
389.19        69.27485
389.64        68.87706
390.09        68.77067
390.54        68.88139
390.98        69.08129
391.43        69.27692
391.88        69.48294
392.33        69.58225
392.78        69.30611
393.23        68.66402
393.67        67.97383
394.12        67.44213
394.57        66.62933
395.02        65.84419
395.47        66.22453
395.91        67.58236
396.36        68.34618
396.81        68.31008
397.26        68.24908
397.71        68.21616
398.15        67.86369
398.60        67.31702
399.05        66.82166
399.50        66.38076
399.95        65.53202
400.39        64.74758
400.84        64.43152
401.29        64.63319
401.74        64.88565
402.18        65.02784
402.63        64.86601
403.08        64.54381
403.53        64.56584
403.97        64.95435
404.42        65.35865
404.87        65.59078
405.32        65.49487
405.76        65.02615
406.21        64.33018
406.66        63.60716
407.11        63.14481
407.55        63.06705
408.00        63.24436
408.45        63.56486
408.90        64.03654
409.34         64.3618
409.79        63.82909
410.24        62.75349
410.68        62.28654
411.13        62.53223
411.58        62.86504
412.03        63.17317
412.47        63.53269
412.92        63.82632
413.37        64.06243
413.81        64.17107
414.26        64.08547
414.71        63.79507
415.15        63.31585
415.60        62.79366
416.05        62.48466
416.49        62.45535
416.94        62.66459
417.39        62.92551
417.83        62.89244
418.28        62.51415
418.73        61.92177
419.17        61.36538
419.62        61.23914
420.07        61.57624
420.51        62.22349
420.96          62.955
421.41        63.30146
421.85        63.11401
422.30        62.88921
422.74        62.64047
423.19        61.90205
423.64        60.97959
424.08        61.20393
424.53        62.38939
424.98        62.95417
425.42        62.72792
425.87        62.76694
426.31        63.09098
426.76        62.88775
427.21        62.38475
427.65        62.61191
428.10        63.46256
428.54        64.14027
428.99        64.57632
429.44         64.7283
429.88        64.65991
430.33        65.34498
430.77        66.20377
431.22        65.21549
431.66         62.8673
432.11        61.59026
432.56        61.67656
433.00        62.26655
433.45        63.30853
433.89        65.10925
434.34        66.26064
434.78        67.60888
435.23        64.10508
435.67        61.69743
436.12        64.06432
436.57        65.08312
437.01        65.74336
437.46        66.05874
437.90        66.21101
438.35        65.44574
438.79        66.01302
439.24        65.90987
439.68         65.7853
440.13        65.36443
440.57        64.99685
441.02        65.72241
441.46        67.15984
441.91         68.0485
442.35        68.07581
442.80        67.10465
443.24        65.66557
443.69        66.23032
444.13        68.37495
444.58        68.49406
445.02        66.77098
445.47        66.45102
445.91        67.48122
446.36        67.78548
446.80        67.31033
447.24        67.10363
447.69        67.25219
448.13        67.47105
448.58        67.76743
449.02        68.16233
449.47        68.55426
449.91        68.79614
450.36        68.85256
450.80        68.74553
451.25        68.54912
451.69        68.35339
452.13        68.21633
452.58        68.12508
453.02        68.07864
453.47        68.11341
453.91        68.19675
454.36        68.31029
454.80        68.42733
455.24         68.3713
455.69        68.12487
456.13         68.0034
456.58        67.99743
457.02        67.34035
457.46        66.39103
457.91        66.64214
458.35        67.69353
458.79        68.13943
459.24        67.90408
459.68        67.66267
460.13         67.4128
460.57        67.30394
461.01        67.52023
461.46        66.14516
461.90        65.88069
462.34         66.6273
462.79        65.92596
463.23        66.11832
463.68        66.43093
464.12        66.78594
464.56        67.08982
465.01         67.0772
465.45        66.72735
465.89        66.60883
466.34        66.59023
466.78        65.66122
467.22        64.34148
467.67        63.79889
468.11        65.06113
468.55         65.7824
468.99         65.9184
469.44        65.60903
469.88        65.03562
470.32        64.89685
470.77        65.16442
471.21        65.10335
471.65        64.69761
472.10        64.54024
472.54        64.63983
472.98        64.70762
473.42        64.71855
473.87          64.865
474.31        65.04641
474.75         64.9202
475.20        64.57813
475.64        64.48849
476.08         64.6551
476.52        64.62003
476.97        64.35725
477.41        64.42241
477.85        64.41752
478.29        64.35802
478.74        64.30254
479.18        64.54175
479.62        63.83152
480.06        64.46561
480.50        64.68509
480.95        64.86451
481.39         64.6376
481.83        64.14754
482.27        64.05125
482.72        64.18299
483.16        63.04633
483.60        63.39933
484.04          64.758
484.48        64.87171
484.93         64.2375
485.37        65.96435
485.81        66.56012
486.25        65.25591
486.69        88.49468
487.14        71.69585
487.58        44.67321
488.02        54.96698
488.46        62.72494
488.90        61.94266
489.34        63.16343
489.79        62.42567
490.23        64.31339
490.67         65.0153
491.11        63.89017
491.55            63.9
491.99         64.6004
492.43        64.53519
492.88        63.76343
493.32        63.61531
493.76          63.682
494.20        63.84611
494.64        63.89471
495.08        64.07822
495.52        64.38483
495.96        64.30971
496.41        63.89334
496.85        64.35516
497.29        65.38434
497.73        64.35078
498.17        62.21114
498.61        62.39864
499.05        64.89381
499.49        65.39042
499.93        65.25697
500.37        64.93238
500.82        64.37299
501.26         64.3615
501.70        64.69963
502.14        64.99289
502.58        65.05026
503.02        64.95879
503.46        64.69109
503.90        64.21874
504.34        63.71581
504.78        63.36102
505.22        63.27685
505.66        63.74258
506.10        64.55319
506.54        64.87806
506.98        64.56108
507.42        64.49623
507.86        64.04559
508.30        63.64701
508.74        63.84963
509.18        64.02217
509.62         64.2632
510.06        64.38805
510.50        64.36257
510.94        64.23656
511.38         64.0817
511.82        64.02003
512.26        64.08017
512.70        64.21401
513.14        64.37367
513.58        64.48972
514.02        64.53143
514.46        64.51652
514.90        64.46629
515.34        64.39435
515.78        64.29945
516.22        64.25246
516.66        64.24802
517.10        64.07417
517.54        63.73133
517.98        63.97395
518.42         63.7834
518.86        63.93332
519.30        64.10688
519.74        64.37267
520.18        64.65436
520.62         64.8186
521.06        64.84627
521.50         64.7674
521.93        64.63304
522.37        64.53003
522.81        64.49229
523.25        64.49625
523.69        64.53501
524.13        64.59765
524.57        64.67455
525.01        64.76996
525.45        64.86551
525.89        64.92856
526.32        64.94221
526.76        64.90942
527.20        64.83875
527.64         64.7642
528.08        64.71228
528.52        64.62656
528.96        64.47909
529.40        64.40712
529.83        64.44613
530.27        63.90397
530.71         64.0789
531.15        64.00962
531.59        64.08106
532.03        64.23311
532.46        64.45134
532.90        64.68074
533.34        64.87975
533.78        65.05883
534.22         65.1767
534.66         65.1828
535.09        65.06411
535.53        64.85583
535.97        64.61055
536.41        64.43336
536.85        64.35678
537.28        64.36548
537.72        64.40439
538.16        64.39153
538.60        64.31061
539.04        64.14123
539.47        63.95035
539.91        64.00742
540.35        64.25829
540.79        64.39938
541.22          64.393
541.66        64.44305
542.10        64.53044
542.54        64.50471
542.97        64.41853
543.41        64.45885
543.85        64.63142
544.29        64.89667
544.72        65.11555
545.16        65.10215
545.60        64.82217
546.04        64.33911
546.47        63.85233
546.91        63.70432
547.35        63.94425
547.79        64.45207
548.22        64.97707
548.66        65.16413
549.10        64.91779
549.53        64.30556
549.97        63.59949
550.41        63.21384
550.84        63.24505
551.28        63.53862
551.72         63.9514
552.15        64.24972
552.59        64.35138
553.03        64.36707
553.46        64.28331
553.90        64.23677
554.34        64.23615
554.77        64.24454
555.21        64.09583
555.65        64.17683
556.08        64.44465
556.52        63.98657
556.96        64.28833
557.39         64.1198
557.83        64.00031
558.27        64.03543
558.70        64.22001
559.14        64.39339
559.57        64.51481
560.01        64.62798
560.45         64.7056
560.88        64.82993
561.32        64.92821
561.75        64.61749
562.19         64.0733
562.63        63.69529
563.06        63.56057
563.50        63.71257
563.93         64.0582
564.37        63.96839
564.80        64.10911
565.24        63.99299
565.68        63.88229
566.11        63.82828
566.55        63.89375
566.98        63.98443
567.42        64.07661
567.85        64.24966
568.29        64.50343
568.72        64.47625
569.16        64.35816
569.60        64.80937
570.03        65.09245
570.47        65.12283
570.90         65.1123
571.34         63.2633
571.77        64.23365
572.21        64.50385
572.64         64.2014
573.08        62.74528
573.51        60.22151
573.95        62.59742
574.38        66.72983
574.82        65.16803
575.25        64.11967
575.69        62.16177
576.12        61.06086
576.56        60.48657
576.99        62.03513
577.42        64.48161
577.86        64.69892
578.29        64.12778
578.73        67.49195
579.16        62.25927
579.60        56.91333
580.03        59.47522
580.47        63.25279
580.90        64.69269
581.33        63.38171
581.77        62.59776
582.20        69.15304
582.64        68.79811
583.07        58.76932
583.51        57.64217
583.94        56.63391
584.37        59.16753
584.81        62.14677
585.24        65.37834
585.68        66.77958
586.11        65.78048
586.54        61.08479
586.98        59.25795
587.41        59.65554
587.85        63.21864
588.28        65.15999
588.71        61.88685
589.15        60.00794
589.58        61.46129
590.01        61.64149
590.45        62.77773
590.88        63.20927
591.31        62.70249
591.75        62.55581
592.18        62.52566
592.61        63.47408
593.05        64.04896
593.48        66.70635
593.91        67.38838
594.35        61.94921
594.78        60.72313
595.21        60.34711
595.65        63.11376
596.08        65.72518
596.51         62.6365
596.94        61.20547
597.38        61.65856
597.81        63.93705
598.24        65.70747
598.68        64.21256
599.11        63.13972
599.54        65.78469
599.97        67.08442
600.41        62.51923
600.84        62.63631
601.27        63.94138
601.70        62.78519
602.14        62.75704
602.57        61.89844
603.00        62.60145
603.43        64.08819
603.87        65.48219
604.30        65.02258
604.73        63.09644
605.16        61.74345
605.60        62.39351
606.03        63.38248
606.46        64.39718
606.89        64.35097
607.32        61.95027
607.76         62.2145
608.19         64.0349
608.62        63.40809
609.05        62.27097
609.48        62.70626
609.92        62.54423
610.35        62.34037
610.78        64.71716
611.21        64.87374
611.64        62.05738
612.07        62.56033
612.50        63.01919
612.94        63.36473
613.37        62.61689
613.80        63.17056
614.23        63.57694
614.66        63.33714
615.09        63.55729
615.52         63.4903
615.96        63.42646
616.39        63.54257
616.82        62.80053
617.25        62.33503
617.68        63.31179
618.11        63.75672
618.54        63.88354
618.97        63.53471
619.40        63.03875
619.84        62.61995
620.27        63.45715
620.70        63.80434
621.13        63.89355
621.56        63.39132
621.99        62.61073
622.42        63.37061
622.85        65.12389
623.28        65.05598
623.71        64.52404
624.14        64.06227
624.57        64.02878
625.00        63.72562
625.43        63.82064
625.86        63.32359
626.29        63.62587
626.72        63.82965
627.15         63.6003
627.58        63.66635
628.01        63.81896
628.44        63.91139
628.87        63.93965
629.30        64.09522
629.73        64.31388
630.16        64.32977
630.59        64.11722
631.02        63.83498
631.45        63.57009
631.88        63.32571
632.31        63.11789
632.74        63.30602
633.17        63.21184
633.60        63.32653
634.03        63.43237
634.46        63.55723
634.89        63.66865
635.32        63.72745
635.75        63.73068
636.18        63.67057
636.61        63.58884
637.04        63.56096
637.47        63.59962
637.89        63.69115
638.32        63.76801
638.75         63.7553
639.18        63.63099
639.61        63.45257
640.04        63.26618
640.47        63.07751
640.90        62.89991
641.33        62.96815
641.76        62.83051
642.18        62.91204
642.61        63.07365
643.04        63.16352
643.47        63.10889
643.90        63.62296
644.33        63.38351
644.76        63.45495
645.18        63.45706
645.61        63.43044
646.04        63.37033
646.47        63.26378
646.90        63.17714
647.33        63.16851
647.75        63.26416
648.18        63.48933
648.61        63.68409
649.04        63.58646
649.47        63.17386
649.89        62.44944
650.32        61.76169
650.75        61.70559
651.18        62.25811
651.61        62.96851
652.03        63.47329
652.46        63.41583
652.89        63.15602
653.32        62.65345
653.74        62.15354
654.17        63.67126
654.60        64.04556
655.03        61.55927
655.46        62.21092
655.88        65.85931
656.31        70.05948
656.74        158.6301
657.16        103.0472
657.59        36.46862
658.02        27.34428
658.45        47.22266
658.87        60.34822
659.30        63.54092
659.73        62.54976
660.15        60.75975
660.58        63.09234
661.01        64.54105
661.44        62.41202
661.86        61.74067
662.29        61.91274
662.72        62.51225
663.14        63.37217
663.57        63.35632
664.00        62.63736
664.42         62.5163
664.85        63.03723
665.27        63.28127
665.70        63.12424
666.13        62.92816
666.55        62.69941
666.98         62.3273
667.41        61.93805
667.83          61.794
668.26        61.93705
668.69        62.24712
669.11        62.55709
669.54        62.86055
669.96        62.50734
670.39         62.1979
670.82        61.87523
671.24        61.45198
671.67        61.16885
672.09        61.60781
672.52        62.45828
672.94        63.13929
673.37        62.48962
673.80        62.20174
674.22        62.06774
674.65        61.92925
675.07        61.80436
675.50        61.63345
675.92        61.47631
676.35         61.5052
676.77        61.72848
677.20        62.02203
677.62        62.30444
678.05        62.44936
678.47        62.41145
678.90        62.24464
679.32         62.0333
679.75        61.78972
680.17        61.79239
680.60        61.83561
681.02         61.9238
681.45        61.85015
681.87        61.62632
682.30        61.47173
682.72        61.43684
683.15        61.39543
683.57        61.42142
684.00        61.67812
684.42        62.22607
684.85        62.43761
685.27        62.30649
685.70        62.05194
686.12        61.77375
686.54         61.6074
686.97        61.59341
687.39        61.69326
687.82        61.82346
688.24        61.93363
688.66        61.98368
689.09        61.84552
689.51        61.85043
689.94        61.84599
690.36        61.93761
690.78         62.0882
691.21        62.24144
691.63         62.3105
692.06        62.27732
692.48        62.17997
692.90        62.08593
693.33        62.08593
693.75        62.19925
694.17        62.40015
694.60        62.62374
695.02        62.73614
695.44        62.67051
695.87        62.65094
696.29        62.72021
696.71         62.3677
697.14        61.83043
697.56        62.36786
697.98        63.65344
698.41        63.57932
698.83         62.7688
699.25        62.15441
699.68        62.05864
700.10        61.92477
700.52        61.80122
700.94        61.99936
701.37        62.42109
701.79        62.81535
702.21        63.07952
702.64        63.28885
703.06        63.38478
703.48        63.26757
703.90        62.95341
704.33        62.47364
704.75        61.96367
705.17        61.72592
705.59        61.83611
706.01        62.11676
706.44        62.42158
706.86         63.0441
707.28         63.0729
707.70        63.20595
708.12        63.22144
708.55        63.17435
708.97        63.06661
709.39        62.88728
709.81        62.70029
710.23           62.61
710.66        62.64509
711.08        62.81416
711.50        63.00511
711.92         63.0455
712.34        62.89966
712.76        62.60446
713.19        62.30343
713.61        62.25602
714.03         62.5005
714.45        62.95755
714.87        63.41953
715.29        63.55781
715.71        63.30746
716.13        62.77898
716.56        62.18774
716.98        61.90825
717.40        62.02942
717.82        62.43407
718.24        62.94607
718.66         63.2655
719.08        63.29942
719.50        63.14388
719.92        62.88767
720.34        62.68751
720.76         62.5999
721.19        62.46746
721.61        62.48454
722.03         62.5346
722.45          62.661
722.87        62.86096
723.29        63.07945
723.71        63.21024
724.13        63.22393
724.55        63.14317
724.97        63.01749
725.39        62.93721
725.81        62.92959
726.23         62.9705
726.65        63.03329
727.07        63.07249
727.49        63.08028
727.91        63.08352
728.33        63.09645
728.75         63.1395
729.17        63.21317
729.59        63.29106
730.01        63.38488
730.43        63.51016
730.85        63.66443
731.27        63.86786
731.69        64.03665
732.10        64.01534
732.52        63.78471
732.94        63.43148
733.36        63.12772
733.78         63.0308
734.20        63.17973
734.62        63.78893
735.04         64.6169
735.46        64.62244
735.88        64.00164
736.30        64.23106
736.72        65.25733
737.13        65.62832
737.55        65.14972
737.97        64.95949
738.39        65.12511
738.81        64.61777
739.23        63.76276
739.65         64.4295
740.06         66.1981
740.48        66.34365
740.90        64.96323
741.32        64.35654
741.74        64.74262
742.16        64.96138
742.57         65.0489
742.99        65.69388
743.41        66.67481
743.83        67.18501
744.25        67.12006
744.67        66.79571
745.08        66.43659
745.50        66.30186
745.92        66.49859
746.34        66.96172
746.75        67.51945
747.17        67.84865
747.59        67.89125
748.01        67.75491
748.42        67.60055
748.84        67.68974
749.26        68.08962
749.68        68.61514
750.09        69.14777
750.51        69.66645
750.93        70.03565
751.35        69.88911
751.76        69.35867
752.18        69.14002
752.60        69.22966
753.01        69.04343
753.43        68.66444
753.85        68.67651
754.27        69.13061
754.68        69.79306
755.10        70.47509
755.52        71.00368
755.93        71.27814
756.35        71.29189
756.77        71.19634
757.18        71.13786
757.60        71.15825
758.02        71.54625
758.43         71.9914
758.85        71.51966
759.26        69.86988
759.68        69.92858
760.10        71.32081
760.51        71.90591
760.93        71.51543
761.34        69.90495
761.76        69.91566
762.18        69.50232
762.59        69.50292
763.01        69.68169
763.42        70.04173
763.84        70.45103
764.26        70.84347
764.67         71.1097
765.09        71.17779
765.50        71.14897
765.92        70.94718
766.33         70.0262
766.75        68.79513
767.16        68.37737
767.58        68.91936
768.00        70.18326
768.41        71.79692
768.83         72.6794
769.24        72.50319
769.66        71.79873
770.07        70.95582
770.49        69.92811
770.90        69.00642
771.32        69.65572
771.73        71.35793
772.15        70.86966
772.56          68.628
772.97          68.311
773.39        69.80671
773.80        70.34375
774.22        69.72015
774.63        69.62984
775.05        70.04901
775.46        70.22491
775.88        70.08114
776.29        69.83604
776.70        69.57611
777.12        69.46769
777.53        69.55801
777.95        69.74059
778.36        69.89571
778.77        69.81654
779.19        69.50542
779.60        69.04752
780.02        68.59731
780.43        68.49432
780.84          68.852
781.26        69.09643
781.67        69.26356
782.09        70.41815
782.50        72.00521
782.91        71.42606
783.33        69.25748
783.74        68.59691
784.15        69.58511
784.57        70.19051
784.98        70.16159
785.39        70.14383
785.81        70.08765
786.22        69.68301
786.63         69.1982
787.04         69.1642
787.46        69.63173
787.87        70.43597
788.28        71.29731
788.70        71.72777
789.11        71.60649
789.52        71.11444
789.93         70.4878
790.35        70.02679
790.76        69.83984
791.17        69.92447
791.58        70.17048
792.00         70.2731
792.41        70.15076
792.82         70.0282
793.23        70.04868
793.65        69.82542
794.06        69.61109
794.47        70.75032
794.88        72.50482
795.29        72.18232
795.71        69.97459
796.12        67.93037
796.53        66.69833
796.94        66.28823
797.35        66.81387
797.76        68.07594
798.18        69.47791
798.59        70.36583
799.00        70.39626
799.41         69.5439
799.82        68.27928
800.23        67.55563
800.64         67.5891
801.06        68.01022
801.47        68.67513
801.88        69.25333
802.29        69.59554
802.70        69.83195
803.11         69.9522
803.52         69.9086
803.93        69.73016
804.34        69.39348
804.75        69.02511
805.17        68.93446
805.58        69.21931
805.99        69.53565
806.40        69.74373
806.81         70.2709
807.22        70.71992
807.63        69.65263
808.04        67.61751
808.45        66.76209
808.86        67.28556
809.27         68.1293
809.68         68.8964
810.09        69.30939
810.50        69.17094
810.91        68.59475
811.32        67.84566
811.73        67.34492
812.14        67.21666
812.55         67.3074
812.96        67.56119
813.37        67.86691
813.78         68.1536
814.19        68.50648
814.60        68.76072
815.01        68.64839
815.42         68.1496
815.83        67.29412
816.24        66.44781
816.65        66.26476
817.05         66.9244
817.46        68.20732
817.87        69.59042
818.28        70.12994
818.69        69.58358
819.10        68.20369
819.51        66.60699
819.92        65.83965
820.33        66.17928
820.74        67.30376
821.14        68.67328
821.55        69.31177
821.96        68.99068
822.37          68.047
822.78        66.89993
823.19        66.15915
823.60        66.00275
824.00        66.26329
824.41         66.7094
824.82        67.07369
825.23        67.21497
825.64        67.24252
826.04        67.19952
826.45        67.12203
826.86        67.02821
827.27         66.8678
827.68        66.65591
828.08        66.46758
828.49        66.27885
828.90        66.14169
829.31         66.0314
829.72        65.88676
830.12        65.73233
830.53        65.57314
830.94         65.5237
831.35        65.72665
831.75         66.2344
832.16        66.93631
832.57        67.71423
832.97         68.2962
833.38        68.52034
833.79        68.44112
834.20         68.1936
834.60        67.99332
835.01        67.92459
835.42        67.92213
835.82        67.87675
836.23        67.53636
836.64         66.9085
837.04        66.12624
837.45        65.39429
837.86        65.02465
838.26        65.09455
838.67        65.47183
839.08        66.02876
839.48        66.51956
839.89        66.80766
840.29        66.96415
840.70        66.95631
841.11        66.73396
841.51        66.32948
841.92        65.73034
842.33        65.12675
842.73        64.85255
843.14        64.94595
843.54        65.35677
843.95        65.82775
844.35        65.96901
844.76        65.67671
845.17        65.10828
845.57         64.4669
845.98         64.0642
846.38        63.98488
846.79        64.09007
847.19         64.3463
847.60        64.62405
848.00         64.8819
848.41        65.13676
848.81        65.31678
849.22        65.22878
849.62        64.90648
850.03        64.39955
850.43        63.92675
850.84        63.84844
851.24        64.29675
851.65        65.01644
852.05        65.94019
852.46         66.7776
852.86        67.40792
853.27        67.93564
853.67        68.02337
854.07        67.26744
854.48        65.76431
854.88        63.67912
855.29           61.73
855.69        60.96498
856.10        61.58073
856.50        63.45363
856.90        65.95959
857.31        67.59221
857.71        67.83812
858.12        67.03518
858.52         65.7938
858.92        64.92461
859.33        64.63363
859.73         64.6799
860.13        65.00086
860.54        65.48141
860.94        66.08471
861.34        66.83934
861.75        67.57188
862.15        68.07136
862.55        68.24355
862.96        68.12202
863.36        67.81504
863.76        67.52116
864.17        67.32446
864.57        67.22124
864.97        67.25045
865.38        67.45701
865.78        67.86887
866.18        68.40289
866.58         68.9382
866.99        69.25351
867.39        69.32349
867.79        69.21825
868.19        68.90099
868.60         68.3241
869.00          67.545
869.40        66.62754
869.80        66.01122
870.21        66.34325
870.61        67.79816
871.01         70.1673
871.41        72.78323
871.81        74.48068
872.22        74.95229
872.62        74.49664
873.02        73.66103
873.42        73.63168
873.82        74.38784
874.22        74.96761
874.63        75.33329
875.03        75.52271
875.43        75.39132
875.83         76.3246
876.23        75.02087
876.63         73.8166
877.03        72.12432
877.44        69.81246
877.84        109.8403
878.24        73.40237
878.64        75.76579
879.04        80.23589
879.44        75.67078
879.84        73.71391
880.24        80.40751
880.64        82.50209
881.04         81.5227
881.44        80.34388
881.84        79.26345
882.24        78.06126
882.65        77.27359
883.05        77.04535
883.45        77.38361
883.85        78.70091
884.25        80.51633
884.65        81.50589
885.05        81.31223
885.45        80.32421
885.85         79.1526
886.25        78.67033
886.65        79.06406
887.05        80.04595
887.45        81.24664
887.85        82.01562
888.25        82.11846
888.65        81.77991
889.04         81.2465
889.44        80.93025
889.84        80.93161
890.24        81.08712
890.64        81.28331
891.04        81.37804
891.44        81.31393
891.84         81.1589
892.24        80.92159
892.64        80.58949
893.04        80.22704
893.44        79.90823
893.83        79.67477
894.23        79.58337
894.63         79.6322
895.03        79.73753
895.43        80.03126
895.83        80.72857
896.23        81.79743
896.63        83.16017
897.02        84.25767
897.42         84.2067
897.82        82.90717
898.22        80.70659
898.62        78.44714
899.01        77.36268
899.41        77.71301
899.81        79.06997
900.21        80.82281
900.61        81.97082
901.00        82.20174
901.40        81.83747
901.80        81.17543
902.20        80.67048
902.59        80.48052
902.99        80.43282
903.39        80.46086
903.79        80.48351
904.18        80.47055
904.58        80.54311
904.98        80.70377
905.38         80.9306
905.77        81.19746
906.17        81.44811
906.57         81.7064
906.96        82.07536
907.36        82.47449
907.76        82.87451
908.15        83.10896
908.55        82.80263
908.95         81.9567
909.34        80.67947
909.74         79.3329
910.14        78.29441
910.53        77.71027
910.93        77.54697
911.33        77.73884
911.72        78.17603
912.12        78.67823
912.52        79.18707
912.91        79.68816
913.31        80.14261
913.70        80.59934
914.10        81.08517
914.49        81.33575
914.89        80.82887
915.29        79.52592
915.68        77.66998
916.08        76.14996
916.47        75.79313
916.87        76.61467
917.26        78.37215
917.66          80.231
918.05        80.82432
918.45        79.82771
918.84        77.73362
919.24        75.48458
919.64         74.4662
920.03        75.03745
920.42        76.76872
920.82        79.01258
921.21        80.72144
921.61        81.32727
922.00        81.18619
922.40        80.49053
922.79         79.5705
923.19        78.68544
923.58        77.46576
923.98        75.88725
924.37        75.05045
924.77        75.50944
925.16        72.16673
925.55        74.35303
925.95        74.96606
926.34        76.71693
926.74        78.99827
927.13        81.22897
927.52        82.09125
927.92        81.38486
928.31        79.59745
928.70        77.28025
929.10        75.41316
929.49        74.27704
929.89        73.60736
930.28        73.58207
930.67        74.49477
931.07        76.14747
931.46        78.54305
931.85        80.68959
932.24        81.07944
932.64        79.47094
933.03        76.06612
933.42        71.94094
933.82        69.45865
934.21        69.30214
934.60        70.80711
934.99        72.63227
935.39         73.5048
935.78        73.23709
936.17        71.33225
936.56        67.68681
936.96         69.6627
937.35         68.2295
937.74        70.30016
938.13        72.17636
938.53        73.70504
938.92        74.97279
939.31        76.29636
939.70        77.47871
940.09        77.64993
940.49        76.65935
940.88        74.90041
941.27        73.15979
941.66        72.38431
942.05        72.66441
942.44        73.67373
942.84        75.08672
943.23        76.35262
943.62        77.12994
944.01        77.56989
944.40        77.53549
944.79        76.80254
945.18        75.34019
945.57        73.07156
945.97         70.4876
946.36        68.83896
946.75        68.73357
947.14        69.75658
947.53        71.12134
947.92        71.99284
948.31        72.26785
948.70        72.18336
949.09        71.89892
949.48        71.75198
949.87         71.8737
950.26        72.07983
950.65        72.26378
951.04        72.31148
951.43        72.19638
951.82        72.01301
952.21        71.75276
952.60        71.40104
952.99        70.95683
953.38        70.35439
953.77        69.76764
954.16        69.44286
954.55        69.41268
954.94        69.71835
955.33        69.92189
955.72        69.26724
956.11        67.66145
956.50        65.30421
956.89        63.17469
957.28         63.0548
957.66        65.42685
958.05         69.4679
958.44        73.81388
958.83         76.4448
959.22         76.8469
959.61        75.54023
960.00        73.31608
960.39        71.50658
960.78        70.57577
961.16        70.18236
961.55        69.94795
961.94         69.2422
962.33        67.96262
962.72        66.50159
963.11        65.27345
963.49         64.7179
963.88        64.88201
964.27        65.62836
964.66        66.62777
965.04        67.22289
965.43        67.07912
965.82        66.42725
966.21        65.69766
966.60         65.4636
966.98         65.8524
967.37        66.66297
967.76        67.59119
968.15        68.04715
968.53        67.83614
968.92        67.08566
969.31        66.20975
969.69        65.73708
970.08        65.76079
970.47        66.17484
970.86        66.53278
971.24         66.0432
971.63        64.54729
972.02         62.2765
972.40        60.01038
972.79        59.16774
973.17        60.25197
973.56        62.83601
973.95        66.04633
974.33        68.14877
974.72        68.40849
975.11        67.28748
975.49        65.61024
975.88        64.52113
976.26         64.2278
976.65        64.45869
977.04        64.59045
977.42         63.3599
977.81        60.59764
978.19        57.01247
978.58        54.21986
978.96        53.70873
979.35        55.66798
979.74        59.89103
980.12        65.39773
980.51        68.87043
980.89         69.2159
981.28        67.19934
981.66        64.58685
982.05        63.66887
982.43        64.75104
982.82        66.93275
983.20        69.47034
983.59        71.33265
983.97        72.27997
984.35        72.67448
984.74        72.40802
985.12        71.58952
985.51        70.21242
985.89        68.07333
986.28         65.7006
986.66          63.744
987.04        62.61184
987.43        62.33688
987.81        62.16424
988.20         60.9033
988.58         58.0442
988.96        52.92155
989.35        46.16991
989.73        42.41756
990.12        45.41819
990.50        53.42392
990.88        60.90314
991.27        63.28824
991.65        61.14717
992.03        55.86301
992.42        49.99962
992.80        48.05302
993.18        51.16992
993.56        56.68573
993.95        62.43259
994.33        66.72727
994.71        69.07256
995.10         70.4477
995.48        70.66863
995.86        69.10394
996.24         65.7152
996.63        60.20829
997.01        53.83678
997.39        50.72043
997.77        52.71866
998.15        59.04015
998.54        66.20873
998.92        69.31609
999.30        66.90224
999.68        60.24409
1000.06        51.25729
1000.45        44.68336
1000.83        42.54448
1001.21        43.27614
1001.59        45.68222
1001.97        48.61256
1002.35        51.70346
1002.73         55.8354
1003.12          59.967
1003.50        60.34617
1003.88        55.66003
1004.26        47.87906
1004.64        40.41128
1005.02        35.92058
1005.40        34.37864
1005.78         35.1572
1006.16        39.34106
1006.54        46.77073
1006.92        53.39035
1007.30        57.36056
1007.69        58.76584
1008.07        58.64213
1008.45        56.97104
1008.83        52.20478
1009.21        38.24022
1009.59       -4.213972
1009.97       -108.4788
1010.35       -233.3883
1010.73       -188.7545
1011.11       -94.78746
1011.49       -32.21563
1011.86        9.580112
1012.24        32.87411
1012.62        43.47688
1013.00        46.71262
1013.38        45.06681
1013.76        40.18295
1014.14        37.57212
1014.52        41.83118
1014.90         53.4227
1015.28        68.05921
1015.66        72.54951
1016.04        59.91883
1016.41        35.53831
1016.79        13.85015
1017.17        6.692685
1017.55          10.643
1017.93        17.78676
1018.31        24.46832
1018.69        29.38056
1019.06        32.91977
1019.44        35.38878
1019.82        37.32491
1020.20        38.35971
1020.58        36.62481
1020.95        29.19118
1021.33       -12.96956
1021.71        961.6804
1022.09        200.9099
1022.46          168.97
1022.84        164.9167
1023.22        174.5266
1023.60        209.6519
1023.97        572.1224
1024.35       -44.88295
1024.73        21.85185
