SpectraSmart Spectrum 2.9.0.0
--------- Device Information -----------
Spectrum Name :  反射率_0
Saving Time :  2024/04/26 01:59:27
Spectro-Module Model Name : SE2030-DUVN
Spectro-Module Serial Number : OS361AC55029948
Wavelength Start : 200
Wavelength End : 1025
Wavelength Unit : Wavelength(nm)
Spectrum Unit : Reflectance(%)
-----------Spectrum Setting ------------
Integration Time : 20ms
Average : 10
Boxcar : 0
Background removal :  enabled
linearity correction :  enabled
SC :  disabled
Intensity correction :  disabled
DWT denoise :  enabled
savitzky-golay :  disabled
FFT :  disabled
Running average :  disabled
Kalman :  disabled
High pass :  disabled
---------------BEGIN--------------------
Wavelength(nm)             Reflectance(%)
200.29               0
200.75        93.75806
201.21         81.0641
201.67        67.14721
202.13        59.64512
202.58        59.35509
203.04        64.21906
203.50        71.43028
203.96        75.91993
204.42        76.20172
204.88        74.30562
205.34        72.00214
205.80        70.92425
206.26        71.64781
206.72        74.55914
207.18        81.01929
207.64         87.9751
208.10         86.1294
208.55        78.98199
209.01        74.52002
209.47        74.22146
209.93        76.59389
210.39        81.00661
210.85        84.70361
211.31        81.85503
211.77        71.43513
212.23         56.2193
212.69        41.72624
213.14        36.29707
213.60        41.32337
214.06        54.47243
214.52        70.97668
214.98         83.1751
215.44        88.44705
215.90        88.80963
216.36        85.86407
216.81        81.78497
217.27        78.07044
217.73        74.28999
218.19        70.18268
218.65        65.20165
219.11         58.6581
219.57        49.59724
220.02        39.13896
220.48         33.9006
220.94        37.20686
221.40        47.48355
221.86        56.82898
222.32        57.11133
222.77        49.61238
223.23        38.91645
223.69        30.17181
224.15        28.74055
224.61        33.88578
225.06        42.77505
225.52        51.57092
225.98        55.31615
226.44        53.13756
226.90        47.28654
227.36        40.22039
227.81        35.19625
228.27        33.40696
228.73        33.60192
229.19        35.22321
229.65         37.4575
230.10        39.68125
230.56        41.92367
231.02        43.85003
231.48         45.0206
231.93        45.44755
232.39        45.29346
232.85        44.68363
233.31        43.89644
233.77        43.05292
234.22        42.08136
234.68         41.2255
235.14        40.87798
235.60        41.16998
236.05        42.08452
236.51        43.24362
236.97         44.0504
237.43        44.41638
237.88         44.4892
238.34        44.63031
238.80        45.86588
239.26        48.52466
239.71        52.32881
240.17        56.20693
240.63        58.83578
241.08        59.92722
241.54        59.81869
242.00        59.30003
242.46        59.56014
242.91          61.523
243.37        66.36491
243.83        82.11275
244.28        137.6947
244.74        208.9212
245.20        180.1619
245.66        147.9771
246.11        136.9025
246.57        136.7186
247.03        145.8411
247.48        166.0167
247.94        115.5766
248.40        83.74828
248.85        78.85964
249.31         79.6165
249.77        82.33406
250.22        86.86726
250.68        94.36319
251.14        104.6949
251.59         110.995
252.05        106.7503
252.51        95.38241
252.96        83.21544
253.42        76.29655
253.88        74.19118
254.33        74.72626
254.79        78.09319
255.25        83.78242
255.70        90.20659
256.16        96.87034
256.62        101.2697
257.07        100.8957
257.53        96.89944
257.99        90.35622
258.44        83.61871
258.90        80.41628
259.35        79.80747
259.81        80.42871
260.27        80.13309
260.72        76.86117
261.18        71.47808
261.63        64.93697
262.09        58.96143
262.55        54.80706
263.00        52.42772
263.46        51.26543
263.91        50.40709
264.37        49.20405
264.83        47.42133
265.28        45.20308
265.74        43.02435
266.19        41.34645
266.65         40.4138
267.11        39.94223
267.56        39.52581
268.02        38.67367
268.47        37.25861
268.93        35.46006
269.38        33.54149
269.84        32.18878
270.30        31.59028
270.75        31.55805
271.21        31.73861
271.66        31.60032
272.12        30.99135
272.57        30.07317
273.03        29.10901
273.48        28.40991
273.94        28.07701
274.39        27.95466
274.85        27.86552
275.31        27.54921
275.76        26.94768
276.22        26.18994
276.67         25.4187
277.13        24.92321
277.58        24.70194
278.04        24.67889
278.49        24.65803
278.95        24.42349
279.40        23.91405
279.86        23.27006
280.31        22.58447
280.77        22.10425
281.22        21.83799
281.68        21.72055
282.13        21.67491
282.59        21.62578
283.04        21.53936
283.50        21.48307
283.95        21.40441
284.41        21.23524
284.86        20.97863
285.32        20.66811
285.77        20.44468
286.22        20.58373
286.68        21.08291
287.13        21.80761
287.59        22.51207
288.04        22.82349
288.50        22.69485
288.95        22.24284
289.41        21.67323
289.86        21.19287
290.32        20.93307
290.77        20.81949
291.22        20.88251
291.68        21.12721
292.13        21.54657
292.59        22.15871
293.04        22.90723
293.50        23.68946
293.95        24.46365
294.40        25.22203
294.86        26.00497
295.31         26.8959
295.77        27.92161
296.22        29.06535
296.68        30.25896
297.13        31.35771
297.58        32.35021
298.04        33.29694
298.49        34.33248
298.95        35.71461
299.40        37.47415
299.85        39.51815
300.31        41.65549
300.76        43.57756
301.21         45.1777
301.67        46.58026
302.12        47.84624
302.58        49.16991
303.03        50.58587
303.48        52.05846
303.94        53.66626
304.39        55.47099
304.84        57.47226
305.30        59.64552
305.75        61.77755
306.20        63.56102
306.66        64.95914
307.11        66.01318
307.57        66.97609
308.02        68.11515
308.47        69.55196
308.93        71.21119
309.38         72.9297
309.83        74.49939
310.29        75.84765
310.74        77.00414
311.19        78.07923
311.65         79.2408
312.10        80.51241
312.55        81.84738
313.00         83.0788
313.46        83.94821
313.91        84.38857
314.36        84.50228
314.82        84.54934
315.27        84.87378
315.72        85.59415
316.18        86.61765
316.63        87.74167
317.08        88.58361
317.53        89.03549
317.99        89.19449
318.44        89.30104
318.89        89.74913
319.35        90.60032
319.80        91.75088
320.25        92.87511
320.70        93.43881
321.16         93.3251
321.61        92.71889
322.06        91.97794
322.51        91.66192
322.97        91.89262
323.42        92.54159
323.87        93.35353
324.32        93.88647
324.78        93.99536
325.23        93.86514
325.68        93.63935
326.13        93.57615
326.59        93.73468
327.04        94.04411
327.49        94.44694
327.94        94.89356
328.39        95.34386
328.85         95.8035
329.30        96.25867
329.75        96.50573
330.20        96.53828
330.66        96.40902
331.11          96.343
331.56        96.62669
332.01        97.34901
332.46        98.41061
332.92        99.65974
333.37        101.0017
333.82        102.2408
334.27        103.3884
334.72        104.2909
335.17        104.7221
335.63        104.6638
336.08        104.2326
336.53        103.6818
336.98        103.4763
337.43        103.7531
337.88        104.4022
338.34        105.2773
338.79        106.2124
339.24        107.0689
339.69         107.911
340.14        108.6276
340.59        109.0231
341.05        109.0846
341.50        108.8496
341.95         108.541
342.40        108.5275
342.85        108.8975
343.30         109.559
343.75        110.3496
344.20        110.9654
344.66        111.3121
345.11        111.4534
345.56        111.4675
346.01        111.4738
346.46        111.5213
346.91        111.5686
347.36        111.6096
347.81        111.6474
348.26        111.6875
348.72        111.7625
349.17        111.8562
349.62        111.9793
350.07        112.1246
350.52        112.2759
350.97        112.4163
351.42        112.5285
351.87        112.5985
352.32        112.6196
352.77        112.5755
353.22        112.4447
353.67        112.2299
354.13        111.9609
354.58        111.6276
355.03        111.2777
355.48        110.9204
355.93         110.537
356.38        110.1427
356.83        109.7584
357.28        109.3782
357.73        109.0043
358.18        108.5657
358.63        107.9476
359.08        107.1495
359.53        106.2253
359.98        105.3018
360.43        104.5742
360.88        104.0764
361.33         103.733
361.78        103.4469
362.23        103.0593
362.68        102.5241
363.13        101.9052
363.58        101.2085
364.03        100.4391
364.48        99.61834
364.93        98.73279
365.38        97.88002
365.83         97.2272
366.28        96.78808
366.73        96.50161
367.18        96.21597
367.63        95.67812
368.08        94.84547
368.53        93.83513
368.98        92.76165
369.43        91.78859
369.88        90.97745
370.33         90.2757
370.78        89.72579
371.23        89.40189
371.68        89.28864
372.13         89.3541
372.58        89.45042
373.03        89.32228
373.48        88.90778
373.93        88.28401
374.38         87.5662
374.83        86.93826
375.28        86.45656
375.72        86.05402
376.17        85.73832
376.62        85.49693
377.07        85.30097
377.52        85.14186
377.97        84.95237
378.42        84.61861
378.87        84.12975
379.32        83.54321
379.77        82.89892
380.22        82.25301
380.67        81.62296
381.11        80.98127
381.56        80.39647
382.01        79.98741
382.46         79.7775
382.91        79.76186
383.36        79.75937
383.81        79.47719
384.26        78.87044
384.71        78.01614
385.15        77.17162
385.60        76.79478
386.05        76.90568
386.50        77.35387
386.95        77.80139
387.40        77.68394
387.85        76.92744
388.29        75.76141
388.74         74.6313
389.19        73.85368
389.64        73.48707
390.09         73.3709
390.54        73.45202
390.98        73.64303
391.43        73.86541
391.88         74.1226
392.33        74.26227
392.78        73.99539
393.23        73.33322
393.67        72.52083
394.12        71.83762
394.57        71.11341
395.02        70.57581
395.47        70.92162
395.91        71.98564
396.36        72.62264
396.81        72.66131
397.26        72.62923
397.71        72.56645
398.15        72.21652
398.60        71.69831
399.05        71.21966
399.50        70.79848
399.95        69.96345
400.39        69.19343
400.84          68.953
401.29        69.26021
401.74        69.36021
402.18        69.19885
402.63        69.14758
403.08        69.28461
403.53        69.51612
403.97         69.8297
404.42        70.21479
404.87        70.50723
405.32        70.41327
405.76        69.88309
406.21        69.14457
406.66        68.41904
407.11        67.87036
407.55        67.66922
408.00        68.07945
408.45        68.87748
408.90        69.24822
409.34        69.00021
409.79        68.44532
410.24        67.82725
410.68        67.46642
411.13        67.45702
411.58        67.58702
412.03        67.87137
412.47        68.20024
412.92        68.49032
413.37        68.78499
413.81         68.9837
414.26        68.97297
414.71        68.72663
415.15        68.26178
415.60         67.7409
416.05        67.45425
416.49        67.47632
416.94        67.75319
417.39        68.07134
417.83        68.04636
418.28         67.6172
418.73        66.92235
419.17        66.26096
419.62        66.10329
420.07        66.49814
420.51        67.27894
420.96        68.14337
421.41        68.52563
421.85        68.26259
422.30        67.80846
422.74        67.29992
423.19        66.64759
423.64        66.08818
424.08        66.46266
424.53        67.56007
424.98        68.19423
425.42        68.20177
425.87        68.32957
426.31        68.62438
426.76        68.56208
427.21        68.33579
427.65        68.66427
428.10        69.44614
428.54        70.15726
428.99        70.74429
429.44        70.98314
429.88        70.93245
430.33        71.72593
430.77        72.73452
431.22        71.70354
431.66         69.1858
432.11        67.93856
432.56        68.20811
433.00        68.88203
433.45         69.8789
433.89         71.5732
434.34        72.55401
434.78         74.3777
435.23        70.31686
435.67        68.46381
436.12         70.8881
436.57        71.87611
437.01        72.05022
437.46        72.82024
437.90        72.78852
438.35        71.98297
438.79        72.88961
439.24        72.80215
439.68        72.61572
440.13        72.29044
440.57        72.17799
441.02        73.06982
441.46        74.59212
441.91        75.61133
442.35        75.76374
442.80        74.95506
443.24        73.65851
443.69        74.00139
444.13        75.63358
444.58        75.84574
445.02          74.114
445.47        73.91756
445.91        74.96377
446.36        75.33589
446.80        74.96044
447.24        74.82709
447.69         75.0179
448.13        75.25008
448.58        75.53422
449.02        75.87972
449.47        76.23866
449.91        76.55228
450.36        76.79586
450.80        76.96678
451.25        77.03998
451.69         76.9468
452.13        76.71715
452.58        76.38423
453.02        76.07185
453.47        76.01495
453.91        76.22536
454.36        76.64183
454.80        77.11655
455.24         77.2158
455.69        76.85159
456.13        76.49117
456.58         76.3466
457.02        75.38727
457.46         74.9282
457.91        75.62376
458.35        76.34004
458.79        76.80331
459.24        76.61577
459.68        76.30598
460.13        75.92383
460.57        75.61666
461.01         75.5558
461.46        74.67045
461.90        74.17141
462.34        74.96587
462.79        74.26763
463.23        74.64726
463.68        75.07008
464.12        75.42571
464.56        75.57475
465.01         75.6132
465.45        75.43152
465.89         75.1283
466.34        74.70874
466.78        73.73032
467.22        72.66676
467.67        72.46668
468.11        73.59329
468.55        74.37938
468.99        74.62088
469.44        74.32212
469.88        73.69595
470.32        73.60753
470.77        74.00273
471.21        73.97573
471.65        73.49239
472.10        73.23233
472.54        73.26584
472.98        73.31595
473.42         73.3545
473.87        73.72021
474.31        74.19227
474.75        73.86813
475.20        72.98308
475.64         72.9558
476.08         73.7445
476.52        73.83275
476.97        73.09232
477.41        73.59153
477.85        73.50867
478.29        73.24429
478.74        73.66965
479.18         74.3279
479.62        72.83755
480.06        73.48151
480.50        73.85673
480.95        74.24342
481.39        74.17139
481.83        73.14104
482.27        73.14622
482.72        73.02631
483.16        71.49876
483.60        71.81023
484.04        73.39226
484.48        73.97755
484.93         74.0013
485.37        75.40172
485.81        75.87312
486.25        74.65676
486.69        100.3768
487.14        81.56678
487.58        50.89062
488.02         62.7128
488.46        70.95808
488.90        70.68204
489.34         72.8352
489.79        71.66727
490.23        73.72941
490.67         74.3801
491.11        73.37629
491.55        73.50206
491.99        74.23376
492.43        74.11164
492.88        73.19222
493.32        72.93359
493.76        72.91275
494.20        73.10243
494.64        73.27424
495.08        73.66597
495.52        74.18558
495.96        74.20007
496.41        73.70647
496.85        73.96134
497.29        74.73246
497.73         73.4481
498.17        71.19077
498.61        71.47916
499.05        74.26943
499.49        74.91255
499.93        74.94934
500.37        74.63792
500.82        73.93862
501.26        73.93221
501.70        74.37101
502.14        74.65532
502.58        74.62051
503.02        74.37427
503.46        74.30057
503.90        73.87202
504.34        73.37379
504.78        73.16423
505.22        73.30362
505.66        73.68574
506.10        74.13008
506.54        74.34008
506.98        74.23286
507.42        73.91956
507.86        73.54193
508.30        73.37833
508.74        73.48216
509.18        73.76881
509.62        74.10349
510.06        74.27253
510.50        74.22093
510.94        74.02728
511.38        73.79991
511.82        73.70028
512.26        73.77191
512.70        73.95601
513.14        74.18118
513.58        74.33765
514.02        74.38367
514.46        74.34969
514.90         74.2752
515.34        74.20535
515.78        74.14988
516.22        74.15118
516.66        74.18388
517.10        74.06097
517.54          73.778
517.98        73.89601
518.42        73.71317
518.86         73.8377
519.30        74.04516
519.74        74.37876
520.18         74.7435
520.62        74.94073
521.06        74.95782
521.50         74.9271
521.93         74.8788
522.37         74.7828
522.81        74.67121
523.25         74.5842
523.69        74.55254
524.13        74.60041
524.57        74.72778
525.01          74.924
525.45        75.13932
525.89        75.28926
526.32        75.34011
526.76        75.30902
527.20        75.21114
527.64        75.10519
528.08        75.03098
528.52        74.88634
528.96        74.65716
529.40        74.60348
529.83        74.73492
530.27        74.08574
530.71        74.17836
531.15        74.05851
531.59        74.17898
532.03        74.37917
532.46        74.63631
532.90        74.91426
533.34        75.15678
533.78        75.38492
534.22        75.55749
534.66        75.56445
535.09        75.37939
535.53        75.29391
535.97        74.93291
536.41        74.75185
536.85        74.65908
537.28        74.64728
537.72        74.66379
538.16        74.64097
538.60        74.56628
539.04        74.40451
539.47        74.20558
539.91        74.24002
540.35        74.43951
540.79        74.46874
541.22        74.32363
541.66        74.30093
542.10        74.39371
542.54        74.41289
542.97         74.3856
543.41        74.47365
543.85        74.66915
544.29        74.93992
544.72         75.1559
545.16        75.14856
545.60        74.88728
546.04        74.43539
546.47        73.98474
546.91        73.86446
547.35        74.13874
547.79        74.69221
548.22        75.25722
548.66        75.54633
549.10        75.39073
549.53        74.57973
549.97        73.51429
550.41        73.05876
550.84        73.34634
551.28        73.99171
551.72         74.7198
552.15        75.16721
552.59        75.20316
553.03        74.95744
553.46        74.58276
553.90        74.33663
554.34        74.28111
554.77        74.33281
555.21        74.45107
555.65        74.37684
556.08        74.81855
556.52        74.27867
556.96        74.69327
557.39        74.60659
557.83        74.56622
558.27        74.50962
558.70        74.48876
559.14        74.58614
559.57        74.76637
560.01        75.01767
560.45        75.25076
560.88        75.29103
561.32        75.14156
561.75        74.93084
562.19        74.74139
562.63        74.31747
563.06        73.83188
563.50        73.95936
563.93        74.55492
564.37        74.85047
564.80        74.75358
565.24        74.70158
565.68        74.71497
566.11        74.67083
566.55        74.62833
566.98        74.58224
567.42         74.5666
567.85        74.64983
568.29        74.87715
568.72        74.98972
569.16        75.11896
569.60        75.57755
570.03        76.00542
570.47        75.80982
570.90        75.35859
571.34        73.52643
571.77        74.85355
572.21        74.64945
572.64        74.25998
573.08        73.54443
573.51        70.16234
573.95        72.83242
574.38        77.32899
574.82         75.0646
575.25         74.6853
575.69        72.43948
576.12        71.26151
576.56        70.05509
576.99        71.95559
577.42        75.32712
577.86        75.18314
578.29        74.53416
578.73        78.38629
579.16        72.17561
579.60        66.22118
580.03         69.2542
580.47        73.61327
580.90        75.24035
581.33        73.93252
581.77        72.89658
582.20         79.9745
582.64        80.12615
583.07        68.15832
583.51        66.98083
583.94        65.80355
584.37        69.10445
584.81        72.36651
585.24        76.22392
585.68        77.96603
586.11        76.94529
586.54        71.10728
586.98         69.0799
587.41        69.81902
587.85        73.59509
588.28        76.09825
588.71        72.26968
589.15         69.7529
589.58        71.88824
590.01         71.7434
590.45         73.0807
590.88        74.00419
591.31        73.32266
591.75        72.75526
592.18        72.75153
592.61        74.37031
593.05         74.7009
593.48        77.76392
593.91        78.62968
594.35        72.53934
594.78        70.92844
595.21        70.44724
595.65        73.67549
596.08        76.89015
596.51        73.46439
596.94        71.49166
597.38        72.05521
597.81         74.9771
598.24         77.0164
598.68        75.29909
599.11        74.33978
599.54        76.92075
599.97        78.38652
600.41        73.14753
600.84        73.15626
601.27         74.7225
601.70        73.65473
602.14        73.79518
602.57        72.65451
603.00        73.00887
603.43        74.90229
603.87        76.47747
604.30        76.40993
604.73        74.14871
605.16         72.4769
605.60        73.35088
606.03        74.52199
606.46        75.85575
606.89        75.30215
607.32         73.1846
607.76        73.00986
608.19        75.54446
608.62        74.63995
609.05        73.36847
609.48        73.92519
609.92        73.85291
610.35        73.27178
610.78        75.55859
611.21        76.24046
611.64        72.81522
612.07        73.56514
612.50        73.98291
612.94        74.44884
613.37        73.84763
613.80        73.94806
614.23        74.42435
614.66        74.32673
615.09        74.73277
615.52        74.68922
615.96        74.33229
616.39        74.86172
616.82        73.55764
617.25        73.43053
617.68        74.18132
618.11        74.86156
618.54        75.31624
618.97        74.82052
619.40        73.78034
619.84        73.80964
620.27        74.82389
620.70         75.3762
621.13        75.34464
621.56        74.76062
621.99        73.88664
622.42        74.82825
622.85         77.1094
623.28        76.11942
623.71        75.56316
624.14        75.81663
624.57        75.40778
625.00        74.79224
625.43        75.38757
625.86        74.80429
626.29         75.0305
626.72        75.65824
627.15        75.28698
627.58        75.45612
628.01        75.58849
628.44         75.5721
628.87        75.54063
629.30        75.60976
629.73         76.5374
630.16        76.77029
630.59        76.34477
631.02         75.8562
631.45        75.42157
631.88        75.10143
632.31        74.95042
632.74        74.95921
633.17        75.07035
633.60        75.17777
634.03        75.24292
634.46        75.30373
634.89         75.3465
635.32        75.34361
635.75        75.29957
636.18        75.21395
636.61        75.13863
637.04        75.16117
637.47        75.29315
637.89        75.52019
638.32        75.73902
638.75        75.82417
639.18        75.74249
639.61        75.54326
640.04        75.28832
640.47        75.07554
640.90        74.94283
641.33        74.85651
641.76        74.79381
642.18        74.82394
642.61        74.93766
643.04        74.95741
643.47        74.80946
643.90        75.34431
644.33        74.99723
644.76         75.0309
645.18        75.01168
645.61         75.0117
646.04        75.02612
646.47        75.02898
646.90        75.05743
647.33        75.11901
647.75        75.23349
648.18        75.43417
648.61        75.57356
649.04        75.45887
649.47        75.06047
649.89        74.24741
650.32        73.43539
650.75        73.44376
651.18        74.22543
651.61        75.13515
652.03        75.74345
652.46        75.60951
652.89         75.1211
653.32         74.4049
653.74        73.92388
654.17        74.98405
654.60        76.16101
655.03        73.43183
655.46        74.50538
655.88        78.51249
656.31        83.66746
656.74        185.5782
657.16        120.5587
657.59        42.76095
658.02        32.45913
658.45        56.37198
658.87        71.79409
659.30        75.78078
659.73        74.58378
660.15        72.36138
660.58        74.77582
661.01        76.65167
661.44         74.2259
661.86        73.35046
662.29        73.29935
662.72        73.79929
663.14         75.6696
663.57        75.67601
664.00        74.39572
664.42        74.15395
664.85        75.02892
665.27        75.48795
665.70        75.33792
666.13        75.16183
666.55        74.95618
666.98        74.55076
667.41        74.09789
667.83        73.91064
668.26        74.04971
668.69         74.3861
669.11        74.72111
669.54        75.09673
669.96        74.75159
670.39          74.358
670.82        73.88145
671.24        73.64328
671.67        73.75758
672.09        74.06293
672.52        74.34064
672.94        74.92005
673.37        74.44895
673.80         74.2541
674.22        74.05389
674.65        73.97247
675.07         74.0135
675.50        73.96457
675.92        73.86222
676.35        73.90656
676.77         74.1031
677.20        74.31158
677.62        74.48582
678.05        74.55799
678.47        74.50301
678.90        74.36855
679.32        74.22262
679.75         74.0306
680.17        74.10783
680.60        74.19031
681.02        74.29697
681.45        74.27576
681.87        74.10873
682.30        73.88848
682.72        73.70145
683.15        73.57391
683.57        73.60971
684.00        73.95867
684.42        74.59859
684.85        74.88747
685.27        74.78471
685.70        74.54263
686.12        74.26704
686.54        74.10234
686.97        74.08777
687.39        74.19173
687.82        74.32461
688.24        74.39626
688.66        74.35683
689.09        74.24998
689.51        74.14255
689.94        74.10786
690.36        74.17706
690.78        74.31161
691.21        74.47075
691.63        74.60135
692.06        74.68174
692.48        74.72815
692.90        74.75925
693.33         74.7876
693.75        74.82594
694.17        74.88649
694.60        74.94671
695.02        74.97157
695.44        74.92632
695.87        74.93581
696.29        75.05573
696.71        74.95783
697.14         74.7735
697.56        75.36593
697.98        76.42506
698.41        76.23038
698.83        75.35512
699.25        74.70679
699.68         74.5804
700.10        74.44812
700.52        74.36749
700.94        74.65252
701.37        75.16492
701.79        75.66754
702.21         76.0607
702.64        75.98598
703.06        76.20131
703.48        75.98999
703.90         75.6204
704.33        75.09827
704.75        74.56658
705.17        74.33477
705.59        74.46638
706.01        74.77052
706.44         75.0947
706.86        75.76833
707.28         75.6944
707.70        75.86188
708.12        75.99663
708.55         75.6275
708.97        75.38098
709.39        75.26452
709.81        75.44267
710.23        75.50235
710.66        75.43244
711.08        75.51864
711.50        75.68729
711.92        75.72211
712.34        75.59987
712.76        75.36455
713.19        75.13442
713.61        75.13449
714.03         75.3902
714.45        75.83277
714.87        76.26464
715.29        76.37544
715.71        76.10606
716.13        75.55764
716.56        74.94913
716.98         74.6671
717.40        74.80093
717.82        75.23685
718.24        75.77938
718.66        76.09563
719.08        76.08658
719.50        75.85114
719.92        75.51719
720.34        75.30724
720.76        75.28877
721.19        75.26882
721.61        75.41901
722.03        75.49222
722.45        75.52309
722.87        75.53904
723.29        75.57008
723.71        75.64956
724.13         75.7785
724.55        75.93225
724.97        76.07106
725.39        76.14085
725.81        76.12826
726.23         76.0543
726.65        75.95285
727.07         75.8734
727.49        75.84071
727.91        75.85607
728.33        75.90955
728.75        75.98277
729.17        76.06326
729.59        76.14074
730.01        76.24791
730.43        76.42624
730.85        76.67787
731.27         77.0134
731.69        77.31133
732.10        77.36565
732.52        77.15895
732.94        76.75017
733.36        76.34331
733.78        76.29389
734.20        76.69006
734.62        77.09269
735.04         78.3917
735.46        78.34222
735.88         77.5333
736.30        77.73238
736.72        78.90097
737.13        79.28692
737.55        78.65336
737.97         78.4419
738.39        78.69946
738.81        78.02086
739.23        76.85873
739.65        77.73134
740.06        80.08185
740.48        80.53328
740.90        78.72308
741.32        77.99191
741.74        78.47818
742.16        78.72607
742.57        78.78288
742.99        79.47678
743.41        80.57581
743.83        81.21515
744.25        81.24857
744.67        80.90203
745.08        80.42294
745.50        80.21082
745.92        80.39404
746.34        80.82835
746.75        81.34655
747.17        81.66888
747.59        81.74381
748.01        81.66721
748.42         81.5964
748.84        81.79974
749.26        82.34561
749.68        82.98102
750.09         83.5781
750.51        84.26896
750.93        84.83707
751.35        84.53226
751.76        83.61413
752.18        83.33186
752.60        83.70515
753.01         83.8262
753.43        83.66666
753.85        83.80443
754.27        84.25266
754.68        84.76851
755.10        85.24028
755.52        85.65168
755.93        85.93917
756.35        86.03934
756.77        86.06386
757.18        86.11314
757.60        86.23329
758.02        86.68002
758.43        87.07558
758.85        86.70438
759.26        85.00151
759.68        84.56295
760.10        86.34592
760.51        87.06616
760.93        86.49992
761.34        85.23215
761.76        84.77296
762.18        84.25411
762.59        84.20757
763.01        84.57462
763.42        85.30247
763.84        85.91217
764.26        86.30717
764.67         86.5282
765.09        86.51563
765.50        86.41192
765.92        86.13349
766.33        84.82967
766.75        83.16423
767.16        82.74994
767.58        83.77996
768.00        85.48223
768.41         87.3985
768.83        88.83412
769.24          89.221
769.66        88.22038
770.07        86.47646
770.49        84.95113
770.90        83.99957
771.32        84.76178
771.73        86.57021
772.15        85.84008
772.56        83.11897
772.97        82.63963
773.39        84.32174
773.80        85.17271
774.22        84.86327
774.63          84.939
775.05        85.35949
775.46        85.60992
775.88        85.60401
776.29        85.34241
776.70        84.96199
777.12        84.84769
777.53        85.07829
777.95        85.48395
778.36        85.86022
778.77        85.85155
779.19        85.43601
779.60        84.74255
780.02        84.05901
780.43        83.93799
780.84        84.54125
781.26        85.14695
781.67        85.64953
782.09          87.053
782.50        88.64226
782.91        87.42304
783.33        84.28324
783.74        83.16521
784.15        84.29197
784.57        85.25584
784.98        85.60072
785.39        85.61035
785.81        85.25617
786.22         84.7339
786.63        84.37083
787.04        84.40521
787.46        84.89854
787.87        85.87727
788.28        87.00919
788.70        87.57034
789.11         87.3983
789.52        86.84032
789.93        86.15183
790.35        85.43528
790.76        84.93027
791.17        85.12428
791.58        85.81773
792.00        86.14761
792.41          85.983
792.82        85.70817
793.23        85.58848
793.65        85.58757
794.06        85.82767
794.47         87.0078
794.88        88.37928
795.29        87.74682
795.71        85.40442
796.12        83.19665
796.53        81.83918
796.94        81.62293
797.35         82.5758
797.76        84.02838
798.18        85.33891
798.59        86.24249
799.00        86.38806
799.41         85.4678
799.82        83.99178
800.23        83.13707
800.64        83.14465
801.06        83.57568
801.47        84.27045
801.88           84.85
802.29        85.15053
802.70        85.33306
803.11        85.39467
803.52         85.2907
803.93        85.05756
804.34        84.66338
804.75        84.26077
805.17        84.20594
805.58        84.60592
805.99        85.08092
806.40        85.42874
806.81        86.01355
807.22        86.39652
807.63        85.08208
808.04        82.72107
808.45        81.69974
808.86        82.25889
809.27          83.248
809.68         84.2178
810.09        84.81693
810.50        84.80815
810.91        84.32451
811.32        83.64733
811.73        83.22984
812.14        83.20151
812.55        83.37739
812.96         83.6935
813.37        84.03348
813.78        84.32017
814.19        84.65446
814.60        84.84274
815.01        84.56545
815.42        83.80647
815.83        82.61733
816.24         81.4548
816.65        81.12757
817.05        81.86395
817.46        83.39979
817.87        85.10642
818.28        85.84962
818.69        85.32152
819.10        83.80022
819.51        82.00484
819.92        81.16081
820.33        81.58939
820.74        82.92323
821.14        84.47834
821.55        85.03669
821.96        84.34309
822.37        82.83558
822.78        81.15022
823.19        80.21615
823.60        80.28188
824.00        81.10281
824.41        82.24496
824.82        83.08396
825.23        83.34108
825.64        83.23498
826.04         82.9398
826.45         82.7084
826.86        82.62122
827.27        82.53624
827.68        82.45868
828.08        82.46676
828.49        82.49471
828.90        82.62627
829.31        82.71987
829.72         82.4941
830.12        81.94401
830.53        81.15434
830.94         80.4567
831.35        80.29897
831.75        80.80136
832.16        81.77455
832.57        82.95286
832.97        83.77639
833.38        83.96834
833.79        83.67454
834.20        83.16756
834.60        82.86913
835.01         82.9184
835.42        83.18317
835.82        83.44981
836.23        83.28325
836.64        82.64575
837.04         81.7262
837.45        80.84982
837.86        80.51595
838.26        80.84618
838.67        81.63885
839.08        82.62804
839.48        83.32544
839.89        83.51878
840.29        83.36461
840.70         82.9826
841.11        82.54301
841.51        82.13306
841.92        81.66848
842.33        81.25031
842.73        81.06886
843.14        81.11419
843.54        81.39861
843.95        81.69754
844.35        81.68639
844.76        81.28437
845.17        80.61445
845.57        79.89118
845.98        79.45601
846.38        79.39052
846.79         79.5601
847.19        79.87276
847.60        80.06587
848.00        80.09271
848.41        80.01669
848.81        79.89553
849.22        79.73422
849.62        79.60963
850.03        79.50658
850.43        79.53111
850.84        79.78754
851.24        80.32664
851.65        80.91183
852.05        81.58768
852.46        82.23865
852.86        82.81431
853.27        83.37636
853.67        83.46368
854.07        82.55668
854.48         80.7557
854.88         78.0537
855.29         75.7675
855.69        74.93519
856.10        75.92262
856.50        78.56905
856.90        81.96303
857.31        83.96199
857.71         83.8554
858.12        82.17356
858.52        79.96698
858.92        78.65002
859.33         78.5311
859.73        79.24283
860.13        80.42445
860.54         81.3282
860.94         81.7169
861.34        81.78706
861.75        81.73141
862.15        81.92539
862.55        82.42162
862.96        83.05172
863.36        83.63267
863.76        83.84221
864.17        83.61103
864.57          83.127
864.97        82.63073
865.38        82.46184
865.78        82.74805
866.18        83.30718
866.58        83.99778
866.99        84.56646
867.39        84.97373
867.79        85.31635
868.19        85.47217
868.60        85.20557
869.00        84.53462
869.40        83.52209
869.80        82.72092
870.21        82.98514
870.61        84.55669
871.01        87.17693
871.41        90.05945
871.81        91.84274
872.22        92.13747
872.62        91.30634
873.02        90.10131
873.42        89.82724
873.82        90.68611
874.22        92.17101
874.63        93.78251
875.03        94.45689
875.43        93.73066
875.83         92.5133
876.23        90.75669
876.63        90.22865
877.03        91.14493
877.44        93.78078
877.84         100.536
878.24        100.9811
878.64        100.1597
879.04        97.89124
879.44        94.54192
879.84        92.75258
880.24        94.97686
880.64        96.83384
881.04        98.61055
881.44        99.58679
881.84        98.84727
882.24        96.92676
882.65        94.97279
883.05        94.22787
883.45        94.91154
883.85        96.80496
884.25        99.18202
884.65        100.5984
885.05        100.5836
885.45        99.63687
885.85        98.49326
886.25        98.16081
886.65        98.86448
887.05        100.2464
887.45        101.8955
887.85        103.0871
888.25        103.5277
888.65          103.46
889.04        103.0547
889.44        102.6233
889.84        102.2657
890.24        101.8479
890.64        101.4282
891.04        101.1192
891.44        100.9198
891.84        100.8644
892.24        100.7883
892.64        100.3598
893.04        99.60719
893.44         98.7552
893.83         98.0901
894.23        98.03722
894.63        98.64768
895.03        99.70635
895.43        101.1715
895.83        102.9251
896.23        104.7619
896.63        106.6531
897.02        108.0287
897.42        108.0063
897.82         106.533
898.22        103.9507
898.62        101.2227
899.01        99.76545
899.41        99.90424
899.81        101.1842
900.21        102.9284
900.61        104.0092
901.00        104.0704
901.40        103.4687
901.80        102.5423
902.20        101.8081
902.59        101.4469
902.99        101.2745
903.39        101.1595
903.79        100.9134
904.18        100.5085
904.58        100.1074
904.98        99.89542
905.38        100.1228
905.77        100.7714
906.17        101.6718
906.57        102.5933
906.96        103.2657
907.36        103.5474
907.76        103.5371
908.15        103.2318
908.55        102.5247
908.95        101.5212
909.34        100.2471
909.74        99.04895
910.14        98.28455
910.53         98.0741
910.93        98.39101
911.33        99.05934
911.72        99.73069
912.12        100.1827
912.52        100.4324
912.91        100.6186
913.31        100.9694
913.70        101.5812
914.10        102.3978
914.49        103.1348
914.89        102.9909
915.29        101.8209
915.68        99.90855
916.08        98.23805
916.47        97.66586
916.87        98.27373
917.26        99.78188
917.66        101.3835
918.05        101.7827
918.45        100.6798
918.84        98.56145
919.24         96.3519
919.64        95.39063
920.03        96.02246
920.42        97.81895
920.82        100.1085
921.21         101.846
921.61         102.457
922.00         102.288
922.40        101.5607
922.79        100.5458
923.19        99.42928
923.58        98.13821
923.98         96.7615
924.37        95.65625
924.77        95.19376
925.16        94.33025
925.55        95.12895
925.95        96.33372
926.34        98.42653
926.74        100.9626
927.13         103.346
927.52        104.4083
927.92         104.016
928.31         102.523
928.70        100.4079
929.10        98.50817
929.49        97.10942
929.89        96.05752
930.28        95.61008
930.67        96.17976
931.07        97.62167
931.46        99.85743
931.85        102.0605
932.24         102.985
932.64        102.3831
933.03        100.4768
933.42        97.76808
933.82        95.52136
934.21        94.22046
934.60        93.66187
934.99        93.57155
935.39        93.60022
935.78        93.68564
936.17        93.84978
936.56        93.94897
936.96        94.70943
937.35        94.29208
937.74        94.03745
938.13        93.86307
938.53        94.30911
938.92        95.41006
939.31         97.1151
939.70        98.91962
940.09        99.47246
940.49          98.356
940.88        96.17957
941.27        93.87951
941.66         92.5125
942.05        92.23823
942.44          92.736
942.84        93.70113
943.23        94.71652
943.62        95.47873
944.01        96.05547
944.40         96.4678
944.79        96.76462
945.18        96.95128
945.57        96.95847
945.97        96.53848
946.36        95.41272
946.75        93.78333
947.14        92.06003
947.53        90.75465
947.92        90.23671
948.31        90.46019
948.70        91.34254
949.09        92.60729
949.48        93.56449
949.87        93.85694
950.26        93.55539
950.65        93.03516
951.04        92.93276
951.43        93.38141
951.82        94.18467
952.21        94.83765
952.60        94.55969
952.99        93.23349
953.38        91.17868
953.77        89.11747
954.16        88.06245
954.55        88.22755
954.94        89.38686
955.33        90.82408
955.72        91.32987
956.11        90.59876
956.50         88.9188
956.89        87.19706
957.28        87.09742
957.66        89.09666
958.05        92.37672
958.44        95.72659
958.83        97.37412
959.22        96.89065
959.61        94.78059
960.00        91.89333
960.39        89.60548
960.78        88.39806
961.16        87.98656
961.55         87.8496
961.94        87.12359
962.33        85.65832
962.72        83.88371
963.11        82.45523
963.49        82.18316
963.88        83.18065
964.27         85.2393
964.66        87.67654
965.04        89.03522
965.43        88.65752
965.82        87.04457
966.21        85.18247
966.60        84.37546
966.98        84.86973
967.37        86.23239
967.76        87.83661
968.15        88.48034
968.53        87.80246
968.92        86.24556
969.31        84.46875
969.69        83.28796
970.08         82.8968
970.47        83.05927
970.86        83.41458
971.24        83.35529
971.63        82.69861
972.02        81.66481
972.40        80.72414
972.79         80.6505
973.17         81.7729
973.56        83.70427
973.95        85.94044
974.33        87.46185
974.72        87.78642
975.11        87.19085
975.49        86.16471
975.88        85.48309
976.26        85.29208
976.65        85.39439
977.04        85.43678
977.42        84.65545
977.81        82.91327
978.19        80.65221
978.58        79.01035
978.96        78.96058
979.35        80.57408
979.74        83.60987
980.12        87.48729
980.51        89.77449
980.89        89.83787
981.28        88.29909
981.66        86.03546
982.05        84.17634
982.43        82.99648
982.82        82.15264
983.20        81.93545
983.59        82.88285
983.97        85.12202
984.35         88.7103
984.74        92.63666
985.12        94.77068
985.51        93.82505
985.89        90.17264
986.28        85.19953
986.66        81.32694
987.04        79.63896
987.43        79.60522
987.81        80.30803
988.20        80.62834
988.58         80.2341
988.96        79.17945
989.35        78.06244
989.73        79.18849
990.12        83.16782
990.50        88.51615
990.88        92.08121
991.27        91.87025
991.65        88.41006
992.03        82.39139
992.42        75.98937
992.80        73.20103
993.18         75.1275
993.56        79.60531
993.95        84.46645
994.33        87.73219
994.71        88.97293
995.10        89.18403
995.48        88.49714
995.86        86.89649
996.24        84.49262
996.63        80.86346
997.01        77.00668
997.39        75.93596
997.77        78.84744
998.15         85.1091
998.54        91.58389
998.92         94.0518
999.30        91.30009
999.68        84.29153
1000.06         75.1916
1000.45        69.25055
1000.83        68.42483
1001.21        70.92059
1001.59        74.69245
1001.97        77.55171
1002.35         78.9692
1002.73        79.77411
1003.12        79.43889
1003.50        77.01315
1003.88        72.73129
1004.26        67.69209
1004.64        63.42047
1005.02        60.80849
1005.40         59.7045
1005.78        59.97593
1006.16        62.95852
1006.54        69.88726
1006.92        77.58558
1007.30        83.16444
1007.69        86.34312
1008.07        88.36098
1008.45        90.14259
1008.83        91.91209
1009.21        93.17229
1009.59        88.25941
1009.97        57.00932
1010.35       -8.503113
1010.73       -22.26032
1011.11        3.110118
1011.49         26.1917
1011.86        44.90575
1012.24        56.44168
1012.62        62.40503
1013.00        65.32895
1013.38         66.6687
1013.76        68.17515
1014.14         74.1485
1014.52        87.64773
1014.90        108.7732
1015.28        132.6804
1015.66        147.4117
1016.04        144.5675
1016.41        124.3302
1016.79         96.9672
1017.17         75.1757
1017.55        63.21715
1017.93        57.54372
1018.31        55.57553
1018.69        55.93056
1019.06        58.07346
1019.44        61.85594
1019.82        68.92409
1020.20        81.14299
1020.58        100.9359
1020.95        135.2896
1021.33        199.8541
1021.71       -575.6248
1022.09         61.4509
1022.46        101.9345
1022.84         118.577
1023.22        131.1847
1023.60        152.7261
1023.97        340.6185
1024.35        26.32853
1024.73        63.02682
