SpectraSmart Spectrum 2.9.0.0
--------- Device Information -----------
Spectrum Name :  反射率_0
Saving Time :  2024/04/26 02:01:52
Spectro-Module Model Name : SE2030-DUVN
Spectro-Module Serial Number : OS361AC55029948
Wavelength Start : 200
Wavelength End : 1025
Wavelength Unit : Wavelength(nm)
Spectrum Unit : Reflectance(%)
-----------Spectrum Setting ------------
Integration Time : 20ms
Average : 10
Boxcar : 0
Background removal :  enabled
linearity correction :  enabled
SC :  disabled
Intensity correction :  disabled
DWT denoise :  enabled
savitzky-golay :  disabled
FFT :  disabled
Running average :  disabled
Kalman :  disabled
High pass :  disabled
---------------BEGIN--------------------
Wavelength(nm)             Reflectance(%)
200.29               0
200.75        97.63013
201.21        86.62011
201.67        74.19638
202.13        66.97787
202.58        65.72099
203.04         68.8186
203.50        73.61584
203.96        75.59966
204.42        73.85615
204.88        70.35172
205.34        67.18563
205.80        66.40637
206.26        68.82918
206.72        75.95086
207.18        91.11691
207.64        106.6803
208.10         101.714
208.55        85.85406
209.01        75.29848
209.47        72.19299
209.93        73.65823
210.39         78.0767
210.85        82.91473
211.31        82.86597
211.77        76.51131
212.23        66.09983
212.69         56.1027
213.14        53.30215
213.60        58.68358
214.06         70.2468
214.52        83.43904
214.98        91.22237
215.44         91.7495
215.90        87.30615
216.36        80.78598
216.81        76.18077
217.27        74.80683
217.73         75.2471
218.19        75.75418
218.65        74.01641
219.11        69.13258
219.57        60.70298
220.02        49.96553
220.48        44.07533
220.94        46.79541
221.40        55.95224
221.86        64.50443
222.32        65.29276
222.77        59.09944
223.23        50.09422
223.69        42.11606
224.15        39.03544
224.61        40.45958
225.06        44.45864
225.52        48.45451
225.98        49.41739
226.44        46.85758
226.90         42.2432
227.36        37.25783
227.81        34.06623
228.27         33.4348
228.73          34.372
229.19        36.24019
229.65        38.09926
230.10        39.50513
230.56        40.68841
231.02        41.55456
231.48        41.95215
231.93        41.94331
232.39        41.57085
232.85        41.09779
233.31        41.01105
233.77        41.40427
234.22        42.15403
234.68        43.01365
235.14        43.39432
235.60        43.13138
236.05        42.47382
236.51        41.72747
236.97        41.25884
237.43        41.26279
237.88        41.82675
238.34        43.06111
238.80         45.1307
239.26        47.90819
239.71        51.23811
240.17        54.83276
240.63        58.78124
241.08         62.9534
241.54        66.94009
242.00        70.33855
242.46        73.01762
242.91        75.64105
243.37         79.0005
243.83         87.7818
244.28        121.0809
244.74        168.6772
245.20        154.1398
245.66         135.315
246.11         130.296
246.57        134.2214
247.03        151.1372
247.48        196.7773
247.94        154.5609
248.40        101.1043
248.85        86.77588
249.31        83.42973
249.77         84.0368
250.22        87.08015
250.68         93.0322
251.14        101.7732
251.59        107.5826
252.05        104.9175
252.51        96.44029
252.96        87.30046
253.42        82.82751
253.88        82.57613
254.33        84.45879
254.79        88.17447
255.25        92.65175
255.70        96.72852
256.16        100.6305
256.62        102.7659
257.07        101.4594
257.53        97.68424
257.99        92.01416
258.44        86.19251
258.90        83.28479
259.35         82.3589
259.81        82.41091
260.27        81.57958
260.72        78.06206
261.18        72.69313
261.63        66.25975
262.09        60.37267
262.55        56.16652
263.00        53.60236
263.46        52.20963
263.91        51.12156
264.37        49.72805
264.83        47.79715
265.28        45.46031
265.74        43.19542
266.19        41.47559
266.65        40.54457
267.11        40.10508
267.56        39.74386
268.02        38.96676
268.47        37.63834
268.93        35.93072
269.38        34.08159
269.84        32.73254
270.30        32.05902
270.75         31.8872
271.21        31.89005
271.66        31.57485
272.12        30.80923
272.57        29.75871
273.03        28.68724
273.48        27.90328
273.94        27.50642
274.39        27.33837
274.85        27.23469
275.31        26.95293
275.76        26.42835
276.22        25.77815
276.67        25.09831
277.13         24.6101
277.58        24.31193
278.04        24.15877
278.49        24.01631
278.95        23.75553
279.40        23.32444
279.86        22.82195
280.31        22.30024
280.77        21.94105
281.22        21.73695
281.68        21.65505
282.13        21.61419
282.59        21.53259
283.04        21.38645
283.50        21.23775
283.95        21.09381
284.41        20.98083
284.86        20.90336
285.32        20.85762
285.77        20.88021
286.22        21.08631
286.68        21.45504
287.13        21.91957
287.59         22.3363
288.04         22.4871
288.50         22.3588
288.95        22.00542
289.41        21.58993
289.86        21.25705
290.32        21.10889
290.77        21.09471
291.22        21.21155
291.68        21.40959
292.13        21.68736
292.59        22.08501
293.04        22.62687
293.50        23.34132
293.95        24.21618
294.40        25.20587
294.86        26.27745
295.31        27.39861
295.77        28.55864
296.22        29.76258
296.68        30.97979
297.13        32.12856
297.58        33.21027
298.04        34.26061
298.49        35.36407
298.95        36.70841
299.40        38.31602
299.85        40.12317
300.31        42.01311
300.76        43.79183
301.21         45.3765
301.67        46.85494
302.12        48.21044
302.58        49.52052
303.03        50.79944
303.48        52.05661
303.94        53.43398
304.39        55.08876
304.84         57.0433
305.30        59.23657
305.75        61.41851
306.20        63.22689
306.66        64.60593
307.11        65.61445
307.57        66.51254
308.02        67.57775
308.47        68.93394
308.93        70.49596
309.38        72.10641
309.83        73.56786
310.29        74.81493
310.74        75.88915
311.19        76.88687
311.65        77.95091
312.10        79.10374
312.55        80.30054
313.00        81.42448
313.46        82.29803
313.91        82.86132
314.36        83.18714
314.82        83.43921
315.27         83.8176
315.72         84.4143
316.18          85.178
316.63        86.00986
317.08        86.70212
317.53         87.1907
317.99         87.5191
318.44        87.82961
318.89        88.35968
319.35        89.13066
319.80        90.08873
320.25        90.98391
320.70        91.40818
321.16        91.28467
321.61        90.75789
322.06        90.13094
322.51        89.88179
322.97        90.11017
323.42        90.71423
323.87        91.47492
324.32        92.00898
324.78        92.18437
325.23        92.15729
325.68        92.03722
326.13         92.0295
326.59        92.18192
327.04        92.45023
327.49        92.79159
327.94        93.17955
328.39        93.58646
328.85        94.00175
329.30        94.44262
329.75        94.76345
330.20         94.9531
330.66         95.0398
331.11        95.15392
331.56        95.42844
332.01        95.92188
332.46        96.58363
332.92         97.3596
333.37        98.33793
333.82        99.40076
334.27        100.5174
334.72        101.5145
335.17        102.1119
335.63        102.2564
336.08        102.0865
336.53        101.7829
336.98        101.6949
337.43         101.936
337.88        102.3985
338.34        103.0591
338.79         103.967
339.24        105.0348
339.69        106.2855
340.14        107.4239
340.59        107.9296
341.05        107.7227
341.50        106.9501
341.95        106.0914
342.40        105.8895
342.85        106.4966
343.30        107.6971
343.75        109.0898
344.20        109.9579
344.66        110.0993
345.11        109.7342
345.56        109.1455
346.01        108.7563
346.46        108.7022
346.91        108.8356
347.36        109.0818
347.81        109.3436
348.26        109.5752
348.72        109.8421
349.17        110.0881
349.62        110.2506
350.07        110.3108
350.52        110.2608
350.97        110.1486
351.42        110.0666
351.87        110.0341
352.32        110.0311
352.77        110.0003
353.22        109.8475
353.67        109.5614
354.13        109.1963
354.58        108.7985
355.03        108.4991
355.48        108.3166
355.93        108.1947
356.38        108.0654
356.83        107.8231
357.28        107.4328
357.73        106.9337
358.18        106.3301
358.63        105.6287
359.08        104.8576
359.53        104.0284
359.98        103.2127
360.43        102.5201
360.88        101.9632
361.33        101.5039
361.78        101.0753
362.23         100.563
362.68        99.94266
363.13        99.26858
363.58        98.55253
364.03        97.81022
364.48        97.06052
364.93        96.28683
365.38        95.56922
365.83        95.04414
366.28        94.71218
366.73        94.51209
367.18        94.29288
367.63        93.80753
368.08        93.01582
368.53        92.03244
368.98        90.97124
369.43         89.9977
369.88        89.17421
370.33        88.44716
370.78        87.87239
371.23        87.54139
371.68        87.44624
372.13        87.56377
372.58        87.71473
373.03         87.5901
373.48         87.1204
373.93        86.39086
374.38        85.59307
374.83        85.02963
375.28        84.76824
375.72        84.70096
376.17        84.70913
376.62        84.57503
377.07        84.22621
377.52        83.71941
377.97        83.12913
378.42        82.57163
378.87        82.09156
379.32        81.67059
379.77         81.2394
380.22         80.6913
380.67        80.01025
381.11        79.23578
381.56        78.49501
382.01        77.99918
382.46        77.80074
382.91        77.84747
383.36        77.95444
383.81        77.82774
384.26        77.40241
384.71        76.75527
385.15        76.07462
385.60        75.71462
386.05        75.68614
386.50        75.86685
386.95        76.02256
387.40        75.77354
387.85        75.08636
388.29         74.1252
388.74        73.22015
389.19        72.54623
389.64        72.13593
390.09        71.87102
390.54        71.76949
390.98        71.86446
391.43        72.11935
391.88        72.50129
392.33        72.78307
392.78        72.60957
393.23        71.98035
393.67        71.05333
394.12        70.20451
394.57        69.65406
395.02        69.51976
395.47        69.87979
395.91        70.58573
396.36        71.07319
396.81         71.2042
397.26        71.15842
397.71        70.97913
398.15        70.57433
398.60        70.06956
399.05        69.63248
399.50        69.25233
399.95          68.456
400.39        67.71101
400.84        67.39357
401.29        67.57877
401.74        67.83091
402.18        68.02071
402.63        68.01985
403.08        67.91792
403.53        68.05063
403.97        68.42177
404.42        68.76813
404.87        68.93178
405.32        68.77165
405.76        68.25549
406.21         67.5335
406.66        66.81532
407.11        66.34919
407.55        66.26028
408.00         66.5739
408.45         67.1237
408.90        67.50351
409.34        67.50886
409.79        67.06144
410.24        66.39707
410.68        66.06709
411.13        66.15846
411.58        66.37083
412.03        66.63873
412.47        66.96475
412.92        67.24561
413.37        67.51414
413.81         67.6712
414.26        67.60459
414.71        67.29512
415.15        66.77056
415.60        66.20543
416.05        65.90354
416.49        65.94384
416.94        66.26772
417.39        66.65782
417.83        66.72333
418.28        66.38965
418.73        65.78254
419.17        65.18726
419.62        65.05767
420.07        65.44393
420.51        66.18932
420.96        66.98693
421.41        67.28793
421.85        66.94525
422.30        66.35555
422.74        65.70575
423.19        65.10228
423.64        64.72022
424.08        65.08305
424.53        65.98111
424.98        66.51106
425.42        66.52643
425.87        66.60618
426.31        66.80013
426.76        66.66026
427.21         66.3945
427.65        66.73611
428.10        67.57029
428.54        68.32111
428.99        68.92347
429.44        69.14742
429.88        69.05457
430.33        69.84706
430.77        70.87401
431.22        69.71536
431.66        66.96642
432.11        65.64233
432.56        65.96793
433.00        66.51215
433.45        67.25367
433.89          69.029
434.34         70.3147
434.78         72.4228
435.23        67.88051
435.67        66.04451
436.12        68.10859
436.57        69.39244
437.01        70.30835
437.46         70.6339
437.90         70.5056
438.35        70.19845
438.79        70.46574
439.24        70.34263
439.68         70.0873
440.13        69.67941
440.57        69.44968
441.02        70.33059
441.46        71.92276
441.91        72.85993
442.35         72.8601
442.80        72.02734
443.24        70.82668
443.69        71.39415
444.13        73.32217
444.58        73.29736
445.02        71.54944
445.47        71.23615
445.91        72.30903
446.36        72.68956
446.80        72.31358
447.24        72.26754
447.69        72.57144
448.13        72.79982
448.58        72.94752
449.02        73.08442
449.47        73.21709
449.91        73.37309
450.36        73.55624
450.80        73.72847
451.25         73.8624
451.69        73.88675
452.13        73.81311
452.58        73.67531
453.02        73.53012
453.47        73.50713
453.91        73.60522
454.36         73.7828
454.80        73.98064
455.24        73.97193
455.69        73.72789
456.13         73.5455
456.58        73.48539
457.02         72.8431
457.46        72.22166
457.91        72.45978
458.35        73.38901
458.79        73.69864
459.24        73.33757
459.68        72.93095
460.13        72.59341
460.57        72.28811
461.01        72.13949
461.46        71.62709
461.90         71.4754
462.34        71.74111
462.79        71.58395
463.23        71.68363
463.68        71.74686
464.12        72.09615
464.56        72.56358
465.01        72.72598
465.45        72.46527
465.89        72.08329
466.34        71.56889
466.78        70.62275
467.22        69.81179
467.67        68.90197
468.11        70.70506
468.55        71.29342
468.99          71.242
469.44        70.89035
469.88         70.4688
470.32        70.55042
470.77        71.01498
471.21        71.05189
471.65        70.61348
472.10        70.34888
472.54         70.3255
472.98        70.31985
473.42        70.32637
473.87        70.54402
474.31        70.82356
474.75        70.68807
475.20        70.25553
475.64        70.15617
476.08        70.40729
476.52        70.41532
476.97        70.14095
477.41        70.13482
477.85        70.49881
478.29        70.03384
478.74        70.59354
479.18        70.92121
479.62        69.47195
480.06        70.02326
480.50        70.45309
480.95         70.9073
481.39        70.89052
481.83         70.0976
482.27        70.32462
482.72        69.98052
483.16        68.77924
483.60        69.04652
484.04        70.52006
484.48        70.91154
484.93        70.70203
485.37         72.1575
485.81        72.72997
486.25        71.37012
486.69        96.13053
487.14        77.78623
487.58         48.6719
488.02        59.92296
488.46        68.30527
488.90        67.54641
489.34        69.62875
489.79        68.48589
490.23        70.72056
490.67        71.32448
491.11        70.06994
491.55        70.01501
491.99        70.70223
492.43        70.61069
492.88        69.80042
493.32        69.74612
493.76        69.94637
494.20        70.18277
494.64        70.21305
495.08        70.29432
495.52         70.4621
495.96        70.40726
496.41        70.12996
496.85        70.52477
497.29        71.33949
497.73        70.29668
498.17         68.3526
498.61        68.70067
499.05        71.28693
499.49        71.63466
499.93        71.35818
500.37        71.07766
500.82         70.6898
501.26        70.78941
501.70        71.10604
502.14        71.26105
502.58        71.10901
503.02        70.91342
503.46        70.67507
503.90        70.19118
504.34        69.65067
504.78         69.4648
505.22        69.69193
505.66        70.21002
506.10        70.80886
506.54        71.09756
506.98        70.96695
507.42        70.60595
507.86        70.22739
508.30        69.79411
508.74         69.9686
509.18        70.18729
509.62        70.49731
510.06        70.68357
510.50        70.69223
510.94         70.5932
511.38        70.46252
511.82        70.42426
512.26        70.50916
512.70        70.66534
513.14        70.84153
513.58        70.96481
514.02        71.00459
514.46        70.98222
514.90        70.92292
515.34        70.84705
515.78        70.75927
516.22        70.71971
516.66        70.71996
517.10        70.57926
517.54        70.29605
517.98        70.48798
518.42        70.33696
518.86        70.49391
519.30        70.69765
519.74        71.01818
520.18        71.35493
520.62        71.48486
521.06         71.4073
521.50        71.28793
521.93        71.18294
522.37        71.07475
522.81        70.99931
523.25        71.00449
523.69        71.07355
524.13        71.14507
524.57        71.20821
525.01        71.28345
525.45        71.37302
525.89        71.47836
526.32        71.58323
526.76        71.66663
527.20        71.71122
527.64         71.7149
528.08        71.69317
528.52        71.59787
528.96         71.3947
529.40        71.23097
529.83        71.15774
530.27        70.42181
530.71        70.49586
531.15        70.38257
531.59        70.51651
532.03        70.81203
532.46        71.21387
532.90        71.59101
533.34        71.87167
533.78         72.0816
534.22        72.18917
534.66        72.16299
535.09        71.99963
535.53        71.73206
535.97        71.41867
536.41        71.17883
536.85        71.05068
537.28        71.01968
537.72        71.03523
538.16        71.01883
538.60        70.95303
539.04        70.81261
539.47        70.64556
539.91        70.71219
540.35        70.94495
540.79        71.01352
541.22        70.91344
541.66        70.93015
542.10        71.05163
542.54        71.09505
542.97        71.06519
543.41         71.0827
543.85        71.14445
544.29        71.24452
544.72        71.29589
545.16        71.19587
545.60        70.92975
546.04        70.52841
546.47        70.16902
546.91        70.16354
547.35        70.54108
547.79        71.18087
548.22        71.80083
548.66        72.02507
549.10        71.74341
549.53        70.97849
549.97        70.08285
550.41        69.64387
550.84        69.78455
551.28        70.28234
551.72        70.91386
552.15        71.32991
552.59        71.41547
553.03        71.28429
553.46         71.0376
553.90        70.89748
554.34        70.91569
554.77        70.94091
555.21        70.92121
555.65        71.01022
556.08        71.22855
556.52        70.67936
556.96        71.01906
557.39        70.89581
557.83        70.83114
558.27        70.76971
558.70        70.76133
559.14         70.8699
559.57        71.05654
560.01        71.29659
560.45        71.50707
560.88        71.55492
561.32         71.4415
561.75         71.2252
562.19        70.98007
562.63        70.57926
563.06        70.17123
563.50        70.15353
563.93        70.46701
564.37        70.85542
564.80         71.1338
565.24        71.08568
565.68         70.7718
566.11        70.63863
566.55        70.76131
566.98        70.76682
567.42        70.68098
567.85        70.83771
568.29        71.20632
568.72         71.1883
569.16        70.98688
569.60        71.30932
570.03        71.81786
570.47        71.75797
570.90        71.42335
571.34        69.86728
571.77        70.49312
572.21        70.80212
572.64        70.30395
573.08        69.12278
573.51        66.48059
573.95         68.9356
574.38        73.14006
574.82        71.21413
575.25        70.61785
575.69        68.41148
576.12        67.57922
576.56        66.80091
576.99         67.9486
577.42        71.01562
577.86        71.26679
578.29        70.13963
578.73        73.98251
579.16        68.34064
579.60        62.81522
580.03         65.6613
580.47        69.73905
580.90        71.63806
581.33        70.09989
581.77        68.96632
582.20        75.91267
582.64        75.55946
583.07        64.56216
583.51        63.14846
583.94        62.21938
584.37        65.06532
584.81        68.46697
585.24        72.09222
585.68        73.67756
586.11        72.55486
586.54        67.57515
586.98        65.39722
587.41        66.03468
587.85        69.44686
588.28        71.72279
588.71        68.46107
589.15        66.17088
589.58        67.91215
590.01        68.15495
590.45        69.73785
590.88        70.06659
591.31        69.34045
591.75        68.88264
592.18        68.93674
592.61        70.43131
593.05        70.89022
593.48         73.7011
593.91        74.48363
594.35         68.3896
594.78        66.99663
595.21        66.51588
595.65        69.54006
596.08        72.38777
596.51        69.55059
596.94        67.60655
597.38        68.31598
597.81        71.25476
598.24        72.75065
598.68        71.08026
599.11         70.3571
599.54        72.66164
599.97        73.92039
600.41        69.07237
600.84        69.20731
601.27        70.54407
601.70        69.76688
602.14        69.80237
602.57        68.82404
603.00        69.22935
603.43        70.68472
603.87        72.11919
604.30        71.70962
604.73        69.72137
605.16        68.62165
605.60        69.33871
606.03        70.31601
606.46         71.1077
606.89        71.23595
607.32        68.71487
607.76        69.09962
608.19        71.15982
608.62        70.39519
609.05        69.30132
609.48        69.85616
609.92        69.73144
610.35         69.2646
610.78        71.36291
611.21        71.96683
611.64        68.77492
612.07        69.51962
612.50        70.00681
612.94        70.43135
613.37        69.69059
613.80        70.23658
614.23        70.49836
614.66         70.4085
615.09        70.56124
615.52        70.68439
615.96        70.82673
616.39        71.01675
616.82        70.06495
617.25        69.43943
617.68        70.15602
618.11        70.69001
618.54        71.12769
618.97        70.63934
619.40        69.63238
619.84        69.37818
620.27        70.57233
620.70        71.12521
621.13        71.09052
621.56        70.54498
621.99        69.78778
622.42        70.55132
622.85        72.32024
623.28        72.13172
623.71        71.42956
624.14        71.55584
624.57        71.11301
625.00        70.76038
625.43        71.08739
625.86        70.53371
626.29        70.74708
626.72        71.18018
627.15        71.03472
627.58        71.06382
628.01        71.32575
628.44        71.39005
628.87        71.40575
629.30        71.63334
629.73        71.98851
630.16        72.06126
630.59        71.81746
631.02        71.47043
631.45        71.12205
631.88        70.86031
632.31        70.73005
632.74        70.70727
633.17        70.76045
633.60        70.83237
634.03        70.89723
634.46        70.97404
634.89        71.04447
635.32        71.07718
635.75        71.06866
636.18        71.01678
636.61         70.9575
637.04        70.95872
637.47        71.03091
637.89        71.16032
638.32        71.28191
638.75         71.3354
639.18         71.3002
639.61        71.20388
640.04        71.06464
640.47        70.91006
640.90        70.76231
641.33        70.61369
641.76        70.46997
642.18          70.443
642.61        70.53804
643.04        70.56596
643.47        70.45702
643.90        71.01222
644.33        70.75023
644.76        70.86758
645.18        70.91353
645.61        70.88772
646.04        70.77584
646.47        70.56937
646.90        70.38396
647.33        70.35529
647.75        70.52678
648.18        70.90582
648.61        71.25663
649.04        71.20435
649.47        70.71051
649.89        69.78253
650.32        68.87733
650.75        68.83869
651.18        69.64239
651.61        70.56301
652.03        71.17545
652.46        71.27935
652.89        71.16685
653.32         70.4995
653.74        69.69955
654.17        71.02482
654.60        71.67997
655.03        69.32313
655.46        70.42592
655.88        74.03175
656.31        78.45984
656.74        173.8565
657.16        113.0461
657.59        39.99106
658.02        30.53294
658.45        52.87429
658.87        67.91758
659.30        71.16682
659.73        70.31841
660.15        68.16991
660.58        70.78596
661.01        72.55704
661.44         70.0574
661.86        69.13476
662.29        69.05177
662.72        69.81115
663.14        71.16259
663.57        71.23022
664.00        70.20611
664.42        70.02047
664.85        70.72923
665.27        71.03783
665.70        70.79934
666.13        70.53949
666.55        70.26959
666.98        69.82542
667.41        69.37394
667.83        69.24909
668.26        69.50802
668.69         70.0186
669.11        70.51869
669.54        70.93153
669.96        70.51161
670.39        69.90898
670.82         69.1961
671.24        68.85778
671.67        69.01851
672.09         69.4764
672.52        69.92896
672.94        70.43571
673.37        69.77406
673.80        69.56361
674.22        69.54705
674.65        69.54414
675.07         69.5524
675.50        69.55854
675.92        69.57996
676.35        69.68346
676.77        69.86346
677.20        70.02206
677.62        70.13162
678.05        70.15475
678.47        70.07602
678.90         69.9282
679.32        69.76631
679.75        69.54642
680.17        69.56744
680.60        69.59351
681.02         69.6463
681.45        69.60412
681.87        69.45696
682.30         69.2302
682.72        69.02614
683.15        69.02792
683.57        69.27676
684.00        69.61748
684.42        70.06346
684.85        70.25009
685.27        70.16294
685.70        69.88376
686.12        69.53063
686.54        69.34251
686.97        69.36357
687.39        69.52901
687.82        69.72403
688.24        69.87096
688.66        69.81412
689.09        69.68548
689.51        69.54797
689.94        69.52454
690.36        69.65417
690.78        69.86884
691.21        70.09981
691.63        70.28157
692.06        70.36615
692.48        70.30977
692.90        70.17603
693.33        70.11996
693.75        70.17106
694.17        70.26683
694.60        70.36714
695.02         70.4266
695.44        70.39787
695.87        70.42551
696.29         70.5451
696.71        70.36873
697.14        70.04326
697.56        70.51125
697.98        71.52973
698.41        71.33927
698.83        70.67902
699.25        70.28336
699.68         70.3942
700.10        70.30798
700.52        70.03693
700.94        69.96633
701.37        70.11138
701.79        70.39483
702.21        70.75697
702.64        71.22066
703.06        71.61295
703.48        71.64861
703.90        71.29828
704.33        70.65366
704.75        69.93028
705.17        69.56506
705.59        69.67066
706.01        70.00703
706.44        70.38408
706.86        71.09009
707.28        71.08397
707.70        71.19607
708.12        71.17243
708.55        71.02193
708.97        70.77142
709.39        70.49882
709.81        70.29508
710.23        70.23326
710.66        70.34432
711.08        70.66882
711.50        71.04777
711.92         71.2104
712.34         71.0985
712.76        70.77431
713.19        70.40171
713.61        70.28237
714.03        70.47073
714.45        70.87439
714.87        71.29285
715.29        71.40991
715.71        71.15981
716.13        70.65383
716.56        70.08675
716.98        69.79818
717.40        69.86936
717.82        70.19428
718.24        70.61856
718.66        70.88108
719.08        70.90195
719.50        70.76471
719.92        70.54723
720.34        70.39168
720.76        70.34661
721.19        70.24483
721.61        70.30038
722.03        70.37236
722.45        70.50969
722.87        70.71024
723.29        70.92223
723.71        71.04631
724.13        71.05634
724.55        70.97459
724.97        70.85873
725.39        70.80094
725.81        70.82471
726.23        70.92062
726.65        71.05294
727.07        71.05824
727.49        71.08907
727.91        71.04898
728.33        71.01015
728.75        71.00385
729.17         71.0422
729.59        71.09788
730.01        71.18993
730.43         71.3484
730.85        71.56904
731.27        71.86382
731.69        72.13535
732.10        72.20336
732.52        72.03644
732.94        71.73133
733.36           71.45
733.78        71.32052
734.20        71.38345
734.62        71.89874
735.04        72.65363
735.46        72.57482
735.88        71.90875
736.30        72.29195
736.72        73.61346
737.13        74.14632
737.55        73.63873
737.97        73.37251
738.39        73.47664
738.81        72.94191
739.23        72.12175
739.65        72.94633
740.06        74.92051
740.48        75.06421
740.90        73.48889
741.32         72.7386
741.74        73.06594
742.16        73.21776
742.57         73.2541
742.99        73.91121
743.41         74.9792
743.83        75.67354
744.25        75.85059
744.67         75.7119
745.08        75.45292
745.50        75.38532
745.92        75.61143
746.34        76.01437
746.75        76.45776
747.17        76.70195
747.59        76.70482
748.01        76.58199
748.42        76.49149
748.84        76.57452
749.26        76.92436
749.68        77.63165
750.09         78.4895
750.51         78.9855
750.93        79.03891
751.35        78.79901
751.76        78.41598
752.18        78.26977
752.60         78.3501
753.01        78.23521
753.43        77.98004
753.85        78.06918
754.27        78.53433
754.68        79.14379
755.10        79.75032
755.52        80.26805
755.93        80.61497
756.35        80.76527
756.77        80.79953
757.18        80.73058
757.60        80.57797
758.02        80.68604
758.43        80.90706
758.85        80.19235
759.26        78.95198
759.68        79.14929
760.10        80.53015
760.51        80.91893
760.93        80.08842
761.34        79.25372
761.76          78.733
762.18        78.46778
762.59        78.55717
763.01        78.86739
763.42         79.3968
763.84        79.96094
764.26        80.49409
764.67        80.91077
765.09        81.06641
765.50        80.86697
765.92        80.30531
766.33        79.04012
766.75        77.57214
767.16        77.14182
767.58         77.8941
768.00        79.28596
768.41        80.94976
768.83        82.31659
769.24        82.82143
769.66        81.99071
770.07        80.40616
770.49        78.97269
770.90        78.08842
771.32        79.04591
771.73        81.15934
772.15        80.65762
772.56         78.0065
772.97         77.4828
773.39        79.01743
773.80        79.54633
774.22        78.86951
774.63        78.85499
775.05        79.45094
775.46        79.78682
775.88        79.75149
776.29        79.58539
776.70        79.36932
777.12        79.26946
777.53         79.3438
777.95        79.48489
778.36        79.58475
778.77        79.45773
779.19        79.11403
779.60        78.62149
780.02        78.17132
780.43        78.13631
780.84        78.62771
781.26        79.10152
781.67        79.49122
782.09        80.56784
782.50        81.80205
782.91        80.88038
783.33        78.49076
783.74        77.70811
784.15        78.69636
784.57        79.44169
784.98        79.62152
785.39        79.73487
785.81        79.68819
786.22         79.1922
786.63        78.57767
787.04        78.48551
787.46        78.98697
787.87        79.87951
788.28        80.83876
788.70        81.29031
789.11         81.0906
789.52        80.50655
789.93        79.82574
790.35        79.27308
790.76        79.04634
791.17        79.46241
791.58        80.25837
792.00        80.58629
792.41        80.29795
792.82        79.77889
793.23         79.3729
793.65        79.13519
794.06        79.27024
794.47        80.58562
794.88        82.27585
795.29        81.90646
795.71        79.69065
796.12        77.59166
796.53        76.30212
796.94         75.9085
797.35        76.52801
797.76        77.92559
798.18        79.44202
798.59        80.35586
799.00        80.29708
799.41        79.24646
799.82        77.76179
800.23        76.94704
800.64        77.04308
801.06        77.62321
801.47        78.47339
801.88        79.12836
802.29        79.40012
802.70        79.47427
803.11        79.37574
803.52        79.11498
803.93        78.75542
804.34        78.25046
804.75        77.78265
805.17        77.75725
805.58        78.28039
805.99        78.96325
806.40        79.53552
806.81        80.24253
807.22        80.61467
807.63        79.18205
808.04        76.67201
808.45        75.60276
808.86        76.24465
809.27        77.39928
809.68        78.57399
810.09        79.33968
810.50        79.41767
810.91        78.95817
811.32        78.24127
811.73        77.71685
812.14        77.52502
812.55        77.48864
812.96        77.57037
813.37        77.70963
813.78        77.86055
814.19           78.12
814.60        78.30759
815.01         78.1156
815.42        77.51296
815.83        76.53632
816.24        75.58224
816.65        75.35459
817.05        76.05055
817.46        77.43909
817.87        78.93574
818.28        79.49382
818.69        78.84331
819.10        77.24272
819.51        75.42888
819.92        74.64883
820.33        75.21825
820.74        76.76999
821.14        78.55489
821.55        79.24316
821.96        78.55252
822.37        76.94548
822.78        75.13418
823.19        74.17351
823.60        74.34083
824.00        75.35076
824.41        76.71005
824.82        77.65955
825.23        77.87347
825.64        77.61282
826.04        77.11155
826.45        76.70629
826.86         76.5082
827.27        76.35926
827.68        76.24414
828.08        76.20284
828.49        76.16872
828.90        76.23775
829.31        76.30764
829.72        76.15822
830.12        75.78535
830.53        75.23193
830.94        74.75606
831.35         74.7131
831.75        75.19892
832.16          76.048
832.57        77.03156
832.97        77.66482
833.38        77.72154
833.79        77.34768
834.20        76.80005
834.60        76.46867
835.01         76.4845
835.42        76.71978
835.82        77.00906
836.23        76.99807
836.64        76.64188
837.04        76.08592
837.45        75.53072
837.86        75.28661
838.26         75.4388
838.67        75.84774
839.08        76.37696
839.48        76.77682
839.89        76.91909
840.29        76.88822
840.70        76.72563
841.11        76.47984
841.51         76.1915
841.92        75.81871
842.33        75.44932
842.73        75.24274
843.14        75.20267
843.54        75.35168
843.95        75.52633
844.35        75.51008
844.76        75.24402
845.17        74.80379
845.57        74.37359
845.98        74.24551
846.38        74.47574
846.79        74.95052
847.19        75.49691
847.60         75.7196
848.00        75.55389
848.41        75.10117
848.81        74.58499
849.22        74.26411
849.62          74.262
850.03        74.50497
850.43        74.93013
850.84        75.33424
851.24        75.67098
851.65        75.81573
852.05        75.96587
852.46        76.27055
852.86        76.75278
853.27        77.38161
853.67        77.65876
854.07        76.94996
854.48        75.29544
854.88        72.95045
855.29        70.73141
855.69        69.80533
856.10        70.39855
856.50        72.36235
856.90        74.99638
857.31        76.65947
857.71        76.80255
858.12        75.79573
858.52        74.35678
858.92        73.44691
859.33        73.28917
859.73        73.62917
860.13         74.2654
860.54        74.79477
860.94        75.12172
861.34        75.35326
861.75         75.5678
862.15        75.96059
862.55        76.52237
862.96        77.14748
863.36        77.71004
863.76        77.97581
864.17        77.89622
864.57        77.62339
864.97        77.31181
865.38        77.18514
865.78        77.35275
866.18        77.65906
866.58        78.08989
866.99        78.60943
867.39        79.21947
867.79        79.96451
868.19        80.53727
868.60        80.36086
869.00        79.35256
869.40        77.69109
869.80         76.1495
870.21        75.93779
870.61        77.39795
871.01        80.16562
871.41        83.34002
871.81        85.35996
872.22        85.76205
872.62        84.96745
873.02        83.71317
873.42         83.3393
873.82        83.99991
874.22        84.98193
874.63        85.93907
875.03        86.23891
875.43        85.57946
875.83        85.13129
876.23        83.50837
876.63        82.91904
877.03        83.32261
877.44        84.99193
877.84        103.5806
878.24        92.44198
878.64        92.47016
879.04        91.88705
879.44        87.47731
879.84        85.23953
880.24        89.28564
880.64        91.54907
881.04        92.78068
881.44        93.34186
881.84        92.53857
882.24        90.71848
882.65         88.9936
883.05        88.46475
883.45         89.3205
883.85         91.4734
884.25        94.10857
884.65        95.52974
885.05        95.22453
885.45        93.78542
885.85         92.0731
886.25        91.26218
886.65        91.60973
887.05        92.70093
887.45         94.1183
887.85        95.12901
888.25        95.43702
888.65        95.31999
889.04        94.89002
889.44        94.34634
889.84        93.78954
890.24        93.12804
890.64        92.54597
891.04        92.35271
891.44        92.58053
891.84        93.18987
892.24        93.87704
892.64        94.05825
893.04        93.63678
893.44        92.85578
893.83        92.08537
894.23         91.8754
894.63        92.32014
895.03        93.19475
895.43        94.35308
895.83        95.51268
896.23        96.47221
896.63        97.28433
897.02        97.70007
897.42        97.33604
897.82         96.2302
898.22        94.57909
898.62        92.89973
899.01        91.94484
899.41        91.90509
899.81        92.51672
900.21        93.50605
900.61         94.3985
901.00        94.97891
901.40        95.37151
901.80        95.52682
902.20        95.37576
902.59        94.94985
902.99        94.23929
903.39         93.4263
903.79        92.85616
904.18        92.65314
904.58        92.80681
904.98        93.19736
905.38        93.61314
905.77        93.94808
906.17        94.21493
906.57        94.45435
906.96        94.78179
907.36        95.13301
907.76        95.46445
908.15        95.59093
908.55        95.11833
908.95        94.06284
909.34        92.55571
909.74        91.04214
910.14        90.02376
910.53        89.67731
910.93        89.93374
911.33        90.61893
911.72        91.40197
912.12        92.02944
912.52        92.49042
912.91        92.88654
913.31        93.38282
913.70        94.07068
914.10        94.92648
914.49        95.60773
914.89        95.26985
915.29        93.78906
915.68        91.52328
916.08        89.59145
916.47        89.02071
916.87        89.87479
917.26        91.82658
917.66        93.94817
918.05        94.71664
918.45        93.74938
918.84        91.58277
919.24        89.22144
919.64        88.14211
920.03        88.72642
920.42        90.50432
920.82        92.76316
921.21        94.37563
921.61        94.77351
922.00        94.38318
922.40        93.47282
922.79        92.39646
923.19        91.38128
923.58        90.20102
923.98         88.9344
924.37        88.25977
924.77          88.548
925.16        87.39565
925.55         89.0387
925.95        90.14193
926.34        91.83714
926.74        93.70661
927.13        95.38814
927.52        96.02305
927.92        95.53072
928.31        94.21227
928.70         92.3912
929.10        90.65006
929.49        89.19601
929.89        87.94968
930.28        87.26542
930.67        87.71758
931.07        89.21166
931.46        91.61807
931.85        94.01147
932.24        95.00395
932.64        94.31857
933.03        92.19521
933.42        89.27025
933.82        87.04884
934.21        86.05104
934.60        85.95181
934.99        86.22636
935.39        86.35224
935.78         86.2354
936.17        85.65435
936.56        84.40195
936.96        85.44678
937.35        84.29269
937.74        84.52205
938.13        84.76305
938.53        85.28028
938.92        86.09773
939.31        87.25479
939.70        88.48517
940.09        88.91021
940.49        88.28636
940.88         87.0122
941.27        85.65148
941.66        84.86538
942.05        84.75655
942.44        85.07915
942.84         85.7545
943.23        86.74497
943.62        87.84529
944.01        89.02472
944.40        89.93481
944.79        90.04559
945.18        89.20728
945.57        87.41755
945.97        85.01288
946.36        83.04536
946.75        82.16579
947.14        82.19385
947.53         82.6582
947.92        82.97648
948.31        83.04523
948.70        83.03546
949.09        83.12095
949.48        83.60679
949.87        84.52672
950.26        85.63419
950.65        86.64488
951.04        87.23158
951.43         87.3154
951.82        86.99671
952.21        86.34587
952.60        85.53053
952.99        84.65208
953.38         83.6601
953.77         82.7474
954.16        82.16161
954.55        81.93958
954.94        82.13342
955.33        82.34037
955.72        81.84954
956.11        80.54744
956.50        78.58587
956.89        76.80521
957.28        76.74638
957.66        78.83164
958.05        82.33184
958.44        86.01498
958.83        88.05043
959.22        87.99814
959.61        86.33368
960.00        83.91598
960.39        82.17632
960.78         81.5752
961.16        81.75986
961.55        82.14604
961.94        81.74696
962.33        80.36274
962.72        78.47478
963.11        76.73645
963.49        75.93225
963.88         76.1847
964.27          77.281
964.66        78.71873
965.04        79.46718
965.43        79.06039
965.82         77.8939
966.21        76.64438
966.60        76.19169
966.98        76.69639
967.37        77.82397
967.76        79.12108
968.15        79.71899
968.53        79.33789
968.92        78.26503
969.31        76.96124
969.69        75.99052
970.08        75.50088
970.47        75.35527
970.86        75.31685
971.24        74.98765
971.63        74.27344
972.02        73.31799
972.40        72.53016
972.79        72.58844
973.17        73.77016
973.56        75.78175
973.95        78.05772
974.33        79.48608
974.72        79.58387
975.11          78.616
975.49        77.31047
975.88        76.74038
976.26        77.09483
976.65        78.20486
977.04        79.32542
977.42        78.74563
977.81         76.0516
978.19        72.03734
978.58        68.71209
978.96        68.09645
979.35        70.44588
979.74         75.3829
980.12        81.67845
980.51        85.32356
980.89        85.03487
981.28        81.95746
981.66        78.06017
982.05        75.84553
982.43        75.72577
982.82         76.7983
983.20        78.58079
983.59        80.49176
983.97        82.37788
984.35        84.56661
984.74         86.5723
985.12        87.53631
985.51        86.81185
985.89         84.3521
986.28        80.94115
986.66        77.92216
987.04        76.06124
987.43        75.31094
987.81        74.95686
988.20        73.91173
988.58        71.74473
988.96        68.05717
989.35        63.63633
989.73        62.69051
990.12        67.63721
990.50        76.22919
990.88        83.28187
991.27        85.10963
991.65        82.32037
992.03        76.10409
992.42        68.82734
992.80        64.91756
993.18        65.83816
993.56         69.3252
993.95        73.45954
994.33        76.63009
994.71        78.32755
995.10        79.47562
995.48        79.81637
995.86        78.64317
996.24        75.88141
996.63        71.20575
997.01        65.92529
997.39        64.05785
997.77        67.26877
998.15        74.63573
998.54         82.4259
998.92        85.52343
999.30        82.48795
999.68        74.60018
1000.06         64.2077
1000.45        57.04048
1000.83         55.4079
1001.21        57.37096
1001.59        61.07479
1001.97        64.60236
1002.35        67.49147
1002.73        70.83636
1003.12        73.71379
1003.50        73.20193
1003.88        68.46375
1004.26        61.14008
1004.64        54.51509
1005.02        51.31418
1005.40        51.68816
1005.78        55.59624
1006.16        63.88601
1006.54         73.2262
1006.92        78.00593
1007.30        78.59715
1007.69        77.49693
1008.07        76.91813
1008.45        77.10591
1008.83        77.45467
1009.21        76.47966
1009.59        65.33403
1009.97        18.71704
1010.35       -62.97293
1010.73       -66.75582
1011.11       -25.44295
1011.49        8.160848
1011.86        33.43505
1012.24        48.69025
1012.62         56.9561
1013.00        61.57338
1013.38        64.36931
1013.76        67.56743
1014.14        75.85133
1014.52        92.12974
1014.90         116.458
1015.28        141.0966
1015.66        148.3989
1016.04        128.7952
1016.41        87.31597
1016.79        46.17826
1017.17        27.05976
1017.55        26.86851
1017.93        33.99269
1018.31         41.9586
1018.69         47.5303
1019.06        51.06311
1019.44        53.48796
1019.82         56.1365
1020.20        61.41089
1020.58        71.93864
1020.95        91.27206
1021.33        119.9745
1021.71       -39.02919
1022.09         108.378
1022.46        123.3108
1022.84        132.6964
1023.22         144.956
1023.60        173.5015
1023.97        447.4365
1024.35        -13.8825
1024.73        41.80963
