SpectraSmart Spectrum 2.9.0.0
--------- Device Information -----------
Spectrum Name :  反射率_0
Saving Time :  2024/04/26 01:06:18
Spectro-Module Model Name : SE2030-DUVN
Spectro-Module Serial Number : OS361AC55029948
Wavelength Start : 200
Wavelength End : 1025
Wavelength Unit : Wavelength(nm)
Spectrum Unit : Reflectance(%)
-----------Spectrum Setting ------------
Integration Time : 20ms
Average : 10
Boxcar : 0
Background removal :  enabled
linearity correction :  enabled
SC :  disabled
Intensity correction :  disabled
DWT denoise :  enabled
savitzky-golay :  disabled
FFT :  disabled
Running average :  disabled
Kalman :  disabled
High pass :  disabled
---------------BEGIN--------------------
Wavelength(nm)             Reflectance(%)
200.29               0
200.75        91.79971
201.21        86.71633
201.67        80.29427
202.13        75.84317
202.58        73.91847
203.04        74.05474
203.50        75.26472
203.96         75.9594
204.42        75.74124
204.88          75.106
205.34        74.98037
205.80        76.61819
206.26        80.96379
206.72        90.33239
207.18        108.2219
207.64        123.5733
208.10         112.827
208.55        91.15207
209.01        77.30187
209.47        72.10512
209.93        71.76591
210.39          74.495
210.85        78.14069
211.31        78.39088
211.77        74.10046
212.23        67.01608
212.69        60.69344
213.14        60.66623
213.60        67.51379
214.06        79.27856
214.52        91.92601
214.98        99.39114
215.44        100.0815
215.90        96.12022
216.36        89.74319
216.81         84.0076
217.27        80.37624
217.73        77.94707
218.19        75.93305
218.65        73.18451
219.11        68.93428
219.57        62.59695
220.02        54.61765
220.48         49.3201
220.94        49.08786
221.40         53.3553
221.86        57.16598
222.32        55.16708
222.77         48.2112
223.23        39.50943
223.69        32.70597
224.15        31.62134
224.61        35.55964
225.06        42.41452
225.52        48.99973
225.98        51.31087
226.44        48.69933
226.90        42.99677
227.36        36.40265
227.81           31.85
228.27        30.36911
228.73        30.81882
229.19        32.53518
229.65         34.5154
230.10        36.22104
230.56        37.82738
231.02        39.16153
231.48        39.97433
231.93         40.2855
232.39        40.12715
232.85        39.66764
233.31        39.25338
233.77        38.96595
234.22        38.72214
234.68        38.44819
235.14         37.9302
235.60        37.18686
236.05        36.43026
236.51        35.81313
236.97        35.43596
237.43        35.38938
237.88         35.7608
238.34        36.74955
238.80        38.70603
239.26        41.58878
239.71         45.1962
240.17        48.95231
240.63        52.42885
241.08        55.45363
241.54        57.87287
242.00        59.78259
242.46        61.65776
242.91        64.32915
243.37        69.06959
243.83        82.86417
244.28        131.0762
244.74        193.2408
245.20        168.0539
245.66        140.5769
246.11         132.766
246.57        136.8876
247.03        157.2339
247.48        215.3569
247.94        172.0501
248.40         106.404
248.85        87.73861
249.31        83.21883
249.77        84.40885
250.22        89.28741
250.68        98.48845
251.14        111.3925
251.59        118.3836
252.05        110.8845
252.51        93.99747
252.96        76.90458
253.42        67.59219
253.88        65.26401
254.33        66.90456
254.79        71.57111
255.25        77.28372
255.70        82.41651
256.16        87.22834
256.62        89.81001
257.07        88.18978
257.53        83.44732
257.99        76.41055
258.44        69.42487
258.90        66.12881
259.35        65.61758
259.81         66.4663
260.27        66.40849
260.72        63.26353
261.18        57.85648
261.63        51.25447
262.09        45.31796
262.55        41.55306
263.00        39.86874
263.46        39.50361
263.91        39.36461
264.37        38.53255
264.83         36.8357
265.28        34.53995
265.74        32.30941
266.19        30.91783
266.65        30.57132
267.11        30.82609
267.56        31.09459
268.02        30.67236
268.47        29.44814
268.93         27.6725
269.38        25.70722
269.84        24.39763
270.30        23.97516
270.75        24.20408
271.21        24.64594
271.66        24.64924
272.12        24.04428
272.57        23.05403
273.03        22.02765
273.48        21.40985
273.94        21.31561
274.39        21.53224
274.85        21.80331
275.31        21.76787
275.76        21.33743
276.22        20.66793
276.67        19.91984
277.13        19.39405
277.58        19.11525
278.04         19.0035
278.49        18.90092
278.95        18.62754
279.40        18.13662
279.86        17.55257
280.31        16.95533
280.77        16.55148
281.22        16.34595
281.68        16.27851
282.13        16.27799
282.59        16.26547
283.04        16.21086
283.50        16.16229
283.95        16.08496
284.41        15.93143
284.86        15.70581
285.32         15.4335
285.77        15.21498
286.22        15.25433
286.68        15.55149
287.13        16.01703
287.59         16.4752
288.04        16.66744
288.50        16.55977
288.95        16.22632
289.41        15.82062
289.86         15.4835
290.32        15.31317
290.77        15.25819
291.22        15.32704
291.68        15.49561
292.13        15.76103
292.59        16.13948
293.04        16.63136
293.50        17.22649
293.95          17.901
294.40        18.62133
294.86        19.35192
295.31        20.05716
295.77        20.73701
296.22        21.41189
296.68        22.09019
297.13        22.75479
297.58        23.43048
298.04        24.14005
298.49        24.95398
298.95        26.01974
299.40        27.34697
299.85        28.88451
300.31        30.50013
300.76         31.9845
301.21        33.25575
301.67        34.38949
302.12        35.42035
302.58        36.47967
303.03         37.5901
303.48        38.73202
303.94        39.96401
304.39        41.32955
304.84        42.83306
305.30        44.45742
305.75        46.06275
306.20        47.44573
306.66        48.58479
307.11        49.50398
307.57        50.36749
308.02        51.33212
308.47        52.48466
308.93        53.77999
309.38        55.12832
309.83        56.42696
310.29        57.62469
310.74        58.72177
311.19        59.75736
311.65        60.79543
312.10        61.84124
312.55        62.87959
313.00        63.81524
313.46        64.50189
313.91        64.90448
314.36        65.09306
314.82        65.25108
315.27        65.62213
315.72        66.29088
316.18         67.1894
316.63        68.17934
317.08        68.98856
317.53        69.52954
317.99        69.86027
318.44        70.12621
318.89        70.57211
319.35        71.23615
319.80        72.06001
320.25        72.83339
320.70        73.21445
321.16        73.13767
321.61        72.72706
322.06        72.24199
322.51        72.08684
322.97         72.3425
323.42        72.91747
323.87        73.60612
324.32        74.05122
324.78        74.13686
325.23        74.00528
325.68        73.77841
326.13        73.67635
326.59        73.75642
327.04         73.9716
327.49        74.27805
327.94        74.63329
328.39        75.00887
328.85        75.41033
329.30        75.84794
329.75        76.19559
330.20        76.44236
330.66        76.60159
331.11        76.79765
331.56        77.17203
332.01        77.77031
332.46        78.52998
332.92        79.36987
333.37        80.28551
333.82        81.16206
334.27        82.01097
334.72        82.69951
335.17        83.02113
335.63        82.95792
336.08        82.61013
336.53        82.22427
336.98        82.23663
337.43        82.75319
337.88        83.65253
338.34        84.71238
338.79        85.63583
339.24        86.27539
339.69        86.73797
340.14        87.04493
340.59        87.23713
341.05        87.36118
341.50        87.37824
341.95        87.41498
342.40        87.69286
342.85        88.24901
343.30        89.04013
343.75        89.87589
344.20        90.40441
344.66        90.53835
345.11        90.35586
345.56         90.0509
346.01        89.92319
346.46        90.05271
346.91         90.3541
347.36        90.69497
347.81        90.87168
348.26        90.84257
348.72        90.70123
349.17        90.54243
349.62         90.5695
350.07        90.81779
350.52         91.1955
350.97        91.58229
351.42        91.80478
351.87        91.81897
352.32        91.69218
352.77        91.46737
353.22        91.21152
353.67        90.96213
354.13        90.70876
354.58        90.47293
355.03         90.3476
355.48        90.32925
355.93        90.38416
356.38        90.41013
356.83         90.2387
357.28        89.83289
357.73        89.25132
358.18        88.56892
358.63        87.90801
359.08        87.32196
359.53        86.78835
359.98        86.31297
360.43        85.90153
360.88         85.5363
361.33        85.20329
361.78        84.87502
362.23        84.50182
362.68        84.07057
363.13        83.60559
363.58        83.07764
364.03        82.44376
364.48        81.71568
364.93        80.90938
365.38        80.14594
365.83        79.62218
366.28        79.36237
366.73        79.29249
367.18        79.25332
367.63        78.98007
368.08        78.41588
368.53        77.67014
368.98        76.84204
369.43        76.07889
369.88        75.43586
370.33        74.85682
370.78        74.39232
371.23        74.13098
371.68        74.06658
372.13        74.17864
372.58        74.30502
373.03        74.16328
373.48        73.69719
373.93         72.9972
374.38        72.24292
374.83        71.71495
375.28         71.4772
375.72        71.42412
376.17         71.4695
376.62          71.442
377.07        71.27542
377.52        71.01569
377.97        70.67115
378.42        70.25455
378.87        69.79239
379.32         69.2925
379.77         68.7823
380.22        68.30136
380.67        67.85358
381.11        67.42914
381.56        67.03916
382.01        66.70247
382.46        66.42667
382.91        66.22524
383.36        66.02995
383.81        65.73402
384.26        65.32459
384.71        64.82084
385.15        64.33805
385.60         64.1094
386.05         64.1237
386.50        64.30453
386.95         64.4547
387.40        64.24955
387.85        63.66503
388.29        62.83554
388.74        62.05943
389.19        61.52103
389.64        61.24969
390.09        61.13439
390.54        61.16039
390.98        61.30109
391.43        61.51281
391.88        61.78571
392.33        61.95457
392.78        61.76346
393.23         61.2238
393.67         60.4434
394.12         59.7328
394.57        59.29274
395.02        59.20586
395.47        59.48531
395.91        60.02269
396.36        60.42138
396.81        60.58201
397.26        60.61648
397.71        60.53257
398.15        60.26374
398.60        59.91067
399.05        59.49988
399.50        59.07683
399.95        58.53892
400.39        58.16609
400.84         57.7764
401.29        57.48708
401.74        57.38078
402.18        57.48727
402.63        57.72472
403.08        58.04766
403.53        58.36864
403.97        58.64089
404.42         58.8662
404.87        58.96265
405.32           58.79
405.76        58.34087
406.21        57.74623
406.66        57.17904
407.11        56.82082
407.55         56.7784
408.00         57.1448
408.45        57.73859
408.90        58.03267
409.34        57.87102
409.79        57.38969
410.24        56.82282
410.68         56.5453
411.13        56.63953
411.58        56.92642
412.03        57.30393
412.47        57.64444
412.92        57.83527
413.37        57.94277
413.81        57.95074
414.26        57.86975
414.71        57.70337
415.15        57.43803
415.60        57.15188
416.05        56.99689
416.49        57.01128
416.94        57.17916
417.39         57.3712
417.83        57.34839
418.28        57.07726
418.73        56.63523
419.17        56.22293
419.62        56.16413
420.07        56.48767
420.51        57.07885
420.96        57.70881
421.41        57.96629
421.85        57.73505
422.30        57.31454
422.74        56.82713
423.19        56.35368
423.64        56.02046
424.08        56.21096
424.53        56.79631
424.98         57.1848
425.42        57.28468
425.87        57.48827
426.31        57.79701
426.76        57.83375
427.21        57.73628
427.65        58.04767
428.10        58.68565
428.54        59.27868
428.99        59.79964
429.44        59.97133
429.88        59.84928
430.33          60.591
430.77        61.59414
431.22        60.53244
431.66        58.01093
432.11        57.00508
432.56        57.73627
433.00        58.52539
433.45        59.16365
433.89        60.76099
434.34        62.28502
434.78        62.47425
435.23        60.11387
435.67        58.20987
436.12        60.50636
436.57        61.40696
437.01        61.74796
437.46        61.96585
437.90        62.22402
438.35        61.69691
438.79        62.27848
439.24        62.21236
439.68        62.10609
440.13        61.79272
440.57        61.59462
441.02        62.56799
441.46        64.27444
441.91        65.00906
442.35        64.63464
442.80         63.9024
443.24        63.15091
443.69        63.65534
444.13         65.0769
444.58        64.96104
445.02        63.52429
445.47        63.33556
445.91        64.33523
446.36        64.63262
446.80        64.14704
447.24        64.05916
447.69        64.48872
448.13        64.18478
448.58        64.77531
449.02        65.05841
449.47        65.44253
449.91        65.73385
450.36        65.91186
450.80        66.00581
451.25        66.00636
451.69         65.9018
452.13        65.72695
452.58         65.4975
453.02        65.30512
453.47        65.32768
453.91        65.57012
454.36        65.97872
454.80        66.41428
455.24        66.55897
455.69        66.36107
456.13        66.04118
456.58        65.74165
457.02        65.24831
457.46        64.80369
457.91        65.07137
458.35        65.82836
458.79        66.12875
459.24        65.91398
459.68        65.64205
460.13        65.39028
460.57        65.10358
461.01        64.88009
461.46        64.51468
461.90        63.99063
462.34        64.51571
462.79        64.17202
463.23        64.43398
463.68        64.67931
464.12        64.95831
464.56        65.18762
465.01        65.34164
465.45        65.29897
465.89        65.14732
466.34        64.81618
466.78        63.93354
467.22        62.82902
467.67        62.28824
468.11        63.67426
468.55        64.37788
468.99        64.50807
469.44         64.2607
469.88        63.82102
470.32        63.80566
470.77         64.1469
471.21        64.10896
471.65         63.6641
472.10        63.39631
472.54        63.37467
472.98        63.38967
473.42        63.42993
473.87        63.73842
474.31        64.13284
474.75        63.96833
475.20        63.40784
475.64        63.33463
476.08        63.73017
476.52        63.80702
476.97        63.55116
477.41         63.4958
477.85         63.6475
478.29        63.47685
478.74        63.70463
479.18         63.4564
479.62        62.63277
480.06        63.14981
480.50        63.55119
480.95          63.996
481.39        64.01869
481.83        63.72235
482.27        63.42074
482.72        63.61677
483.16         62.2369
483.60        62.37026
484.04        63.68663
484.48        63.95998
484.93         63.7893
485.37        65.25877
485.81        65.60176
486.25        64.85198
486.69        86.59855
487.14        69.72192
487.58        43.94236
488.02        54.47701
488.46        61.55865
488.90        61.47372
489.34        62.83038
489.79        61.95285
490.23        63.87097
490.67        64.55574
491.11         63.6272
491.55        63.60379
491.99        64.09807
492.43        63.97345
492.88        63.29765
493.32        63.21999
493.76        63.32479
494.20        63.55027
494.64        63.68262
495.08        63.97633
495.52        64.36923
495.96        64.28479
496.41        63.77456
496.85        64.03116
497.29        64.84697
497.73        63.93097
498.17        62.12855
498.61        62.37886
499.05        64.64151
499.49        64.93092
499.93        64.71302
500.37        64.44011
500.82        64.03087
501.26         64.1543
501.70        64.54978
502.14        64.73681
502.58        64.59628
503.02        64.48174
503.46        64.39388
503.90        64.08938
504.34        63.69299
504.78        63.53072
505.22         63.6378
505.66        63.93374
506.10        64.31267
506.54        64.48219
506.98        64.31216
507.42        64.33148
507.86        63.87477
508.30        63.46705
508.74        63.80205
509.18        64.03888
509.62        64.30811
510.06         64.4312
510.50        64.37485
510.94         64.1833
511.38        63.96188
511.82        63.89227
512.26        64.01373
512.70        64.26362
513.14        64.55232
513.58        64.73746
514.02        64.76865
514.46        64.68482
514.90        64.54313
515.34        64.41348
515.78        64.31079
516.22        64.29041
516.66        64.32293
517.10        64.15731
517.54        63.78548
517.98        63.97803
518.42        63.74189
518.86        63.88667
519.30        64.10108
519.74        64.43571
520.18        64.79386
520.62         65.0117
521.06        65.05985
521.50        64.98005
521.93        64.82455
522.37        64.68192
522.81        64.59429
523.25        64.54102
523.69        64.53637
524.13        64.60244
524.57          64.733
525.01        64.91932
525.45        65.11957
525.89        65.26112
526.32        65.31337
526.76        65.29031
527.20        65.20448
527.64        65.09822
528.08        65.00616
528.52         64.8707
528.96        64.68158
529.40         64.6039
529.83         64.6785
530.27        64.20544
530.71        64.46634
531.15         64.4591
531.59         64.5611
532.03        64.71767
532.46        64.93332
532.90        65.18605
533.34        65.43758
533.78        65.68273
534.22          65.853
534.66        65.85803
535.09        65.68079
535.53         65.3776
535.97        65.02598
536.41        64.76918
536.85        64.65302
537.28        64.64994
537.72        64.70578
538.16        64.73788
538.60        64.72283
539.04        64.63924
539.47        64.52591
539.91         64.6128
540.35        64.83706
540.79        64.89853
541.22        64.79811
541.66        64.80284
542.10        64.90855
542.54        64.95441
542.97        64.94174
543.41        64.97504
543.85        65.04378
544.29        65.13462
544.72        65.18645
545.16        65.10806
545.60        64.87785
546.04        64.59867
546.47        64.36855
546.91        64.18085
547.35        64.13985
547.79        64.61246
548.22        65.33633
548.66        65.51559
549.10        65.09173
549.53        64.51115
549.97        64.02338
550.41        63.76477
550.84        63.80991
551.28        64.14471
551.72        64.63412
552.15        64.95534
552.59        65.01462
553.03         65.1436
553.46        64.94315
553.90        64.88007
554.34        64.85767
554.77        64.77675
555.21        64.63294
555.65        64.63527
556.08        64.82114
556.52        64.36849
556.96        64.75401
557.39        64.62953
557.83        64.48795
558.27        64.46699
558.70        64.58092
559.14        64.65907
559.57        64.70387
560.01        64.88976
560.45         65.1438
560.88        65.32318
561.32        65.36083
561.75        65.05629
562.19        64.57351
562.63        64.24054
563.06        64.16023
563.50        64.31361
563.93        64.59769
564.37        64.90997
564.80        65.09874
565.24        64.98061
565.68        64.64408
566.11        64.47288
566.55        64.54204
566.98        64.61536
567.42        64.66634
567.85        64.74173
568.29        64.87195
568.72        64.86682
569.16        64.86808
569.60        65.21564
570.03        65.61282
570.47        65.45551
570.90        64.99976
571.34         63.6641
571.77        64.46286
572.21        64.34293
572.64         63.8777
573.08        63.10977
573.51        60.19886
573.95        62.53867
574.38        66.45609
574.82        64.79899
575.25        64.29869
575.69        62.10428
576.12        61.31279
576.56        60.63676
576.99        61.92381
577.42        65.00803
577.86        64.67507
578.29        64.06881
578.73        67.29517
579.16        62.07211
579.60        57.04105
580.03        59.74215
580.47        63.56937
580.90        64.95235
581.33        63.62355
581.77        62.93248
582.20        69.15829
582.64         68.1349
583.07          58.668
583.51        57.71174
583.94        56.88756
584.37         59.7192
584.81        62.46033
585.24        65.50962
585.68        66.66921
586.11        65.82656
586.54        61.10254
586.98         59.2883
587.41        59.76245
587.85        63.31139
588.28        65.38908
588.71        62.02627
589.15        60.38586
589.58         61.7608
590.01        62.03608
590.45        63.23173
590.88        63.70638
591.31        63.05531
591.75        62.66766
592.18        62.63417
592.61        63.75277
593.05        64.65757
593.48        67.13937
593.91        67.66709
594.35        62.08279
594.78        60.87937
595.21        60.72105
595.65        63.50547
596.08        65.87112
596.51        63.32952
596.94        61.64768
597.38        62.31459
597.81        64.83362
598.24        66.27556
598.68        64.88284
599.11        63.88916
599.54        66.18376
599.97        67.46592
600.41        62.86499
600.84        63.01423
601.27         64.3259
601.70        63.38831
602.14        63.46313
602.57        62.58057
603.00        63.10093
603.43        64.58414
603.87        66.06406
604.30        65.67206
604.73        63.76638
605.16        62.50224
605.60         63.2894
606.03        64.23181
606.46        65.15559
606.89        64.70109
607.32        62.81316
607.76        63.19076
608.19        64.91134
608.62         64.1559
609.05         63.1349
609.48        63.53329
609.92        63.25019
610.35        62.96213
610.78        64.95323
611.21        65.64604
611.64         62.7077
612.07        63.36497
612.50        63.74667
612.94        64.20604
613.37        63.79359
613.80        63.83503
614.23        64.36884
614.66        64.28455
615.09        64.47485
615.52        64.42908
615.96        64.28481
616.39        64.18647
616.82        63.09607
617.25        63.08553
617.68        63.87006
618.11        64.53131
618.54         64.8186
618.97        64.44717
619.40        63.72797
619.84        63.71573
620.27        64.40631
620.70        64.96218
621.13        65.20921
621.56         64.8904
621.99        64.22733
622.42        64.83669
622.85        66.27608
623.28        66.01151
623.71        65.45238
624.14        65.29356
624.57        65.32552
625.00         64.9221
625.43        65.11496
625.86        64.47896
626.29        64.63925
626.72        64.82532
627.15        64.70692
627.58        64.84001
628.01        64.99107
628.44        65.18796
628.87        65.28625
629.30        65.52929
629.73        65.79741
630.16        65.82688
630.59        65.58191
631.02        65.24378
631.45        64.94823
631.88        64.68705
632.31        64.46688
632.74         64.9854
633.17        64.89201
633.60        65.07052
634.03        65.09873
634.46        65.05591
634.89        64.96948
635.32        64.91084
635.75        64.91424
636.18        64.93298
636.61        64.97334
637.04        65.05201
637.47        65.15942
637.89        65.30549
638.32         65.4259
638.75        65.43996
639.18        65.33139
639.61        65.18712
640.04         64.9588
640.47        64.80812
640.90        64.73457
641.33        64.71426
641.76        64.71576
642.18        64.78034
642.61        64.89378
643.04        64.89865
643.47        64.74324
643.90        65.18631
644.33        64.87848
644.76        64.90838
645.18        64.88039
645.61        64.82635
646.04        64.74264
646.47        64.62174
646.90        64.53284
647.33        64.55961
647.75        64.73499
648.18        65.00602
648.61        65.21478
649.04        65.28339
649.47        65.10861
649.89        64.28046
650.32        63.24404
650.75        63.15132
651.18         63.9779
651.61        64.80614
652.03        65.23559
652.46        65.22173
652.89        65.10639
653.32        64.47937
653.74        63.62799
654.17        65.03939
654.60        65.98025
655.03        62.90582
655.46        64.35443
655.88        68.01411
656.31        71.93023
656.74        157.1863
657.16        101.3161
657.59        35.87316
658.02         27.7886
658.45        48.41505
658.87        61.90866
659.30        65.40974
659.73        64.44133
660.15        62.17879
660.58        64.44292
661.01        66.14284
661.44        64.27484
661.86        63.60163
662.29        63.43706
662.72        64.05542
663.14        65.23936
663.57           65.15
664.00        64.03672
664.42        63.80063
664.85        64.51411
665.27        64.98939
665.70        65.01962
666.13        64.93896
666.55        64.72236
666.98        64.27334
667.41        63.77529
667.83        63.57639
668.26        63.75233
668.69        64.16803
669.11        64.59615
669.54        64.98895
669.96        64.66337
670.39        64.20996
670.82        63.66822
671.24        63.43538
671.67        63.61213
672.09        64.02225
672.52        64.39897
672.94        64.82133
673.37        64.17201
673.80        63.93307
674.22        63.87046
674.65         63.8245
675.07        63.79652
675.50         63.7821
675.92         63.7883
676.35        63.85688
676.77         63.9826
677.20        64.08218
677.62        64.15592
678.05        64.21272
678.47        64.24135
678.90        64.24981
679.32         64.2506
679.75        64.14635
680.17         64.1967
680.60        64.20036
681.02         64.1935
681.45        64.09134
681.87        63.89905
682.30        63.63289
682.72        63.39543
683.15         63.3742
683.57        63.60967
684.00        63.93707
684.42        64.39233
684.85        64.58294
685.27         64.4994
685.70        64.22333
686.12         63.8735
686.54        63.67956
686.97        63.68435
687.39        63.83244
687.82        64.02068
688.24         64.1274
688.66        64.09436
689.09        63.97254
689.51        63.83749
689.94         63.7806
690.36        63.83773
690.78        63.97013
691.21        64.12514
691.63        64.23076
692.06        64.26309
692.48        64.24212
692.90        64.21527
693.33        64.24314
693.75        64.34701
694.17        64.51822
694.60        64.68485
695.02        64.76134
695.44        64.70262
695.87        64.55389
696.29        64.43322
696.71        64.35863
697.14        64.37936
697.56        64.81087
697.98        65.44478
698.41        65.14128
698.83        64.58952
699.25        64.17767
699.68        64.16032
700.10        64.08666
700.52        63.97959
700.94        64.13071
701.37        64.47563
701.79        64.81588
702.21        65.06515
702.64        65.29094
703.06        65.41648
703.48         65.3065
703.90        64.97169
704.33        64.46245
704.75        63.92772
705.17        63.68974
705.59        63.82804
706.01         64.1478
706.44        64.49809
706.86        65.18401
707.28        65.25921
707.70        65.44706
708.12        65.49363
708.55        65.41893
708.97        65.22365
709.39        64.90701
709.81         64.5843
710.23        64.44941
710.66        64.54985
711.08         64.8662
711.50        65.22096
711.92        65.33557
712.34        65.14964
712.76        64.73669
713.19        64.28677
713.61        64.13886
714.03        64.35706
714.45        64.83225
714.87        65.34708
715.29         65.5592
715.71         65.3894
716.13        64.95328
716.56        64.43461
716.98        64.15439
717.40        64.19435
717.82        64.45344
718.24        64.80201
718.66        65.02282
719.08         65.0488
719.50        64.95441
719.92        64.79877
720.34        64.69011
720.76        64.66608
721.19        64.57699
721.61        64.62732
722.03        64.70074
722.45        64.84611
722.87        65.05836
723.29        65.27847
723.71        65.39742
724.13        65.38625
724.55        65.27223
724.97        65.13947
725.39        65.07878
725.81        65.11005
726.23        65.29855
726.65        65.59478
727.07         65.4077
727.49         65.5269
727.91        65.34421
728.33        65.17089
728.75        65.10185
729.17        65.16989
729.59        65.31715
730.01        65.49111
730.43        65.62536
730.85        65.69678
731.27        65.75723
731.69         65.7812
732.10        65.70414
732.52         65.5277
732.94         65.3066
733.36        65.16182
733.78        65.16408
734.20        65.32902
734.62        65.90862
735.04        66.69334
735.46        66.65864
735.88        66.02335
736.30        66.28531
736.72        67.39058
737.13        67.82242
737.55        67.36552
737.97        67.26295
738.39        67.53922
738.81        66.91578
739.23         65.8049
739.65        66.44341
740.06        68.37366
740.48        68.60435
740.90        67.26087
741.32        66.23911
741.74        66.93774
742.16        67.14115
742.57        67.23347
742.99        67.89692
743.41        68.91058
743.83        69.48212
744.25        69.46738
744.67         69.0829
745.08        68.58582
745.50        68.40206
745.92        68.65575
746.34        69.19102
746.75        69.81414
747.17        70.20065
747.59        70.28476
748.01        70.17881
748.42        70.03428
748.84        70.11957
749.26         70.5109
749.68        70.95296
750.09        71.37177
750.51        71.99298
750.93        72.60941
751.35        72.44623
751.76        71.68336
752.18        71.42451
752.60        71.67991
753.01         71.6262
753.43        71.30991
753.85        71.37965
754.27         71.8708
754.68        72.51558
755.10        73.14594
755.52        73.63149
755.93        73.88545
756.35        73.90674
756.77        73.81585
757.18        73.68964
757.60        73.56757
758.02        73.75358
758.43        74.05476
758.85        73.44708
759.26        72.32283
759.68         72.3593
760.10        73.35537
760.51         73.8271
760.93        73.62747
761.34        72.18652
761.76        72.42098
762.18        71.92007
762.59        71.66619
763.01        71.98079
763.42        72.85798
763.84        73.53453
764.26        73.87652
764.67        74.19658
765.09        74.38357
765.50        74.21503
765.92         73.6882
766.33        72.53619
766.75        71.22039
767.16        70.83295
767.58        71.49388
768.00        72.83375
768.41        74.47714
768.83        75.52087
769.24        75.57198
769.66        74.91701
770.07        73.97425
770.49        72.80178
770.90        71.77814
771.32         72.6177
771.73        74.69701
772.15        74.24551
772.56        71.69136
772.97        71.10178
773.39        72.43459
773.80        72.87029
774.22        72.24727
774.63        72.30148
775.05         72.9554
775.46        73.33189
775.88        73.30972
776.29        73.13719
776.70         72.9072
777.12        72.79647
777.53        72.86963
777.95        73.02348
778.36        73.14559
778.77        73.04729
779.19        72.73042
779.60        72.25886
780.02        71.83179
780.43         71.8186
780.84         72.3228
781.26        72.86555
781.67        73.33449
782.09        74.28036
782.50        75.23534
782.91        74.25817
783.33        72.02118
783.74        71.27529
784.15        72.18108
784.57        72.95402
784.98        73.25386
785.39        73.42066
785.81         73.3451
786.22        72.79734
786.63        72.12315
787.04        71.97388
787.46        72.43201
787.87        73.28676
788.28        74.21776
788.70        74.68383
789.11        74.54784
789.52        74.00385
789.93        73.32728
790.35        72.89427
790.76         72.8191
791.17         73.0336
791.58         73.3907
792.00         73.6058
792.41         73.5901
792.82        73.42883
793.23        73.30921
793.65        73.21075
794.06        73.26006
794.47        74.16491
794.88        75.31001
795.29        74.70502
795.71        72.59815
796.12        70.75903
796.53        69.74818
796.94        69.38177
797.35        69.79819
797.76        71.19005
798.18        72.93273
798.59         73.9573
799.00        73.88718
799.41         72.9273
799.82        71.58769
800.23        70.77772
800.64        70.72876
801.06        71.09116
801.47        71.71817
801.88        72.25869
802.29        72.56685
802.70        72.79402
803.11        72.92567
803.52        72.90327
803.93        72.74014
804.34        72.39365
804.75         72.0355
805.17         71.9776
805.58        72.30325
805.99        72.89208
806.40        73.46185
806.81        73.62585
807.22        73.22682
807.63         72.1886
808.04        70.93474
808.45        70.31841
808.86        70.48608
809.27        71.11848
809.68        71.90928
810.09        72.36396
810.50        72.30166
810.91        71.89405
811.32         71.3478
811.73        70.99403
812.14        70.92995
812.55        71.00111
812.96        71.18706
813.37        71.45826
813.78        71.76186
814.19        72.15457
814.60        72.42046
815.01        72.21484
815.42        71.51083
815.83        70.37896
816.24        69.25274
816.65        68.89839
817.05        69.53719
817.46        70.91798
817.87        72.48451
818.28        73.23244
818.69        72.88229
819.10        71.68488
819.51        70.23591
819.92        69.55301
820.33         69.9044
820.74        70.97002
821.14        72.21111
821.55        72.66206
821.96        72.11955
822.37        70.93994
822.78        69.59185
823.19        68.74924
823.60        68.60275
824.00        68.97375
824.41        69.59158
824.82        70.11055
825.23         70.3512
825.64        70.43571
826.04        70.41307
826.45        70.33812
826.86        70.23951
827.27        70.05723
827.68        69.82238
828.08        69.64453
828.49        69.50275
828.90         69.4426
829.31        69.41654
829.72        69.31785
830.12        69.15129
830.53        68.93075
830.94        68.78236
831.35        68.86183
831.75        69.23161
832.16        69.78632
832.57        70.41387
832.97        70.85809
833.38        70.97562
833.79         70.8295
834.20        70.58711
834.60        70.50706
835.01        70.67039
835.42        70.98855
835.82        71.28621
836.23         71.1935
836.64        70.67835
837.04        69.89667
837.45        69.09725
837.86        68.67275
838.26        68.72604
838.67        69.09526
839.08        69.64011
839.48        70.09434
839.89         70.3115
840.29        70.38293
840.70        70.27408
841.11        69.91711
841.51        69.35345
841.92        68.59112
842.33        67.84635
842.73        67.49598
843.14        67.59121
843.54        68.06228
843.95        68.65954
844.35        69.00585
844.76        68.97188
845.17        68.68775
845.57         68.2784
845.98        67.94644
846.38        67.75995
846.79        67.61581
847.19        67.55048
847.60        67.56319
848.00        67.67303
848.41        67.87269
848.81        68.07904
849.22        68.07441
849.62        67.87352
850.03        67.52835
850.43         67.2244
850.84        67.24805
851.24        67.70222
851.65        68.32509
852.05        69.07343
852.46        69.70493
852.86        70.13372
853.27        70.48396
853.67        70.41196
854.07        69.50021
854.48        67.84982
854.88        65.62322
855.29        63.60403
855.69         62.9378
856.10        63.83173
856.50        66.15398
856.90        69.12519
857.31        70.90227
857.71        70.87373
858.12        69.48904
858.52        67.62704
858.92        66.45099
859.33        66.23351
859.73        66.66063
860.13        67.51425
860.54        68.33925
860.94        68.96602
861.34        69.50757
861.75        69.97202
862.15        70.44268
862.55        70.90355
862.96        71.29461
863.36        71.54174
863.76        71.53654
864.17        71.28204
864.57        70.87721
864.97        70.55863
865.38        70.66882
865.78        71.29953
866.18        72.26819
866.58        73.28465
866.99        73.84099
867.39        73.83109
867.79        73.41283
868.19         72.6702
868.60        71.78033
869.00        70.89411
869.40        69.99737
869.80         69.4828
870.21        69.92007
870.61        71.44538
871.01        73.88618
871.41        76.52151
871.81         78.0936
872.22        78.28173
872.62        77.40536
873.02        76.14883
873.42        75.87296
873.82        76.62917
874.22        77.51582
874.63        78.33519
875.03        78.73051
875.43        78.43632
875.83        78.82691
876.23        77.31944
876.63        76.44836
877.03         75.8848
877.44        75.70721
877.84        107.1681
878.24        81.73121
878.64        82.79623
879.04        84.67131
879.44        79.44048
879.84        76.70042
880.24        82.39143
880.64        84.42123
881.04        83.97644
881.44        83.31974
881.84        82.47491
882.24         81.3715
882.65        80.65545
883.05        80.69912
883.45         81.5694
883.85        83.50519
884.25        85.88152
884.65        87.21995
885.05         87.0904
885.45        85.95808
885.85        84.53819
886.25        83.83195
886.65        84.07376
887.05        84.94644
887.45        86.10348
887.85         86.9302
888.25         87.1833
888.65        87.07439
889.04        86.76643
889.44        86.53886
889.84        86.45811
890.24        86.38969
890.64        86.28741
891.04        86.11462
891.44        85.84972
891.84        85.54891
892.24        85.19379
892.64        84.72601
893.04        84.21381
893.44        83.76005
893.83        83.46603
894.23        83.47335
894.63        83.78051
895.03        84.26527
895.43        84.96597
895.83        85.92846
896.23         87.0543
896.63        88.29983
897.02        89.17712
897.42         88.9276
897.82        87.51223
898.22        85.26766
898.62        83.00934
899.01        81.92765
899.41        82.27085
899.81        83.60643
900.21         85.3835
900.61        86.68891
901.00        87.20039
901.40        87.20235
901.80        86.82591
902.20        86.27418
902.59        85.67043
902.99        84.92061
903.39         84.1907
903.79        83.80273
904.18        83.84574
904.58         84.3276
904.98        85.03912
905.38        85.62057
905.77        85.94163
906.17        86.03898
906.57        86.06135
906.96        86.29411
907.36         86.7122
907.76        87.24161
908.15        87.60368
908.55        87.25266
908.95        86.16104
909.34        84.48653
909.74        82.80183
910.14        81.81057
910.53        81.71807
910.93        82.40304
911.33        83.47549
911.72        84.23028
912.12        84.37492
912.52        84.09761
912.91         83.7868
913.31        83.91845
913.70        84.63524
914.10        85.82645
914.49        87.06831
914.89        87.31305
915.29        86.22687
915.68        84.20796
916.08        82.30084
916.47         81.4844
916.87        81.85214
917.26        83.10743
917.66        84.51082
918.05        84.89204
918.45        83.97666
918.84        82.21677
919.24        80.43126
919.64        79.79918
920.03        80.60875
920.42         82.4495
920.82        84.70274
921.21         86.4035
921.61        87.00383
922.00        86.82983
922.40        86.02845
922.79        84.83607
923.19        83.49391
923.58        81.74226
923.98        79.68166
924.37        78.50501
924.77        78.83289
925.16        76.20725
925.55        78.54546
925.95        79.61603
926.34        81.64164
926.74        84.09328
927.13        86.41731
927.52        87.38691
927.92        86.84246
928.31        85.21466
928.70        83.04864
929.10        81.31849
929.49        80.30675
929.89        79.76858
930.28         79.8788
930.67        80.91398
931.07        82.66657
931.46        85.12097
931.85        87.32329
932.24        87.83232
932.64        86.41064
933.03        83.26923
933.42        79.34736
933.82        76.76626
934.21         76.1779
934.60        77.02703
934.99        78.25348
935.39        78.80415
935.78        78.51019
936.17        77.02461
936.56        74.16366
936.96        75.57346
937.35        74.00031
937.74        75.14804
938.13        76.31208
938.53        77.62647
938.92        79.14358
939.31        81.05972
939.70        82.97668
940.09        83.54224
940.49        82.38947
940.88        80.11626
941.27        77.72715
941.66        76.40823
942.05        76.30124
942.44        76.98215
942.84        78.17966
943.23        79.46406
943.62        80.49835
944.01        81.42203
944.40        81.90081
944.79        81.38903
945.18        79.77845
945.57        77.02623
945.97        73.83307
946.36        72.00027
946.75        72.26912
947.14        73.95036
947.53        75.96086
947.92        77.19395
948.31        77.54671
948.70        77.39479
949.09        76.92027
949.48        76.51463
949.87        76.37442
950.26        76.26079
950.65        76.25213
951.04        76.52676
951.43        77.05961
951.82         77.8586
952.21        78.49979
952.60        78.26319
952.99        77.04008
953.38        75.05916
953.77        72.97392
954.16         71.7375
954.55        71.56344
954.94        72.27835
955.33        73.23377
955.72        73.32268
956.11        72.28654
956.50        70.39656
956.89        68.59632
957.28        68.59512
957.66        70.86304
958.05        74.57935
958.44        78.40961
958.83        80.40237
959.22        80.11323
959.61        78.10252
960.00        75.33967
960.39        73.42146
960.78        72.85746
961.16        73.22557
961.55        73.92461
961.94        73.90259
962.33        72.89625
962.72        71.39242
963.11        69.93414
963.49        69.16099
963.88        69.18923
964.27        69.82602
964.66        70.75401
965.04        71.35091
965.43        71.28917
965.82        70.81134
966.21        70.31232
966.60        70.32484
966.98        70.94272
967.37        71.91413
967.76        72.91364
968.15        73.31547
968.53        72.92798
968.92        71.97223
969.31        70.76925
969.69        69.68404
970.08        68.84197
970.47         68.1857
970.86        67.66286
971.24        67.19426
971.63        66.77664
972.02        66.42564
972.40         66.3237
972.79        66.75958
973.17        67.83907
973.56        69.38797
973.95        70.89468
974.33        71.41425
974.72        70.64468
975.11        68.88838
975.49        67.02692
975.88        66.27039
976.26         66.7921
976.65        68.40934
977.04        70.26147
977.42        70.27596
977.81         67.8326
978.19        63.76948
978.58        60.15296
978.96        59.10448
979.35        60.92287
979.74        65.20273
980.12        70.80286
980.51        74.04326
980.89         73.7785
981.28        71.06994
981.66        67.78694
982.05        66.27726
982.43        66.86575
982.82        68.57742
983.20        70.83866
983.59        72.91342
983.97        74.60191
984.35        76.26981
984.74         77.3868
985.12        77.04236
985.51         74.7952
985.89         70.7158
986.28        66.14384
986.66        63.18118
987.04         62.5451
987.43        63.66702
987.81        65.21454
988.20        65.44444
988.58        63.85357
988.96         60.2681
989.35        55.20648
989.73        52.32802
990.12        54.56966
990.50        60.46495
990.88        66.10318
991.27        68.45109
991.65        67.94746
992.03        65.52191
992.42        62.66172
992.80        61.68797
993.18        63.29752
993.56        66.02026
993.95        68.74798
994.33        70.83303
994.71        71.96125
995.10        72.69684
995.48        72.77274
995.86        71.50271
996.24        68.78045
996.63        64.43719
997.01        59.51174
997.39        57.36495
997.77        59.44747
998.15        65.00072
998.54        70.95953
998.92        73.15931
999.30        70.33726
999.68        63.56376
1000.06        54.67966
1000.45         48.2467
1000.83        46.17714
1001.21        47.02179
1001.59        49.44433
1001.97        52.05925
1002.35        54.45108
1002.73        57.41949
1003.12        60.12943
1003.50        59.75036
1003.88        55.48219
1004.26        48.98318
1004.64        42.93089
1005.02        39.35582
1005.40        38.24086
1005.78        39.14585
1006.16        43.33912
1006.54        51.17626
1006.92        58.59944
1007.30        63.25174
1007.69        65.16109
1008.07        65.48966
1008.45        64.42264
1008.83        60.71082
1009.21         48.8399
1009.59        9.875958
1009.97       -92.14333
1010.35       -223.3371
1010.73       -188.0318
1011.11       -96.32063
1011.49       -33.17312
1011.86        9.800603
1012.24        34.23204
1012.62        45.90419
1013.00        50.34023
1013.38        50.32183
1013.76        47.64082
1014.14        47.40089
1014.52        53.48061
1014.90        65.65308
1015.28        79.37298
1015.66        82.40078
1016.04        68.40867
1016.41         42.9433
1016.79        19.76258
1017.17        10.06061
1017.55        11.34282
1017.93        16.24673
1018.31        21.58729
1018.69        26.42314
1019.06        31.00691
1019.44        35.81458
1019.82        41.27249
1020.20         44.7473
1020.58        40.89233
1020.95        21.74395
1021.33       -52.67885
1021.71         1292.49
1022.09         222.009
1022.46        169.9408
1022.84        156.7998
1023.22        158.1984
1023.60        177.1922
1023.97         391.293
1024.35        26.57724
1024.73         68.7287
