SpectraSmart Spectrum 2.9.0.0
--------- Device Information -----------
Spectrum Name :  反射率_0
Saving Time :  2024/04/26 01:26:14
Spectro-Module Model Name : SE2030-DUVN
Spectro-Module Serial Number : OS361AC55029948
Wavelength Start : 200
Wavelength End : 1025
Wavelength Unit : Wavelength(nm)
Spectrum Unit : Reflectance(%)
-----------Spectrum Setting ------------
Integration Time : 20ms
Average : 10
Boxcar : 0
Background removal :  enabled
linearity correction :  enabled
SC :  disabled
Intensity correction :  disabled
DWT denoise :  enabled
savitzky-golay :  disabled
FFT :  disabled
Running average :  disabled
Kalman :  disabled
High pass :  disabled
---------------BEGIN--------------------
Wavelength(nm)             Reflectance(%)
200.29               0
200.75        95.62457
201.21        90.19842
201.67        83.09923
202.13        77.51331
202.58        73.95163
203.04        72.00127
203.50        71.14539
203.96        70.62925
204.42        70.20837
204.88        70.10808
205.34          70.312
205.80        70.80956
206.26        71.78588
206.72        73.75795
207.18        77.36481
207.64        80.51166
208.10          78.291
208.55        73.25797
209.01        70.10483
209.47        69.44754
209.93        70.29307
210.39        72.44298
210.85        74.21518
211.31        72.15178
211.77         65.7288
212.23        56.44589
212.69        48.10297
213.14        46.55758
213.60         52.5689
214.06        64.62301
214.52        78.37744
214.98        87.04403
215.44        88.76907
215.90        85.45687
216.36        80.08376
216.81        76.82109
217.27        76.82885
217.73        78.60124
218.19         79.8998
218.65        77.70731
219.11        70.88869
219.57        58.81053
220.02        43.05767
220.48        33.19483
220.94        34.99028
221.40         45.9987
221.86        57.42463
222.32        59.97596
222.77        54.22567
223.23        44.98424
223.69        36.77485
224.15        34.11925
224.61        36.65057
225.06        42.22622
225.52        47.73922
225.98        49.42181
226.44        46.72057
226.90        41.35219
227.36         35.8348
227.81        33.53029
228.27         35.2596
228.73        39.48912
229.19        44.35262
229.65        47.13131
230.10        47.30091
230.56        46.07093
231.02        44.46108
231.48        43.55728
231.93        43.52584
232.39        43.92196
232.85        44.53375
233.31        45.15689
233.77         45.6755
234.22        46.20717
234.68        46.67033
235.14        46.76843
235.60        46.47235
236.05        45.90656
236.51        45.28193
236.97        44.88158
237.43        44.84286
237.88        45.22486
238.34        46.21764
238.80        48.20219
239.26        51.14796
239.71        54.96111
240.17        58.83032
240.63        61.94042
241.08        64.06734
241.54        65.13557
242.00        65.73413
242.46        66.98724
242.91        69.99194
243.37        76.63097
243.83        95.62309
244.28        151.5921
244.74        204.5126
245.20        162.6882
245.66         130.344
246.11        121.1816
246.57        124.4818
247.03        143.6427
247.48        202.4826
247.94        171.9892
248.40         108.596
248.85        89.32859
249.31        83.90698
249.77        83.77271
250.22        86.70205
250.68         92.6883
251.14        101.4651
251.59        107.0427
252.05        103.6894
252.51        94.43946
252.96        84.40667
253.42        78.55429
253.88        76.52779
254.33        76.58364
254.79        78.99947
255.25         83.4985
255.70        88.78941
256.16        94.36739
256.62        98.24989
257.07        98.44005
257.53        95.84594
257.99        91.20661
258.44        86.06982
258.90        83.27924
259.35        82.04922
259.81        81.55861
260.27        80.35067
260.72        77.00779
261.18        72.24581
261.63        66.62913
262.09        61.41801
262.55        57.34405
263.00        54.43552
263.46        52.48049
263.91        50.89017
264.37        49.33564
264.83        47.57858
265.28        45.61922
265.74        43.77647
266.19        42.27807
266.65        41.32625
267.11        40.73631
267.56        40.20744
268.02        39.36832
268.47        38.10511
268.93        36.55308
269.38        34.91015
269.84        33.74691
270.30        33.21039
270.75        33.14434
271.21        33.26396
271.66        33.13923
272.12        32.64292
272.57        31.90566
273.03         31.1202
273.48        30.49223
273.94        30.10858
274.39        29.84821
274.85        29.62559
275.31        29.30992
275.76        28.85558
276.22        28.34022
276.67        27.79814
277.13        27.36674
277.58        27.02493
278.04        26.76919
278.49        26.49634
278.95        26.12546
279.40        25.61461
279.86        25.04917
280.31         24.4741
280.77        24.06948
281.22        23.82085
281.68        23.69882
282.13        23.61496
282.59        23.47898
283.04        23.26467
283.50        23.04305
283.95        22.81843
284.41        22.61766
284.86        22.44786
285.32        22.30401
285.77        22.24338
286.22        22.41492
286.68        22.79574
287.13        23.30182
287.59        23.74759
288.04        23.84923
288.50        23.58743
288.95          23.044
289.41        22.42435
289.86        21.93258
290.32        21.68947
290.77         21.6268
291.22        21.72508
291.68        21.91067
292.13        22.16627
292.59         22.5268
293.04        23.01687
293.50        23.66667
293.95        24.45882
294.40        25.34602
294.86        26.26514
295.31        27.13796
295.77        27.95753
296.22        28.75507
296.68        29.56882
297.13        30.42874
297.58        31.36324
298.04        32.37295
298.49        33.48762
298.95        34.80131
299.40        36.30949
299.85        37.98145
300.31        39.70725
300.76        41.30902
301.21        42.71549
301.67         43.9939
302.12        45.16891
302.58        46.37921
303.03        47.63419
303.48        48.91474
303.94        50.27186
304.39        51.72539
304.84        53.27999
305.30        54.93045
305.75        56.53092
306.20        57.87915
306.66        58.96426
307.11        59.80586
307.57        60.60397
308.02        61.54988
308.47        62.73639
308.93        64.10345
309.38        65.51159
309.83        66.78953
310.29        67.87009
310.74        68.76678
311.19        69.56477
311.65        70.39458
312.10        71.27949
312.55        72.19945
313.00        73.01846
313.46        73.52615
313.91        73.68262
314.36        73.58263
314.82        73.49294
315.27        73.77119
315.72         74.5174
316.18        75.62269
316.63        76.83384
317.08        77.69078
317.53        78.06149
317.99        78.05737
318.44        77.94697
318.89        78.17297
319.35         78.8197
319.80         79.7726
320.25        80.71262
320.70        81.11572
321.16        80.86894
321.61        80.16086
322.06        79.34739
322.51        78.97525
322.97          79.161
323.42        79.77144
323.87        80.53533
324.32        80.98786
324.78        80.98159
325.23        80.69878
325.68        80.31609
326.13        80.14178
326.59        80.25088
327.04        80.56026
327.49        80.97472
327.94        81.37372
328.39        81.70158
328.85        81.98629
329.30        82.26205
329.75        82.43394
330.20        82.51428
330.66         82.5135
331.11        82.57467
331.56        82.86248
332.01         83.4275
332.46        84.20656
332.92        85.09859
333.37        86.07168
333.82        86.98801
334.27        87.85297
334.72        88.53543
335.17        88.83891
335.63        88.74684
336.08        88.36168
336.53        87.90961
336.98        87.79765
337.43        88.13682
337.88        88.82444
338.34        89.69389
338.79        90.54118
339.24         91.2362
339.69        91.85404
340.14        92.35503
340.59        92.67072
341.05        92.80898
341.50        92.75928
341.95        92.67012
342.40         92.7979
342.85        93.19601
343.30        93.80859
343.75        94.47176
344.20        94.88405
344.66        94.97511
345.11        94.82221
345.56        94.57898
346.01         94.4766
346.46        94.58046
346.91        94.81995
347.36        95.11198
347.81        95.33025
348.26        95.44807
348.72        95.53738
349.17        95.62326
349.62        95.79478
350.07        96.06118
350.52        96.35978
350.97        96.66077
351.42        96.93329
351.87        97.15326
352.32        97.33257
352.77        97.40637
353.22        97.27309
353.67        96.93468
354.13        96.44598
354.58        95.92065
355.03        95.59476
355.48        95.51488
355.93        95.61311
356.38        95.75003
356.83          95.698
357.28        95.39294
357.73        94.90104
358.18        94.31444
358.63        93.77844
359.08        93.34297
359.53        92.97252
359.98        92.61188
360.43        92.17922
360.88         91.6523
361.33         91.0507
361.78        90.45503
362.23        89.98965
362.68        89.67503
363.13        89.47684
363.58        89.25244
364.03        88.77734
364.48        88.01862
364.93        87.05415
365.38        86.07515
365.83        85.39171
366.28        85.06911
366.73        84.99442
367.18        84.99675
367.63        84.79755
368.08        84.31815
368.53        83.66462
368.98        82.90894
369.43        82.14996
369.88        81.43666
370.33        80.73666
370.78        80.10437
371.23        79.64132
371.68        79.36032
372.13         79.2374
372.58        79.18939
373.03         79.0598
373.48        78.80507
373.93        78.47577
374.38         78.1008
374.83        77.72903
375.28        77.37906
375.72        77.00803
376.17        76.67953
376.62          76.477
377.07        76.39571
377.52        76.39703
377.97        76.35638
378.42         76.0722
378.87        75.52282
379.32        74.80798
379.77        74.04416
380.22        73.39225
380.67         72.8924
381.11        72.48725
381.56        72.17903
382.01        71.97768
382.46        71.86993
382.91        71.87018
383.36        71.85892
383.81        71.64268
384.26        71.19493
384.71        70.56096
385.15        69.91238
385.60        69.57764
386.05        69.56529
386.50         69.7691
386.95        69.97186
387.40        69.81052
387.85        69.24333
388.29        68.41856
388.74        67.62964
389.19        67.02761
389.64          66.647
390.09         66.3884
390.54        66.27522
390.98        66.34816
391.43        66.56572
391.88        66.89195
392.33        67.14994
392.78        66.93772
393.23        66.23781
393.67        65.48006
394.12        64.96069
394.57        63.88273
395.02        63.51293
395.47        63.82893
395.91        64.94795
396.36        65.58418
396.81         65.5662
397.26        65.49313
397.71        65.39159
398.15        65.00614
398.60        64.45622
399.05        63.89763
399.50        63.39738
399.95        62.69559
400.39        62.17933
400.84        62.03799
401.29        62.26443
401.74        62.33049
402.18        62.18553
402.63        62.05646
403.08        62.03595
403.53        62.13615
403.97        62.36217
404.42        62.67668
404.87        62.93684
405.32        62.89916
405.76        62.51985
406.21        61.96032
406.66        61.38865
407.11        61.02601
407.55        60.97654
408.00        61.18488
408.45        61.54021
408.90        61.87531
409.34        61.98666
409.79        61.57832
410.24        60.84227
410.68        60.40582
411.13        60.35171
411.58        60.33143
412.03         60.3565
412.47        60.60763
412.92        61.02035
413.37        61.54973
413.81        62.02696
414.26        62.23461
414.71        62.11198
415.15         61.7166
415.60        61.19255
416.05        60.79849
416.49        60.62031
416.94        60.61253
417.39         60.6627
417.83        60.55946
418.28        60.27665
418.73        59.90514
419.17        59.60458
419.62        59.62708
420.07        59.97683
420.51        60.54566
420.96        61.15136
421.41        61.42273
421.85        61.24751
422.30        61.02589
422.74        60.77884
423.19        60.19879
423.64        59.51267
424.08        59.71684
424.53        60.67608
424.98         61.1871
425.42        61.10704
425.87        61.33151
426.31        61.80928
426.76        61.56079
427.21        60.87197
427.65        61.15116
428.10         62.2564
428.54        63.00221
428.99        63.31232
429.44        63.33614
429.88        63.19521
430.33        63.95564
430.77        64.99359
431.22         64.0387
431.66        61.61517
432.11        60.40499
432.56        60.65944
433.00        61.38584
433.45         62.5163
433.89        64.16909
434.34        64.97888
434.78        66.87533
435.23        63.32165
435.67        61.22173
436.12        63.19209
436.57        64.29695
437.01        65.29623
437.46         65.7569
437.90        65.83961
438.35         65.0901
438.79        65.71123
439.24        65.53659
439.68        65.24717
440.13         64.8224
440.57        64.60394
441.02        65.38988
441.46        66.84659
441.91        67.93744
442.35        68.24426
442.80        67.50117
443.24        66.14927
443.69         66.3035
444.13         67.7331
444.58        67.71507
445.02        66.42832
445.47        66.22604
445.91        67.29121
446.36         67.6575
446.80         67.3299
447.24         67.1497
447.69        67.22032
448.13        67.37424
448.58        67.63158
449.02        67.97434
449.47        68.32746
449.91        68.59148
450.36        68.73269
450.80         68.7663
451.25        68.70499
451.69        68.53588
452.13        68.30148
452.58        68.02484
453.02        67.78053
453.47        67.71877
453.91        67.83586
454.36        68.09477
454.80        68.43871
455.24        68.52317
455.69        68.26798
456.13        68.22546
456.58         68.5038
457.02        67.37089
457.46        66.97144
457.91        67.45013
458.35        68.13126
458.79        68.53217
459.24        68.31284
459.68         68.1086
460.13        67.93777
460.57        67.71787
461.01        67.55825
461.46        67.10806
461.90         66.3403
462.34        67.24577
462.79        66.62906
463.23         67.0034
463.68        67.32051
464.12        67.59653
464.56        67.75348
465.01        67.77335
465.45        67.58077
465.89        67.52494
466.34        67.48403
466.78         66.4594
467.22        64.96395
467.67        64.76134
468.11        65.80968
468.55        66.62106
468.99        66.82219
469.44        66.57569
469.88        66.05756
470.32        65.99799
470.77        66.34995
471.21        66.30383
471.65        65.83565
472.10        65.55775
472.54        65.55692
472.98        65.63432
473.42        65.77187
473.87        66.22291
474.31        66.75581
474.75        66.60017
475.20        65.94106
475.64        65.80521
476.08        66.17859
476.52        66.24088
476.97        65.99673
477.41        65.91073
477.85        65.99564
478.29        66.22881
478.74        66.49422
479.18        66.52541
479.62        65.70918
480.06        66.25271
480.50        66.52972
480.95        66.88744
481.39        66.95061
481.83        66.02101
482.27        66.02468
482.72        66.27571
483.16        64.89007
483.60        65.22186
484.04        66.49696
484.48        66.93751
484.93        67.05273
485.37        68.17438
485.81        68.45689
486.25        68.19872
486.69        93.29868
487.14        75.22794
487.58        46.52783
488.02        56.80014
488.46        64.63338
488.90          64.043
489.34        66.21307
489.79         65.1438
490.23        67.02589
490.67        67.75495
491.11         67.0206
491.55        67.09718
491.99        67.54275
492.43        67.36133
492.88        66.63425
493.32        66.52499
493.76        66.61275
494.20        66.84114
494.64        66.97884
495.08         67.3438
495.52        67.84153
495.96        67.68073
496.41        66.96198
496.85        67.26665
497.29        68.32169
497.73        67.32996
498.17        65.23318
498.61        65.42149
499.05        67.91062
499.49        68.52222
499.93        68.65734
500.37        68.47919
500.82        67.91438
501.26        67.85596
501.70        68.13637
502.14         68.5651
502.58        68.71844
503.02        68.70176
503.46        68.42752
503.90        67.91446
504.34        67.37024
504.78        67.14233
505.22        67.30299
505.66         67.7298
506.10        68.24854
506.54        68.60191
506.98        68.61766
507.42         68.4509
507.86          67.729
508.30        67.54056
508.74        67.79136
509.18        68.22151
509.62        68.63744
510.06        68.82249
510.50        68.71068
510.94        68.38422
511.38        67.99969
511.82        67.79058
512.26        67.82306
512.70        68.02545
513.14        68.29889
513.58        68.48502
514.02        68.52689
514.46        68.46687
514.90        68.37154
515.34        68.32593
515.78        68.34299
516.22        68.45659
516.66        68.59547
517.10        68.48787
517.54        68.08668
517.98        68.11638
518.42        67.75456
518.86        67.81771
519.30        68.04781
519.74        68.45651
520.18         68.9004
520.62        69.13926
521.06        69.12346
521.50        68.92645
521.93        68.62859
522.37        68.36346
522.81        68.19258
523.25        68.07951
523.69        68.04563
524.13        68.12365
524.57        68.30386
525.01        68.57928
525.45        68.87341
525.89        69.05487
526.32        69.08133
526.76        68.97863
527.20        68.80904
527.64        68.69753
528.08        68.69311
528.52        68.70587
528.96        68.66278
529.40        68.64345
529.83        68.66951
530.27        68.02921
530.71        68.13663
531.15        68.01378
531.59        68.08333
532.03        68.26621
532.46        68.52794
532.90        68.78078
533.34        68.97089
533.78        69.11778
534.22        69.19543
534.66        69.17326
535.09        69.04568
535.53        68.85142
535.97        68.62202
536.41        68.43154
536.85        68.31078
537.28        68.25095
537.72        68.24872
538.16        68.30508
538.60        68.40802
539.04        68.49658
539.47        68.54694
539.91        68.70852
540.35        68.89766
540.79        68.83475
541.22        68.56818
541.66        68.45583
542.10        68.51672
542.54        68.55258
542.97        68.56399
543.41        68.66157
543.85        68.82723
544.29        69.04863
544.72        69.21798
545.16        69.19731
545.60        68.96557
546.04         68.5654
546.47        68.16765
546.91        68.09695
547.35         68.3986
547.79        68.90053
548.22        69.38085
548.66        69.68581
549.10         69.6505
549.53        68.97959
549.97        68.02808
550.41        67.61929
550.84        67.85651
551.28        68.42242
551.72        69.11163
552.15        69.44239
552.59        69.36458
553.03        69.59832
553.46        69.16165
553.90        69.03011
554.34        68.89285
554.77        69.26601
555.21        69.01494
555.65        69.18746
556.08        69.47843
556.52        69.09019
556.96        69.58616
557.39        69.40338
557.83        69.11573
558.27        69.15178
558.70        69.23233
559.14         69.3897
559.57        69.50301
560.01        69.54622
560.45        69.79816
560.88        69.84081
561.32        69.77811
561.75        69.61704
562.19        69.42837
562.63         69.1388
563.06        68.85487
563.50        68.86623
563.93        69.12057
564.37        69.42912
564.80        69.64839
565.24        69.62518
565.68        69.39803
566.11        69.29967
566.55        69.40414
566.98        69.40688
567.42        69.34727
567.85        69.59617
568.29        70.16467
568.72        70.25244
569.16        70.04553
569.60        70.75001
570.03        71.19093
570.47        71.27754
570.90        71.05811
571.34        69.45878
571.77        70.14557
572.21        70.39627
572.64        69.83174
573.08        68.57835
573.51        65.91425
573.95        68.58553
574.38        73.08818
574.82        70.88096
575.25        70.75211
575.69        68.24352
576.12        67.17216
576.56        66.29136
576.99        67.77106
577.42        70.88387
577.86        71.11274
578.29        70.39012
578.73        74.46329
579.16        68.51264
579.60        62.56218
580.03        64.94563
580.47        69.33621
580.90        71.12109
581.33        69.61606
581.77        68.80147
582.20        75.81078
582.64        75.44987
583.07        64.56084
583.51        63.25538
583.94        61.89877
584.37        64.65517
584.81        67.88903
585.24        71.58212
585.68        73.24442
586.11        72.19225
586.54        67.42478
586.98        64.64165
587.41        65.37795
587.85        69.21663
588.28        71.72104
588.71        68.01357
589.15        65.90092
589.58        67.30377
590.01        67.49386
590.45        68.41228
590.88        69.41601
591.31         68.5968
591.75        67.81242
592.18         67.7461
592.61         69.4591
593.05        69.88262
593.48        73.15793
593.91        74.26441
594.35        68.14626
594.78         66.5227
595.21         65.9751
595.65        68.93768
596.08        71.92502
596.51        68.97101
596.94        67.35774
597.38        68.02643
597.81        70.71013
598.24        72.34393
598.68        70.51385
599.11        69.52944
599.54         72.4563
599.97        73.88074
600.41        68.71395
600.84         68.8478
601.27        70.38228
601.70         69.7098
602.14        69.76208
602.57        68.72624
603.00        69.07572
603.43        70.61417
603.87        72.40417
604.30         71.9637
604.73        69.71848
605.16        68.38476
605.60        69.26231
606.03        70.47256
606.46        71.58192
606.89        71.50321
607.32         69.0121
607.76        69.20381
608.19         71.4189
608.62        70.63656
609.05        69.48525
609.48        69.97784
609.92        69.78461
610.35        69.38799
610.78         71.7868
611.21        72.01353
611.64        69.07095
612.07        69.67053
612.50         70.0023
612.94         70.4723
613.37        70.04974
613.80        70.25599
614.23        71.02891
614.66        70.86909
615.09        70.88432
615.52        70.81683
615.96        70.74316
616.39        71.19949
616.82        70.15222
617.25        69.44772
617.68        70.51972
618.11        71.11527
618.54        71.53381
618.97        70.99246
619.40        69.91985
619.84        69.93722
620.27        70.94944
620.70         71.6387
621.13        71.80045
621.56         71.1163
621.99        69.93031
622.42        70.79873
622.85         73.2429
623.28         72.3726
623.71        71.85497
624.14        71.82889
624.57         71.4446
625.00        71.06306
625.43        71.50753
625.86        70.90749
626.29         70.9588
626.72        71.56685
627.15        71.31108
627.58        71.46895
628.01        71.42563
628.44        71.82713
628.87        71.89199
629.30        71.71492
629.73        72.10258
630.16        72.19401
630.59        71.94795
631.02        71.64171
631.45        71.27397
631.88        71.00254
632.31        70.85543
632.74        70.77799
633.17        70.75719
633.60        70.78455
634.03         70.8441
634.46        70.93842
634.89        71.03503
635.32        71.07917
635.75        71.05957
636.18        70.98371
636.61        70.89075
637.04        70.85213
637.47        70.88123
637.89        70.96178
638.32        71.03664
638.75        71.05952
639.18        71.01324
639.61        70.92429
640.04        70.79732
640.47        70.63688
640.90        70.46075
641.33        70.26692
641.76        70.07882
642.18        70.03777
642.61        70.15456
643.04        70.22903
643.47        70.16975
643.90        70.74206
644.33        70.46033
644.76        70.52373
645.18        70.50162
645.61        70.42549
646.04        70.29628
646.47        70.10148
646.90        69.94003
647.33        69.94801
647.75        70.17396
648.18        70.54657
648.61        70.86292
649.04        71.01971
649.47        70.88964
649.89        69.94152
650.32        68.70483
650.75        68.68501
651.18        69.79657
651.61        70.64868
652.03        70.86742
652.46        70.77612
652.89        70.72284
653.32        70.24485
653.74        69.74553
654.17        70.92869
654.60        71.78001
655.03        69.28072
655.46        70.17218
655.88        73.99177
656.31        78.84622
656.74        181.4698
657.16        118.6403
657.59        41.49484
658.02        30.97618
658.45        53.23642
658.87        68.45545
659.30        71.63687
659.73        70.32745
660.15        68.09381
660.58        70.92653
661.01        72.68904
661.44        69.95599
661.86        69.13369
662.29        69.39703
662.72        70.28159
663.14        71.50356
663.57         71.4316
664.00          70.327
664.42        70.10606
664.85        70.83759
665.27        71.22147
665.70        71.06913
666.13        70.84496
666.55        70.54699
666.98        70.03371
667.41        69.49579
667.83        69.30877
668.26         69.5409
668.69        70.03977
669.11        70.56118
669.54        71.03543
669.96          70.708
670.39        70.29824
670.82        69.80802
671.24        69.44395
671.67        69.39609
672.09        69.85623
672.52        70.51214
672.94        71.11861
673.37         70.4168
673.80        70.16818
674.22        70.12124
674.65        70.07697
675.07        70.04005
675.50        69.98835
675.92        69.94995
676.35        70.02689
676.77        70.22089
677.20        70.41853
677.62         70.6002
678.05        70.74267
678.47        70.82107
678.90          70.854
679.32        70.85474
679.75        70.71636
680.17        70.72611
680.60        70.65878
681.02         70.5776
681.45        70.41258
681.87        70.17596
682.30          69.935
682.72        69.75995
683.15        69.67498
683.57        69.76059
684.00        70.10946
684.42        70.73753
684.85        71.07069
685.27        71.07404
685.70        70.94869
686.12        70.75807
686.54        70.59888
686.97        70.50375
687.39        70.45972
687.82         70.4286
688.24        70.40569
688.66        70.36932
689.09        70.33795
689.51        70.33975
689.94        70.40143
690.36        70.53477
690.78         70.6674
691.21        70.77286
691.63        70.94112
692.06        71.10489
692.48        71.00606
692.90        70.73409
693.33        70.65871
693.75        70.81404
694.17        71.01453
694.60         71.2029
695.02        71.33614
695.44        71.34678
695.87        71.43523
696.29        71.60999
696.71        71.28439
697.14        70.68491
697.56        71.12887
697.98          72.333
698.41        72.16231
698.83        71.35345
699.25        70.84539
699.68        70.93543
700.10        70.91012
700.52        70.78828
700.94        70.95463
701.37        71.33672
701.79        71.70993
702.21         71.9828
702.64        72.22042
703.06        72.35023
703.48        72.25205
703.90        71.93717
704.33        71.44565
704.75        70.91861
705.17        70.67347
705.59        70.78987
706.01        71.07052
706.44        71.36308
706.86        72.02429
707.28        72.02285
707.70        72.17125
708.12        72.20882
708.55        72.14404
708.97        71.99592
709.39        71.84964
709.81        71.76174
710.23        71.73401
710.66        71.78426
711.08        71.98053
711.50        72.20177
711.92         72.2378
712.34        72.05284
712.76        71.69554
713.19        71.32909
713.61        71.24969
714.03        71.50343
714.45        72.00074
714.87         72.5155
715.29        72.68955
715.71        72.44729
716.13        71.90466
716.56        71.28693
716.98        70.98812
717.40        71.10348
717.82        71.51583
718.24        72.03545
718.66        72.34049
719.08        72.33757
719.50        72.12912
719.92        71.83976
720.34        71.68437
720.76          71.725
721.19        71.76719
721.61        71.97778
722.03        72.12776
722.45        72.24597
722.87        72.35823
723.29        72.45803
723.71        72.52044
724.13        72.54118
724.55        72.51933
724.97        72.49155
725.39        72.49617
725.81        72.53705
726.23        72.65697
726.65        72.83161
727.07        72.71804
727.49        72.78409
727.91        72.67816
728.33        72.57332
728.75        72.51102
729.17        72.50952
729.59         72.5352
730.01        72.59763
730.43        72.71555
730.85        72.88548
731.27        73.13591
731.69        73.37058
732.10        73.40928
732.52        73.22409
732.94        72.90568
733.36        72.64931
733.78        72.63345
734.20        72.90009
734.62        73.69386
735.04        74.71223
735.46        74.73183
735.88        73.97601
736.30         74.0859
736.72        75.17633
737.13        75.52057
737.55        74.94672
737.97        74.86609
738.39        75.27359
738.81        74.55131
739.23        73.18063
739.65        74.01714
740.06        76.51232
740.48        76.80232
740.90        74.96201
741.32        74.05362
741.74          74.387
742.16        74.55251
742.57        74.61742
742.99        75.38155
743.41        76.56875
743.83        77.24313
744.25        77.25513
744.67         76.9045
745.08        76.44596
745.50        76.26508
745.92        76.49644
746.34        76.96068
746.75        77.46389
747.17        77.95109
747.59        77.89608
748.01        77.81413
748.42        77.72034
748.84        77.81342
749.26        78.19174
749.68        78.78705
750.09        79.46976
750.51         80.1488
750.93        80.63116
751.35        80.41406
751.76        79.69759
752.18        79.45561
752.60        79.69607
753.01        79.65314
753.43        79.36104
753.85        79.43302
754.27        79.90193
754.68        80.52032
755.10        81.14725
755.52        81.62969
755.93        82.01714
756.35        82.16586
756.77        82.20819
757.18         82.2095
757.60        82.20993
758.02        82.46497
758.43        82.71938
758.85        82.25491
759.26        80.91797
759.68        80.76369
760.10        81.70395
760.51         82.4637
760.93        82.10496
761.34        81.02946
761.76        80.57211
762.18        80.00625
762.59        79.89756
763.01        80.26828
763.42        81.08999
763.84        81.76849
764.26        82.18812
764.67          82.524
765.09         82.6719
765.50        82.52531
765.92        82.04125
766.33         80.7545
766.75        79.18265
767.16        78.66369
767.58        79.37324
768.00        80.86543
768.41        82.76338
768.83         84.1602
769.24        84.48645
769.66         83.8504
770.07        82.67908
770.49        80.90624
770.90         79.1754
771.32        80.12633
771.73        82.99369
772.15        82.70512
772.56        79.67269
772.97        78.96906
773.39        80.54737
773.80          81.006
774.22        80.15804
774.63        80.01896
775.05        80.54906
775.46        80.85961
775.88        80.84515
776.29        80.74593
776.70        80.63075
777.12        80.65154
777.53        80.84772
777.95        81.09283
778.36        81.26537
778.77        81.16579
779.19        80.81899
779.60        80.31039
780.02        79.81686
780.43        79.78143
780.84        80.34288
781.26        80.66094
781.67        80.77581
782.09        82.32862
782.50        84.48092
782.91        83.31631
783.33        79.74502
783.74        78.49476
784.15        79.81685
784.57        80.78206
784.98        80.96426
785.39        81.12727
785.81         81.1516
786.22        80.68248
786.63        80.08057
787.04         80.0358
787.46        80.61974
787.87        81.60474
788.28        82.66291
788.70        83.18826
789.11        83.02515
789.52        82.51772
789.93        81.89202
790.35        81.15396
790.76        80.55156
791.17        80.69414
791.58        81.40718
792.00        81.72226
792.41        81.50229
792.82        81.31926
793.23        81.36455
793.65        81.18402
794.06        81.01512
794.47        82.17587
794.88        83.89469
795.29        83.43471
795.71        81.04498
796.12        78.88753
796.53        77.64169
796.94        77.31147
797.35        77.97095
797.76        79.28918
798.18        80.65852
798.59        81.57087
799.00        81.67519
799.41        80.83358
799.82        79.50714
800.23        78.70229
800.64        78.63952
801.06         78.9305
801.47        79.46465
801.88        79.95308
802.29        80.26401
802.70        80.53318
803.11        80.71777
803.52        80.70798
803.93        80.51007
804.34        80.10513
804.75        79.68023
805.17        79.60326
805.58        79.98186
805.99        80.56823
806.40        81.09881
806.81        81.49816
807.22        81.47343
807.63         80.3127
808.04        78.56409
808.45        77.81063
808.86        78.24344
809.27        79.14737
809.68        80.11926
810.09        80.67207
810.50        80.58254
810.91        80.03072
811.32        79.27306
811.73        78.71925
812.14        78.49754
812.55        78.43375
812.96        78.53421
813.37        78.81041
813.78        79.20901
814.19        79.77979
814.60        80.22752
815.01        80.08185
815.42        79.29172
815.83        77.95504
816.24        76.58597
816.65        76.09899
817.05        76.76204
817.46        78.27952
817.87        80.02125
818.28        80.85149
818.69        80.45235
819.10         79.1163
819.51        77.50707
819.92        76.75071
820.33        77.15067
820.74        78.35765
821.14        79.77667
821.55        80.34937
821.96        79.84409
822.37         78.6338
822.78        77.24947
823.19        76.46158
823.60        76.47832
824.00        77.10361
824.41        77.95158
824.82        78.49017
825.23        78.49641
825.64        78.16348
826.04        77.70327
826.45        77.41409
826.86         77.3755
827.27        77.45626
827.68        77.56261
828.08        77.59015
828.49        77.43796
828.90        77.21954
829.31        76.95974
829.72        76.68662
830.12        76.46361
830.53        76.26241
830.94        76.18832
831.35        76.37237
831.75        76.86755
832.16        77.57841
832.57        78.38712
832.97        79.01146
833.38         79.2776
833.79        79.23843
834.20        79.05264
834.60        78.97659
835.01        79.10024
835.42        79.34578
835.82        79.54617
836.23        79.34167
836.64        78.71341
837.04          77.812
837.45        76.92685
837.86          76.508
838.26        76.66735
838.67         77.2383
839.08        77.98355
839.48        78.46265
839.89        78.49506
840.29        78.22684
840.70        77.79494
841.11        77.39356
841.51        77.10214
841.92        76.82874
842.33        76.61166
842.73        76.53596
843.14        76.57023
843.54        76.75051
843.95        76.92722
844.35        76.90324
844.76        76.62849
845.17        76.18093
845.57        75.70965
845.98        75.45719
846.38        75.47936
846.79        75.67352
847.19        75.97152
847.60        76.15886
848.00        76.20075
848.41        76.13483
848.81        76.01383
849.22        75.83876
849.62        75.68112
850.03        75.54062
850.43        75.50246
850.84        75.63866
851.24        76.00531
851.65        76.40396
852.05        76.93551
852.46        77.57573
852.86        78.28383
853.27        79.08583
853.67        79.49684
854.07        78.90639
854.48        77.35935
854.88        75.06382
855.29        72.87501
855.69        72.03373
856.10        72.77431
856.50        74.96111
856.90        77.76057
857.31        79.25704
857.71        78.86894
858.12        77.09972
858.52        74.95403
858.92         73.7472
859.33        73.75179
859.73        74.62582
860.13        75.98358
860.54        77.01131
860.94        77.43739
861.34        77.46712
861.75        77.32684
862.15        77.46637
862.55         77.9658
862.96        78.63591
863.36        79.30824
863.76        79.68491
864.17        79.68253
864.57        79.48053
864.97         79.2375
865.38        79.16764
865.78         79.3768
866.18        79.70634
866.58        80.11329
866.99        80.52235
867.39        80.93646
867.79         81.4137
868.19        81.72725
868.60        81.44011
869.00        80.52182
869.40        79.13294
869.80        77.94168
870.21        77.98533
870.61        79.54758
871.01        82.27066
871.41        85.36597
871.81        87.46654
872.22        88.13517
872.62        87.73708
873.02        86.79752
873.42        86.31409
873.82        86.43659
874.22        86.59351
874.63        86.66061
875.03        86.59741
875.43        86.31136
875.83        86.64781
876.23        85.99902
876.63        86.04083
877.03        86.69176
877.44        88.24224
877.84        102.7479
878.24        94.27956
878.64        94.21812
879.04        93.58682
879.44         89.9339
879.84        88.10463
880.24        91.42531
880.64        93.37059
881.04        94.53536
881.44        95.03475
881.84        94.22414
882.24        92.46789
882.65        90.77146
883.05        90.12721
883.45        90.70245
883.85        92.40845
884.25        94.60213
884.65        95.91428
885.05        95.90398
885.45        95.03439
885.85        93.92453
886.25        93.42639
886.65        93.73708
887.05         94.5366
887.45        95.55354
887.85        96.32542
888.25         96.6423
888.65        96.68424
889.04        96.46477
889.44        96.02941
889.84        95.43887
890.24        94.68162
890.64        93.95687
891.04        93.58743
891.44        93.61649
891.84        93.96536
892.24        94.42953
892.64        94.60099
893.04        94.40884
893.44        94.06684
893.83         93.7035
894.23        93.52104
894.63        93.56161
895.03        93.66291
895.43        94.02148
895.83        94.98716
896.23        96.52018
896.63        98.49745
897.02        100.1435
897.42        100.1953
897.82        98.49625
898.22        95.54716
898.62        92.43194
899.01        90.73429
899.41        90.82717
899.81        92.17409
900.21        94.11674
900.61        95.57527
901.00         96.1636
901.40        96.20773
901.80        95.91212
902.20        95.58418
902.59        95.35892
902.99        95.09692
903.39        94.78615
903.79        94.46351
904.18        94.16405
904.58        93.98148
904.98        94.00327
905.38        94.32374
905.77         94.8956
906.17         95.6217
906.57        96.32914
906.96        96.82292
907.36        96.98264
907.76        96.87005
908.15        96.49815
908.55        95.79524
908.95        94.85992
909.34         93.7178
909.74        92.63241
910.14        91.81693
910.53        91.37239
910.93        91.32674
911.33        91.63166
911.72        92.18204
912.12        92.80136
912.52        93.38422
912.91        93.95441
913.31        94.60299
913.70        95.38387
914.10        96.27473
914.49        96.91345
914.89        96.40143
915.29        94.64526
915.68        92.09933
916.08        89.85965
916.47        88.88818
916.87        89.25305
917.26        90.61671
917.66        92.31033
918.05        93.25075
918.45        93.10802
918.84        92.27332
919.24        91.23587
919.64        90.68417
920.03        90.83715
920.42         91.4052
920.82        92.24535
921.21        93.31529
921.61        94.32281
922.00        95.28951
922.40        95.85299
922.79        95.51656
923.19        94.32294
923.58        92.36066
923.98        90.00217
924.37        88.49149
924.77        88.51071
925.16        87.45506
925.55        89.39905
925.95        90.80077
926.34        92.68367
926.74        94.73592
927.13         96.5871
927.52        97.34386
927.92        96.93361
928.31        95.62802
928.70        93.79644
929.10         92.1271
929.49        90.83433
929.89        89.78863
930.28        89.28208
930.67        89.77975
931.07        91.15668
931.46        93.34003
931.85        95.41119
932.24        95.97768
932.64        94.78961
933.03         92.0948
933.42        88.67367
933.82        86.31861
934.21        85.60114
934.60        86.06352
934.99        86.95824
935.39        87.50637
935.78        87.57341
936.17        87.06184
936.56        85.79203
936.96        86.56261
937.35        85.33757
937.74        85.37913
938.13        85.52093
938.53        86.11549
938.92        87.18154
939.31        88.77963
939.70        90.48361
940.09        91.01472
940.49        89.99905
940.88        87.98227
941.27        85.88493
941.66        84.78569
942.05        84.82604
942.44        85.65616
942.84         86.9245
943.23        88.09451
943.62        88.83726
944.01        89.29392
944.40        89.47255
944.79        89.39122
945.18        89.06572
945.57        88.39312
945.97        87.42152
946.36        86.43642
946.75        85.71865
947.14        85.34555
947.53         85.2372
947.92        85.21526
948.31         85.2337
948.70        85.34142
949.09        85.59132
949.48        86.05828
949.87        86.69285
950.26        87.34951
950.65        87.91383
951.04        88.27801
951.43        88.40499
951.82        88.32933
952.21        87.95047
952.60        87.15501
952.99        85.99648
953.38        84.54115
953.77        83.16843
954.16        82.40327
954.55        82.33488
954.94        82.90128
955.33        83.59171
955.72        83.51836
956.11        82.49734
956.50        80.74937
956.89         79.0729
957.28        78.93382
957.66        80.77504
958.05        83.88883
958.44        87.23741
958.83        89.29159
959.22        89.65007
959.61         88.6873
960.00        87.04004
960.39        85.76683
960.78        85.20492
961.16        85.08904
961.55        84.94714
961.94        84.02303
962.33        82.23589
962.72        80.04445
963.11        78.05703
963.49        76.97147
963.88        76.88446
964.27        77.60567
964.66        78.76591
965.04        79.58489
965.43        79.63992
965.82        79.20308
966.21        78.66174
966.60         78.5532
966.98        79.00452
967.37        79.77595
967.76        80.63401
968.15         81.1321
968.53        81.09972
968.92        80.64957
969.31        80.02148
969.69        79.49318
970.08        79.13949
970.47         78.9035
970.86        78.61008
971.24        77.96251
971.63        76.92166
972.02        75.62818
972.40        74.45941
972.79        74.05216
973.17        74.67469
973.56         76.0096
973.95        77.71716
974.33        79.04366
974.72        79.55022
975.11         79.4127
975.49        78.80965
975.88        78.10703
976.26         77.3819
976.65        76.48922
977.04        75.39079
977.42        74.14687
977.81        72.94987
978.19        71.91855
978.58        71.56651
978.96        72.14208
979.35        73.61547
979.74        75.95676
980.12        78.86456
980.51        80.63336
980.89        80.92751
981.28        80.07254
981.66        78.72797
982.05        77.76603
982.43        77.37622
982.82        77.27814
983.20        77.67207
983.59        78.92878
983.97        81.15207
984.35        84.39178
984.74        87.77422
985.12        89.51195
985.51        88.51853
985.89        85.11338
986.28        80.49698
986.66         76.7281
987.04        74.78938
987.43        74.24224
987.81        74.37138
988.20        74.22096
988.58        73.42975
988.96        71.98293
989.35         70.1848
989.73        69.67401
990.12        71.34639
990.50        74.51672
990.88        76.93996
991.27        76.94667
991.65        74.91413
992.03        71.31634
992.42        67.72987
992.80        66.78313
993.18        69.08611
993.56        72.97018
993.95        76.85356
994.33        79.47896
994.71        80.54015
995.10        80.80658
995.48         80.2856
995.86        78.77538
996.24        76.32391
996.63        72.61268
997.01        68.68391
997.39         67.6917
997.77        70.84116
998.15          77.355
998.54        83.92264
998.92        86.09653
999.30        82.61894
999.68        74.59061
1000.06        64.19529
1000.45        56.86906
1000.83        54.85059
1001.21        56.37863
1001.59        59.73265
1001.97        63.09519
1002.35        65.99733
1002.73        69.47171
1003.12        72.52081
1003.50        72.01492
1003.88        67.03885
1004.26        59.35919
1004.64        52.34808
1005.02        48.74934
1005.40        48.63719
1005.78        51.77157
1006.16        59.06334
1006.54        67.95492
1006.92        73.19247
1007.30        74.67304
1007.69        74.13754
1008.07        73.27444
1008.45        72.16198
1008.83        69.58763
1009.21        62.17835
1009.59        39.17756
1009.97       -19.25375
1010.35       -91.81279
1010.73       -68.83033
1011.11       -16.21102
1011.49         19.3994
1011.86        43.88055
1012.24        57.27162
1012.62        62.36674
1013.00         62.3438
1013.38        58.38134
1013.76        52.32177
1014.14         51.4628
1014.52        62.13096
1014.90        85.79709
1015.28        116.4713
1015.66        134.6525
1016.04         127.829
1016.41        99.60811
1016.79        64.90472
1017.17        40.87313
1017.55        30.56171
1017.93        27.13272
1018.31         27.4674
1018.69        30.56035
1019.06        36.07237
1019.44         44.7052
1019.82        58.28297
1020.20        75.42503
1020.58        92.81805
1020.95        108.0136
1021.33         109.586
1021.71         228.095
1022.09        137.2291
1022.46        136.6771
1022.84        140.5569
1023.22          151.16
1023.60        181.2046
1023.97        475.2559
1024.35       -22.48122
1024.73        33.18921
