SpectraSmart Spectrum 2.9.0.0
--------- Device Information -----------
Spectrum Name :  反射率_0
Saving Time :  2024/04/26 01:15:23
Spectro-Module Model Name : SE2030-DUVN
Spectro-Module Serial Number : OS361AC55029948
Wavelength Start : 200
Wavelength End : 1025
Wavelength Unit : Wavelength(nm)
Spectrum Unit : Reflectance(%)
-----------Spectrum Setting ------------
Integration Time : 20ms
Average : 10
Boxcar : 0
Background removal :  enabled
linearity correction :  enabled
SC :  disabled
Intensity correction :  disabled
DWT denoise :  enabled
savitzky-golay :  disabled
FFT :  disabled
Running average :  disabled
Kalman :  disabled
High pass :  disabled
---------------BEGIN--------------------
Wavelength(nm)             Reflectance(%)
200.29               0
200.75        89.19434
201.21         80.8194
201.67         71.6796
202.13        66.57193
202.58        66.04709
203.04        68.93542
203.50        73.53246
203.96        76.82935
204.42        77.76199
204.88        77.27602
205.34        76.59652
205.80        77.10267
206.26        79.52834
206.72        85.19162
207.18        95.62673
207.64        102.2436
208.10        91.66372
208.55        76.21182
209.01        67.85687
209.47        66.61304
209.93        69.74693
210.39        76.39008
210.85        83.70203
211.31        85.23397
211.77        79.05323
212.23        67.47832
212.69        56.04584
213.14        53.34292
213.60        60.64994
214.06        75.37598
214.52        91.41692
214.98        99.37254
215.44        97.15073
215.90        88.16525
216.36        76.93122
216.81        69.74242
217.27        68.24065
217.73         70.0292
218.19        72.27957
218.65        71.36166
219.11         65.9696
219.57         55.8774
220.02        42.36958
220.48        33.61367
220.94         34.5172
221.40        43.02072
221.86         51.8121
222.32        53.15303
222.77         47.6763
223.23        39.60352
223.69        32.81335
224.15        31.24333
224.61        34.42142
225.06        40.22166
225.52        45.96815
225.98        48.48391
226.44         47.1328
226.90        43.38631
227.36        38.71761
227.81        34.99533
228.27        33.08658
228.73         32.2802
229.19        32.41225
229.65        33.24945
230.10        34.48818
230.56         36.0139
231.02        37.55463
231.48        38.77047
231.93        39.59766
232.39        40.09074
232.85        40.25417
233.31        40.15092
233.77        39.80954
234.22        39.20712
234.68        38.43801
235.14        37.64862
235.60        37.00058
236.05        36.62599
236.51        36.55241
236.97        36.71428
237.43        37.18392
237.88        38.13136
238.34        39.84658
238.80        42.78753
239.26        46.84366
239.71        51.66971
240.17        56.36887
240.63        60.10568
241.08        62.65063
241.54        64.00264
242.00        64.63033
242.46        65.41234
242.91        67.20464
243.37        70.98831
243.83        83.39758
244.28        130.0091
244.74        194.8852
245.20        174.1776
245.66        148.3453
246.11        142.0748
246.57        148.9751
247.03        175.4462
247.48        249.8523
247.94        198.9156
248.40        116.1238
248.85         92.1818
249.31         85.4657
249.77         84.7047
250.22        87.06397
250.68        92.60748
251.14        100.7701
251.59        105.0195
252.05        99.84782
252.51        88.68269
252.96         77.6579
253.42        72.48507
253.88        72.41796
254.33        75.13452
254.79         79.6672
255.25        84.06268
255.70        87.23276
256.16        89.87111
256.62        90.86507
257.07         89.0006
257.53        85.15499
257.99        79.67707
258.44        74.23445
258.90        71.72132
259.35        71.20316
259.81        71.64023
260.27        71.11683
260.72         67.7747
261.18        62.43689
261.63        55.99086
262.09        50.13105
262.55        46.15836
263.00        44.02153
263.46        43.11942
263.91        42.50153
264.37        41.40768
264.83        39.64297
265.28        37.39954
265.74        35.23825
266.19        33.77428
266.65         33.2155
267.11        33.19375
267.56        33.20937
268.02        32.65845
268.47         31.4247
268.93        29.71482
269.38        27.83195
269.84        26.52653
270.30        25.99764
270.75        26.03609
271.21          26.249
271.66        26.04784
272.12        25.28644
272.57        24.18322
273.03         23.0556
273.48        22.29727
273.94         22.0239
274.39         22.0427
274.85        22.16952
275.31        22.14649
275.76        21.88467
276.22        21.48791
276.67        21.00912
277.13        20.59569
277.58        20.25103
278.04        19.96217
278.49         19.6544
278.95        19.26848
279.40        18.78082
279.86        18.26628
280.31        17.77857
280.77        17.48835
281.22        17.37819
281.68        17.40441
282.13        17.46591
282.59         17.4383
283.04        17.29897
283.50        17.12347
283.95        16.93418
284.41        16.77572
284.86        16.66723
285.32        16.59485
285.77        16.62245
286.22        16.89993
286.68        17.40052
287.13         18.0434
287.59        18.62736
288.04        18.85446
288.50        18.69743
288.95         18.2455
289.41        17.71104
289.86        17.32063
290.32        17.19367
290.77        17.25762
291.22        17.48286
291.68         17.7805
292.13         18.1364
292.59         18.5987
293.04         19.1966
293.50        19.96294
293.95        20.88485
294.40        21.90802
294.86        22.99211
295.31        24.09791
295.77        25.21801
296.22        26.37096
296.68        27.53633
297.13        28.64742
297.58        29.71415
298.04        30.76733
298.49        31.90991
298.95        33.35268
299.40        35.11987
299.85        37.14526
300.31        39.26433
300.76        41.20555
301.21        42.87389
301.67        44.37817
302.12        45.77563
302.58        47.25166
303.03         48.8367
303.48        50.49643
303.94        52.29119
304.39          54.257
304.84        56.38533
305.30        58.64899
305.75        60.85835
306.20         62.7448
306.66        64.27251
307.11        65.46775
307.57        66.53871
308.02        67.68811
308.47        69.03137
308.93         70.5193
309.38         72.0446
309.83        73.48577
310.29        74.79086
310.74        75.96352
311.19        77.06799
311.65        78.20054
312.10        79.36478
312.55        80.53515
313.00        81.57922
313.46        82.29273
313.91        82.63189
314.36        82.69472
314.82        82.70886
315.27        82.97057
315.72        83.58733
316.18          84.471
316.63        85.48121
317.08        86.33671
317.53        86.93785
317.99        87.34451
318.44        87.67159
318.89          88.117
319.35         88.7068
319.80        89.39743
320.25        90.01247
320.70         90.2772
321.16        90.14504
321.61        89.71783
322.06        89.22643
322.51        89.02914
322.97        89.19012
323.42        89.64655
323.87        90.19373
324.32        90.47733
324.78        90.39253
325.23        90.08698
325.68        89.71937
326.13        89.57676
326.59        89.71732
327.04        90.07496
327.49        90.53728
327.94        90.95039
328.39        91.25317
328.85        91.47831
329.30        91.68848
329.75         91.8254
330.20        91.92047
330.66         91.9797
331.11        92.14561
331.56        92.57711
332.01        93.31657
332.46        94.28735
332.92        95.37836
333.37         96.5628
333.82        97.67772
334.27        98.72195
334.72        99.50182
335.17        99.72511
335.63        99.37331
336.08        98.59982
336.53        97.75369
336.98        97.43801
337.43        97.81081
337.88        98.71239
338.34        99.88689
338.79          100.98
339.24         101.804
339.69        102.4804
340.14        102.9695
340.59        103.2107
341.05        103.2338
341.50        103.0124
341.95        102.7659
342.40        102.8639
342.85        103.3714
343.30        104.2049
343.75        105.0954
344.20        105.5537
344.66        105.4686
345.11        104.9803
345.56        104.3551
346.01        103.9948
346.46        104.0068
346.91        104.2646
347.36        104.6195
347.81        104.8444
348.26        104.8772
348.72        104.8178
349.17        104.7191
349.62        104.7101
350.07        104.8185
350.52        104.9745
350.97        105.1264
351.42        105.2126
351.87        105.2059
352.32        105.1268
352.77        104.9636
353.22        104.6962
353.67        104.3332
354.13         103.899
354.58        103.4135
355.03        102.9681
355.48        102.5822
355.93        102.2367
356.38         101.894
356.83        101.4883
357.28        100.9993
357.73        100.4466
358.18        99.84841
358.63        99.23244
359.08        98.61422
359.53        97.99366
359.98        97.36655
360.43        96.72507
360.88        96.06683
361.33        95.39121
361.78        94.72751
362.23        94.12359
362.68         93.5883
363.13        93.11165
363.58        92.62885
364.03        92.03524
364.48        91.30975
364.93         90.4793
365.38        89.62811
365.83        88.89643
366.28        88.31032
366.73        87.81736
367.18        87.33611
367.63        86.73685
368.08        85.99982
368.53        85.19808
368.98        84.37906
369.43        83.59944
369.88         82.8837
370.33        82.20691
370.78        81.61537
371.23        81.19138
371.68        80.93811
372.13        80.82931
372.58        80.75739
373.03        80.53765
373.48         80.1297
373.93        79.59363
374.38        79.02425
374.83         78.5696
375.28         78.2601
375.72         78.0221
376.17        77.83238
376.62        77.62898
377.07        77.37672
377.52         77.0891
377.97        76.72303
378.42        76.21119
378.87        75.56751
379.32        74.83917
379.77        74.10473
380.22        73.46996
380.67        72.95055
381.11        72.51142
381.56         72.1291
382.01         71.7682
382.46        71.42233
382.91        71.12579
383.36        70.83138
383.81        70.46552
384.26        70.02473
384.71        69.51074
385.15        69.03024
385.60        68.81281
386.05        68.83487
386.50        69.01561
386.95        69.14324
387.40        68.86852
387.85        68.17435
388.29        67.22029
388.74         66.3225
389.19         65.6639
389.64        65.28106
390.09        65.06264
390.54        65.03221
390.98        65.22375
391.43        65.58099
391.88        66.05792
392.33        66.41728
392.78        66.23695
393.23        65.50838
393.67        64.57555
394.12         63.7754
394.57         62.9403
395.02        62.36338
395.47        62.93187
395.91        64.37751
396.36        65.16969
396.81         65.0816
397.26        64.84266
397.71        64.58365
398.15        64.15634
398.60        63.70674
399.05        63.31185
399.50        62.97211
399.95        62.40952
400.39        61.95994
400.84        61.69211
401.29        61.67238
401.74        61.65193
402.18        61.62394
402.63        61.66888
403.08        61.82411
403.53        62.06605
403.97        62.37711
404.42        62.74208
404.87        63.00468
405.32        62.90958
405.76        62.42531
406.21        61.68696
406.66        60.94445
407.11        60.60325
407.55        60.75256
408.00        61.16706
408.45        61.65479
408.90        62.03434
409.34        62.07275
409.79        61.44162
410.24         60.4512
410.68        59.93338
411.13        60.00097
411.58         60.2456
412.03        60.57788
412.47        60.99208
412.92        61.36944
413.37        61.73664
413.81        62.00978
414.26        62.09872
414.71        61.98021
415.15        61.66246
415.60        61.27163
416.05        61.04068
416.49        61.03576
416.94        61.22672
417.39        61.45249
417.83        61.41622
418.28        61.07867
418.73        60.54908
419.17        60.07919
419.62        60.06569
420.07        60.54429
420.51          61.369
420.96         62.2579
421.41        62.69649
421.85        62.53256
422.30         62.1348
422.74        61.64519
423.19        61.10249
423.64        60.68531
424.08        60.95232
424.53        61.74126
424.98        62.22863
425.42        62.29924
425.87        62.47501
426.31        62.77032
426.76        62.79233
427.21        62.66946
427.65        62.88456
428.10          63.414
428.54        64.01756
428.99        64.67036
429.44        65.11263
429.88        65.28564
430.33        65.98093
430.77        66.66753
431.22        65.57342
431.66        63.27818
432.11        62.20921
432.56        62.57499
433.00        63.48005
433.45        64.75311
433.89        66.24671
434.34        66.71504
434.78        68.43432
435.23        64.91679
435.67        63.21999
436.12        65.33346
436.57        66.37579
437.01        67.00346
437.46        67.35326
437.90        67.62369
438.35        66.93097
438.79        67.62936
439.24        67.58573
439.68        67.51522
440.13        67.37422
440.57        67.40485
441.02        68.21077
441.46        69.44616
441.91        70.23223
442.35        70.31097
442.80        69.47498
443.24        68.19716
443.69        68.76247
444.13        70.77419
444.58        70.88203
445.02        69.28229
445.47        69.08565
445.91        70.21783
446.36        70.58143
446.80        70.10708
447.24        69.93591
447.69        70.09523
448.13        70.18643
448.58        70.26131
449.02        70.58981
449.47        71.08239
449.91        71.40341
450.36        71.51255
450.80        71.55081
451.25        71.54878
451.69        71.46933
452.13        71.34743
452.58        71.19154
453.02        71.05472
453.47        71.06069
453.91        71.20621
454.36        71.47672
454.80        71.79295
455.24        71.80794
455.69        71.47278
456.13        71.20265
456.58        71.22816
457.02        70.23776
457.46        70.61091
457.91         70.8464
458.35        71.40305
458.79        71.64053
459.24        71.52411
459.68        71.27665
460.13        70.94909
460.57        70.58305
461.01        70.28251
461.46        69.83967
461.90        69.26672
462.34        69.72887
462.79        69.44384
463.23        69.73058
463.68        69.99969
464.12        70.39752
464.56        70.77724
465.01        70.88073
465.45        70.61891
465.89         70.3627
466.34        70.07628
466.78        69.12392
467.22        68.01495
467.67        67.58134
468.11        68.93784
468.55        69.57039
468.99        69.53371
469.44        69.15721
469.88        68.65884
470.32        68.66321
470.77        69.08248
471.21        69.10229
471.65        68.67883
472.10        68.44338
472.54        68.46978
472.98        68.52836
473.42        68.60454
473.87        68.95805
474.31        69.38727
474.75        69.19224
475.20        68.54702
475.64        68.41699
476.08        68.81921
476.52        68.85514
476.97        68.48882
477.41         68.5268
477.85        69.01418
478.29        68.37895
478.74        68.79465
479.18        68.80034
479.62         68.1933
480.06        68.80987
480.50        68.90492
480.95        69.19009
481.39        69.30679
481.83         68.0381
482.27        68.36594
482.72        68.33321
483.16        67.01788
483.60        67.38631
484.04         68.8935
484.48        69.33259
484.93        69.08531
485.37        70.62205
485.81        71.00476
486.25         69.8638
486.69        94.50208
487.14        77.15955
487.58        47.83991
488.02        58.72591
488.46        66.92442
488.90        66.02391
489.34        68.40931
489.79         67.5382
490.23        68.95498
490.67        69.76154
491.11        69.23911
491.55        69.27753
491.99        69.44441
492.43        69.17197
492.88        68.57777
493.32        68.59846
493.76         68.7409
494.20        68.98761
494.64        69.09167
495.08        69.29484
495.52        69.57796
495.96        69.43891
496.41        68.91318
496.85        69.17902
497.29         69.9966
497.73        68.88638
498.17        66.84296
498.61        67.21355
499.05        69.94399
499.49        70.57935
499.93        70.54372
500.37        70.20503
500.82        69.57098
501.26        69.47031
501.70        69.61739
502.14        70.48588
502.58        69.97548
503.02        69.97401
503.46        69.89387
503.90        69.56813
504.34        69.13032
504.78        68.93678
505.22        69.05637
505.66        69.37607
506.10        69.77949
506.54        69.96137
506.98        69.83162
507.42        69.67493
507.86        69.66357
508.30        69.01829
508.74        69.44586
509.18        69.55634
509.62        69.75148
510.06        69.84736
510.50         69.8196
510.94        69.70631
511.38        69.56918
511.82        69.54338
512.26        69.65453
512.70        69.85027
513.14        70.05794
513.58        70.21116
514.02        70.28109
514.46        70.20223
514.90        69.99041
515.34        70.10164
515.78        69.83195
516.22        69.81401
516.66         69.8189
517.10        69.66471
517.54        69.34559
517.98        69.51388
518.42        69.34604
518.86        69.53459
519.30        69.81373
519.74         70.2192
520.18         70.6337
520.62         70.8633
521.06        70.87279
521.50        70.71422
521.93        70.47357
522.37        70.29453
522.81         70.2336
523.25        70.25493
523.69        70.33796
524.13        70.45193
524.57         70.5757
525.01         70.7112
525.45        70.84885
525.89        70.96941
526.32        71.05805
526.76        71.11481
527.20         71.1051
527.64        71.02808
528.08        70.91434
528.52        70.63609
528.96         70.2551
529.40        70.25932
529.83        70.61411
530.27        70.08237
530.71        70.09731
531.15        69.99448
531.59        70.19866
532.03        70.40443
532.46        70.60073
532.90        70.85304
533.34        71.11964
533.78        71.37247
534.22        71.54321
534.66        71.54266
535.09        71.35488
535.53        71.04269
535.97        70.68877
536.41        70.44418
536.85        70.35456
537.28         70.3861
537.72        70.47728
538.16          70.535
538.60         70.5298
539.04        70.43832
539.47        70.29225
539.91        70.32655
540.35        70.47564
540.79        70.42406
541.22        70.19759
541.66        70.12606
542.10         70.2116
542.54        70.26263
542.97        70.27245
543.41        70.33804
543.85        70.44733
544.29        70.60219
544.72        70.70782
545.16        70.64857
545.60        70.40526
546.04        70.00636
546.47        69.64623
546.91        69.65213
547.35        70.05498
547.79        70.77302
548.22        71.49223
548.66        71.68214
549.10        71.27354
549.53        70.53598
549.97        69.81316
550.41        69.42576
550.84        69.46196
551.28        69.97442
551.72        70.78161
552.15        70.89211
552.59        70.91082
553.03        71.06374
553.46        70.50871
553.90        70.40263
554.34        70.45518
554.77        70.51781
555.21        70.53253
555.65        70.67786
556.08        70.96729
556.52        70.52229
556.96        70.95396
557.39        70.73505
557.83         70.4534
558.27        70.37717
558.70         70.5452
559.14         70.7288
559.57        70.88206
560.01        71.16267
560.45        71.47305
560.88        71.57076
561.32        71.44528
561.75        71.18282
562.19        70.89602
562.63        70.48334
563.06        70.10768
563.50         70.2461
563.93        70.76028
564.37        71.10529
564.80        71.13778
565.24        70.98983
565.68        70.74495
566.11        70.61588
566.55        70.68175
566.98        70.75715
567.42        70.83265
567.85        71.00544
568.29        71.27659
568.72        71.32665
569.16        71.34731
569.60        71.71162
570.03        72.07391
570.47        72.01241
570.90        71.86016
571.34        69.72006
571.77        70.92816
572.21        70.73437
572.64        70.47169
573.08        69.46765
573.51        66.67774
573.95        69.21143
574.38        73.36125
574.82        71.27639
575.25        70.81381
575.69        68.61588
576.12        67.65197
576.56        66.96273
576.99        68.35078
577.42        71.27856
577.86        71.32744
578.29         70.6155
578.73        74.44723
579.16        68.87422
579.60        62.85133
580.03        65.52285
580.47        70.06886
580.90         71.6088
581.33        70.31478
581.77        69.35158
582.20        76.25787
582.64        75.55463
583.07        64.95653
583.51        63.73928
583.94        62.41009
584.37        65.50547
584.81        68.83257
585.24        72.42773
585.68        73.77814
586.11         72.7647
586.54        67.79839
586.98        65.68055
587.41        66.13256
587.85        69.60821
588.28        72.15227
588.71        68.66985
589.15        66.42657
589.58        68.01693
590.01        68.14357
590.45        69.61999
590.88        70.00928
591.31        69.38122
591.75        68.98492
592.18        69.08251
592.61        70.67834
593.05        70.58436
593.48        73.92372
593.91        74.64194
594.35        68.76357
594.78        67.37599
595.21        66.83492
595.65        69.83673
596.08         72.6469
596.51        69.88667
596.94        67.91602
597.38        68.54734
597.81        71.16348
598.24        73.33656
598.68        71.96556
599.11        70.33328
599.54        73.22454
599.97        74.58971
600.41        69.49466
600.84        69.44905
601.27        70.90308
601.70        70.23265
602.14        70.28833
602.57        69.26079
603.00        69.52863
603.43        71.32373
603.87        72.82447
604.30        72.41584
604.73        70.32536
605.16        68.80555
605.60        70.04033
606.03        71.16028
606.46        72.11066
606.89        71.50955
607.32        69.87613
607.76        69.54126
608.19         71.7393
608.62        71.10188
609.05        69.63674
609.48        70.21614
609.92        70.13377
610.35        69.80247
610.78        72.24702
611.21        72.38441
611.64        69.45961
612.07        70.11435
612.50         70.5573
612.94        70.97894
613.37        70.30788
613.80        70.63659
614.23        70.98247
614.66        70.97474
615.09         71.2959
615.52        71.33434
615.96        71.22474
616.39        71.27809
616.82        70.29012
617.25        70.15601
617.68        70.77923
618.11        71.36497
618.54        71.70153
618.97        71.17661
619.40        70.21316
619.84         70.0354
620.27        71.16556
620.70        71.83038
621.13        71.98337
621.56        71.37627
621.99        70.47596
622.42        71.18957
622.85        73.01727
623.28        72.83037
623.71         72.1635
624.14        71.82811
624.57        72.02779
625.00        71.51116
625.43        71.84948
625.86        71.25734
626.29        71.55414
626.72        71.77167
627.15        71.45471
627.58        71.53795
628.01        71.68021
628.44        72.17472
628.87         72.0676
629.30        72.15102
629.73        72.55542
630.16        72.55959
630.59        72.25935
631.02        71.83463
631.45        71.42262
631.88        71.17169
632.31        71.12827
632.74        71.25175
633.17        71.45442
633.60        71.58509
634.03        71.59528
634.46        71.53236
634.89        71.43316
635.32         71.3585
635.75        71.33134
636.18        71.32139
636.61        71.32983
637.04        71.36839
637.47        71.43063
637.89        71.52486
638.32         71.5984
638.75        71.60954
639.18        71.54716
639.61        71.42981
640.04        71.28187
640.47        71.14327
640.90        71.03593
641.33        70.95043
641.76        70.87527
642.18        70.89203
642.61        70.99915
643.04        71.01366
643.47         70.8826
643.90        71.44392
644.33        71.21129
644.76        71.36945
645.18        71.45506
645.61        71.45368
646.04        71.34843
646.47        71.14392
646.90        70.93851
647.33        70.86148
647.75        70.97181
648.18        71.21523
648.61        71.41855
649.04        71.50504
649.47         71.3609
649.89        70.48647
650.32        69.37975
650.75        69.41617
651.18        70.49691
651.61         71.3904
652.03        71.68835
652.46         71.4417
652.89        71.06506
653.32        70.54774
653.74        70.28468
654.17        71.60695
654.60        72.00569
655.03         69.9894
655.46        71.19707
655.88        74.15695
656.31        79.18653
656.74        177.6794
657.16        114.9708
657.59        40.58854
658.02        30.72374
658.45        53.81942
658.87        68.59217
659.30         71.7421
659.73        71.12805
660.15        68.20822
660.58        71.22792
661.01        72.94406
661.44        70.49187
661.86         69.6918
662.29        69.74928
662.72        70.53347
663.14        71.76888
663.57        71.70057
664.00        70.58198
664.42        70.35632
664.85        71.09612
665.27        71.52549
665.70        71.44762
666.13        71.28559
666.55        71.02824
666.98        70.54549
667.41        70.02969
667.83        69.85615
668.26         70.0966
668.69        70.59867
669.11        71.10606
669.54        71.55772
669.96        71.20327
670.39        70.70044
670.82        70.08422
671.24        69.79758
671.67        69.95895
672.09        70.32503
672.52        70.65434
672.94        71.22787
673.37         70.7684
673.80        70.62132
674.22        70.51132
674.65        70.46317
675.07        70.47682
675.50        70.40869
675.92        70.30122
676.35        70.32973
676.77        70.50381
677.20        70.69569
677.62          70.866
678.05        70.95748
678.47         70.9417
678.90        70.85419
679.32        70.74684
679.75        70.56739
680.17        70.61582
680.60        70.65408
681.02        70.69818
681.45        70.61342
681.87        70.39635
682.30        70.09146
682.72        69.82043
683.15        69.78728
683.57        70.03968
684.00        70.41897
684.42        70.92684
684.85        71.17764
685.27        71.14286
685.70        70.92206
686.12        70.61767
686.54         70.4091
686.97        70.35588
687.39         70.4857
687.82        70.69601
688.24        70.80626
688.66        70.75829
689.09        70.64095
689.51        70.54391
689.94        70.55679
690.36        70.71114
690.78        70.96192
691.21        71.22183
691.63        71.35936
692.06        71.34554
692.48        71.23657
692.90            71.1
693.33        71.04179
693.75        71.08891
694.17        71.21043
694.60        71.36824
695.02        71.48866
695.44        71.53101
695.87        71.64487
696.29        71.79822
696.71        71.55836
697.14        71.19325
697.56        71.11999
697.98        72.65915
698.41        72.41798
698.83        71.60896
699.25        71.13024
699.68        71.25829
700.10        71.20525
700.52         70.9673
700.94         70.9739
701.37        71.19277
701.79        71.46791
702.21        71.73013
702.64        72.02201
703.06        72.24837
703.48        72.25135
703.90        72.02357
704.33        71.61227
704.75        71.14584
705.17        70.92343
705.59        71.02365
706.01        71.24854
706.44        71.46661
706.86         72.0825
707.28        72.07544
707.70        72.22849
708.12        72.26471
708.55        72.20619
708.97        72.04632
709.39        71.79171
709.81        71.52687
710.23        71.38904
710.66        71.41784
711.08        71.61053
711.50        71.84465
711.92        71.93468
712.34        71.83643
712.76        71.58955
713.19        71.32499
713.61        71.28539
714.03        71.50648
714.45        71.91544
714.87        72.32355
715.29         72.4343
715.71        72.19015
716.13        71.69028
716.56        71.13976
716.98        70.89831
717.40        71.04659
717.82        71.47453
718.24        71.99519
718.66         72.2907
719.08        72.27077
719.50          72.036
719.92        71.70151
720.34        71.48705
720.76        71.46146
721.19        71.40171
721.61        71.48913
722.03        71.70037
722.45        71.78307
722.87        71.97572
723.29        72.15522
723.71        72.25044
724.13        72.24346
724.55        72.15829
724.97        72.03982
725.39        71.96323
725.81        71.95467
726.23        71.99168
726.65        72.07174
727.07        72.18668
727.49        72.32803
727.91        72.50542
728.33        72.67683
728.75        72.76958
729.17        72.76451
729.59        72.66813
730.01        72.55517
730.43        72.54166
730.85        72.65714
731.27        72.89728
731.69        73.14917
732.10        73.20589
732.52        73.02464
732.94        72.71046
733.36        72.44103
733.78        72.36025
734.20        72.51368
734.62        73.16473
735.04        74.04917
735.46        74.02045
735.88        73.31441
736.30        73.54102
736.72        74.68047
737.13        75.25983
737.55        74.97636
737.97        74.87962
738.39        75.01068
738.81        74.18579
739.23        72.90436
739.65        73.70615
740.06        76.06985
740.48        76.36868
740.90        74.68494
741.32        73.98351
741.74        74.51507
742.16        74.78611
742.57        74.83115
742.99        75.46194
743.41        76.46532
743.83        77.04353
744.25        77.06337
744.67        76.73051
745.08        76.27287
745.50        76.05832
745.92        76.21068
746.34        76.60889
746.75          77.097
747.17        77.40884
747.59        77.49156
748.01        77.42706
748.42        77.39088
748.84        77.64056
749.26         78.2261
749.68        79.02248
750.09        79.82452
750.51        80.30321
750.93        80.38692
751.35         80.1219
751.76        79.65527
752.18         79.4147
752.60        79.39343
753.01        79.15501
753.43        78.79183
753.85        78.84756
754.27        79.36947
754.68        80.12414
755.10        80.89539
755.52        81.48737
755.93        81.78591
756.35        81.77251
756.77        81.63578
757.18         81.5639
757.60        81.61065
758.02        82.11133
758.43        82.69882
758.85        82.10986
759.26        80.31079
759.68        80.17744
760.10        81.43304
760.51        81.98417
760.93        81.46386
761.34        80.67135
761.76         79.9323
762.18        79.42439
762.59        79.36546
763.01        79.84164
763.42        80.78436
763.84        81.52535
764.26        81.94377
764.67        82.27677
765.09        82.43304
765.50        82.24283
765.92         81.7059
766.33        80.49322
766.75        79.09937
767.16        78.70725
767.58        79.43558
768.00        80.89826
768.41        82.69288
768.83        83.76349
769.24        83.71728
769.66        83.05526
770.07        82.16241
770.49        80.80086
770.90         79.4099
771.32        80.13565
771.73        82.34193
772.15        81.80507
772.56        79.01272
772.97        78.49903
773.39        80.17386
773.80         80.7981
774.22        80.14987
774.63        80.18798
775.05        80.84565
775.46        81.18782
775.88        81.09885
776.29        80.83826
776.70        80.52376
777.12        80.37686
777.53        80.47359
777.95        80.70245
778.36        80.91138
778.77        80.83553
779.19        80.46399
779.60        79.88222
780.02        79.35183
780.43        79.32913
780.84         79.9354
781.26        80.66956
781.67        81.36134
782.09        82.41255
782.50        83.34196
782.91         82.3155
783.33         80.0294
783.74        79.20891
784.15        80.02284
784.57         80.6739
784.98         80.8519
785.39        80.96241
785.81        80.90936
786.22         80.4267
786.63        79.85016
787.04        79.83023
787.46        80.43551
787.87        81.44731
788.28        82.51076
788.70        83.02835
789.11        82.85373
789.52        82.20029
789.93         81.3888
790.35        80.86091
790.76        80.74598
791.17        80.96568
791.58        81.35344
792.00         81.5531
792.41        81.45799
792.82        81.26519
793.23        81.15562
793.65        80.90693
794.06        80.79674
794.47        81.98505
794.88        83.61916
795.29        83.60269
795.71        80.86508
796.12        78.67212
796.53         77.3666
796.94        77.03979
797.35        77.78242
797.76        79.27923
798.18        80.87191
798.59        81.90755
799.00        82.00191
799.41        81.05533
799.82        79.58893
800.23        78.69842
800.64        78.63271
801.06        78.98534
801.47        79.60102
801.88        80.11684
802.29        80.37972
802.70        80.54095
803.11        80.62626
803.52        80.63805
803.93        80.60782
804.34        80.48073
804.75         80.3261
805.17        80.36679
805.58        80.67938
805.99         80.9289
806.40        80.99921
806.81        81.39668
807.22        81.73843
807.63         80.5109
808.04        78.30756
808.45        77.40243
808.86        78.00395
809.27         79.0015
809.68        79.94973
810.09         80.4938
810.50        80.40334
810.91        79.80975
811.32        79.00475
811.73         78.4605
812.14        78.31831
812.55        78.40158
812.96        78.66129
813.37        79.00126
813.78         79.3437
814.19        79.77066
814.60        80.07413
815.01        79.91615
815.42         79.2681
815.83        78.18472
816.24        77.08644
816.65        76.72324
817.05        77.31816
817.46        78.63155
817.87        80.11382
818.28        80.76611
818.69         80.3177
819.10        79.01474
819.51        77.49931
819.92        76.86131
820.33        77.37587
820.74        78.70581
821.14        80.20928
821.55        80.74553
821.96        80.07874
822.37        78.61536
822.78        76.96195
823.19        76.00504
823.60        75.98709
824.00        76.68745
824.41        77.69769
824.82        78.42881
825.23        78.61632
825.64        78.44993
826.04        78.12566
826.45        77.92545
826.86        77.92641
827.27        77.99876
827.68        78.03868
828.08        77.93344
828.49        77.59357
828.90         77.1452
829.31         76.6824
829.72         76.3506
830.12        76.23971
830.53        76.28342
830.94        76.49215
831.35        76.86034
831.75        77.40567
832.16        78.05869
832.57        78.74509
832.97         79.2731
833.38        79.50028
833.79        79.45042
834.20        79.24495
834.60        79.08382
835.01        79.04777
835.42        79.09046
835.82        79.08704
836.23        78.74259
836.64        78.06407
837.04        77.18762
837.45        76.37688
837.86        76.04101
838.26        76.27582
838.67        76.91892
839.08        77.74519
839.48        78.33479
839.89        78.50156
840.29        78.37123
840.70        78.04267
841.11        77.66029
841.51        77.29866
841.92        76.88764
842.33         76.5114
842.73        76.32713
843.14        76.33054
843.54        76.54768
843.95         76.8031
844.35        76.85269
844.76        76.62659
845.17        76.20477
845.57        75.76188
845.98        75.58142
846.38         75.7224
846.79         76.0708
847.19        76.49358
847.60        76.66393
848.00        76.53627
848.41        76.20023
848.81        75.81876
849.22         75.5565
849.62        75.51759
850.03        75.64563
850.43        75.94979
850.84         76.3564
851.24        76.85148
851.65        77.26509
852.05        77.68846
852.46        78.09452
852.86        78.46896
853.27        78.84908
853.67        78.83611
854.07        77.94645
854.48        76.25945
854.88        73.97553
855.29        71.86881
855.69        71.04694
856.10        71.70879
856.50        73.72725
856.90        76.38456
857.31        77.99705
857.71        78.02641
858.12        76.87863
858.52        75.30481
858.92        74.31161
859.33        74.12817
859.73        74.46648
860.13        75.18272
860.54        75.97051
860.94        76.72651
861.34        77.52165
861.75        78.20321
862.15        78.61003
862.55        78.67073
862.96        78.37137
863.36        77.91363
863.76        77.64066
864.17        77.66274
864.57        77.96239
864.97        78.38688
865.38        78.67459
865.78        78.81012
866.18        78.79633
866.58         78.7983
866.99        79.07629
867.39        79.74146
867.79         80.7413
868.19        81.69406
868.60        81.89732
869.00         81.1953
869.40         79.7856
869.80         78.4494
870.21        78.40838
870.61        80.00285
871.01        82.84908
871.41        85.98375
871.81         87.7617
872.22        87.73199
872.62         86.3855
873.02        84.60619
873.42        83.92554
873.82        84.54008
874.22        85.69389
874.63        86.95837
875.03        87.48135
875.43        86.85679
875.83        86.27213
876.23        84.55793
876.63         83.8521
877.03        84.13497
877.44        85.58714
877.84         103.482
878.24        92.69025
878.64         92.9767
879.04        92.68643
879.44        88.86498
879.84        86.84464
880.24        90.30972
880.64        92.09313
881.04        92.84885
881.44        93.16412
881.84        92.57673
882.24        91.31481
882.65        90.16125
883.05        89.83467
883.45        90.46732
883.85         92.0391
884.25          93.976
884.65        95.05612
885.05        94.90648
885.45        93.94577
885.85        92.78428
886.25        92.25744
886.65        92.55853
887.05        93.40829
887.45        94.50785
887.85        95.32837
888.25        95.65434
888.65        95.66906
889.04        95.48067
889.44        95.29744
889.84        95.17052
890.24        94.98452
890.64        94.77915
891.04        94.64191
891.44          94.574
891.84        94.60926
892.24        94.59484
892.64        94.23536
893.04        93.55513
893.44        92.74054
893.83         92.0999
894.23        92.08041
894.63         92.7359
895.03        93.87259
895.43        95.33102
895.83        96.78666
896.23        98.01054
896.63        99.03345
897.02        99.58359
897.42        99.27036
897.82        98.13261
898.22        96.36193
898.62        94.52954
899.01        93.46442
899.41        93.37957
899.81        94.01691
900.21        95.03234
900.61        95.83167
901.00        96.19022
901.40        96.27242
901.80        96.16918
902.20        96.02667
902.59        95.91426
902.99        95.76207
903.39        95.56413
903.79        95.33578
904.18        95.11435
904.58        94.98476
904.98        95.02575
905.38        95.34704
905.77         95.8996
906.17         96.5561
906.57        97.20712
906.96        97.75124
907.36         98.0685
907.76        98.21196
908.15        98.01823
908.55        97.11924
908.95         95.5846
909.34        93.55289
909.74        91.59776
910.14        90.42571
910.53        90.24457
910.93        90.92585
911.33        92.15101
911.72        93.29554
912.12        94.00819
912.52        94.37599
912.91          94.572
913.31        94.85783
913.70        95.35142
914.10        95.96358
914.49        96.43839
914.89        96.14249
915.29        94.98163
915.68        93.21126
916.08        91.70181
916.47        91.18083
916.87        91.70649
917.26        93.06187
917.66        94.48318
918.05         94.7522
918.45        93.60194
918.84        91.48071
919.24        89.33404
919.64        88.54138
920.03        89.44419
920.42        91.62265
920.82        94.29835
921.21        96.20718
921.61        96.72976
922.00        96.27766
922.40         95.2504
922.79        94.20743
923.19         93.3946
923.58        92.56278
923.98         91.6274
924.37        90.81163
924.77        90.42017
925.16        88.52938
925.55        89.16174
925.95        89.68862
926.34        91.26944
926.74        93.36038
927.13        95.48023
927.52        96.56695
927.92        96.46606
928.31        95.56028
928.70        94.08665
929.10        92.48933
929.49        90.96092
929.89        89.39915
930.28        88.40743
930.67        88.99967
931.07        91.14225
931.46        94.57304
931.85        97.93838
932.24        99.17608
932.64        97.87889
933.03        94.49506
933.42        90.09605
933.82        87.09629
934.21        86.29737
934.60        87.00076
934.99        88.29502
935.39         89.1977
935.78         89.5182
936.17        89.37253
936.56        88.47908
936.96        88.75262
937.35        86.88756
937.74        85.83643
938.13        85.14854
938.53         85.5892
938.92        87.14946
939.31        89.84614
939.70        92.88077
940.09        93.98634
940.49        92.43567
940.88        89.15376
941.27        85.80867
941.66         84.3916
942.05        85.13396
942.44        87.35979
942.84        90.24061
943.23        92.36913
943.62        93.09956
944.01        92.85194
944.40        91.96565
944.79        90.93748
945.18        89.95816
945.57        88.79967
945.97        87.50764
946.36        86.40196
946.75        85.75237
947.14        85.61674
947.53        85.86859
947.92        86.29429
948.31        86.83782
948.70        87.55767
949.09        88.32617
949.48        88.82625
949.87        88.88132
950.26        88.46748
950.65        87.85431
951.04        87.49948
951.43        87.50617
951.82        87.79791
952.21        88.00422
952.60        87.52795
952.99        86.28111
953.38        84.46538
953.77        82.68524
954.16        81.80204
954.55        81.96155
954.94        82.97001
955.33        84.08562
955.72        84.05103
956.11        82.59727
956.50        80.08232
956.89        77.54727
957.28        76.91032
957.66        78.76778
958.05        82.24195
958.44        86.14977
958.83        88.74801
959.22        89.53207
959.61        88.94614
960.00        87.50058
960.39        86.03307
960.78        84.88877
961.16        83.88869
961.55        82.85961
961.94        81.59686
962.33        80.15711
962.72        78.78637
963.11        77.84856
963.49        77.73471
963.88        78.44783
964.27          79.888
964.66        81.54256
965.04        82.33226
965.43        81.78194
965.82        80.28611
966.21        78.58896
966.60        77.65999
966.98        77.69527
967.37        78.38142
967.76        79.34846
968.15        79.86805
968.53        79.69109
968.92        79.03291
969.31        78.26215
969.69        77.82726
970.08         77.8364
970.47        78.17411
970.86        78.54006
971.24        78.43269
971.63        77.72554
972.02        76.56306
972.40         75.4875
972.79        75.43292
973.17        76.75672
973.56        79.10232
973.95        81.73839
974.33         83.2259
974.72        83.01658
975.11        81.53635
975.49        79.66091
975.88        78.62059
976.26        78.61373
976.65        79.36629
977.04        80.18479
977.42        79.50494
977.81        76.95986
978.19        73.35452
978.58        70.41763
978.96        69.79416
979.35        71.69524
979.74        75.76827
980.12        81.19823
980.51        84.91563
980.89        85.84457
981.28        84.66879
981.66         82.5481
982.05        81.03224
982.43        80.45937
982.82        80.31886
983.20        80.60557
983.59        81.42004
983.97         82.7932
984.35        84.86883
984.74        87.01596
985.12        88.03635
985.51        87.14577
985.89        84.50885
986.28         81.0321
986.66         78.1851
987.04        76.73845
987.43        76.47237
987.81        76.66538
988.20        76.37197
988.58        75.25086
988.96         73.0523
989.35        70.43274
989.73        70.50351
990.12        74.66992
990.50        81.23761
990.88        86.03216
991.27        86.03146
991.65        81.80208
992.03        74.35372
992.42        66.32166
992.80        62.65842
993.18        64.76397
993.56        69.96181
993.95        75.76329
994.33        79.95026
994.71         81.9623
995.10        82.88899
995.48        82.70152
995.86        81.06488
996.24        78.02555
996.63        73.18826
997.01        67.72334
997.39        65.35599
997.77        67.70666
998.15        74.03694
998.54        81.05447
998.92        84.18591
999.30        82.07363
999.68        75.87607
1000.06        67.39827
1000.45        61.15522
1000.83        59.05419
1001.21        59.61472
1001.59        61.69141
1001.97        64.12497
1002.35        66.54105
1002.73        69.79194
1003.12        72.85181
1003.50        72.46678
1003.88         67.6675
1004.26        60.36983
1004.64        53.78339
1005.02        50.52423
1005.40        50.67789
1005.78        53.85455
1006.16        61.22642
1006.54        70.93822
1006.92         77.5218
1007.30        80.33881
1007.69        80.43369
1008.07        78.95892
1008.45         75.7777
1008.83        68.35733
1009.21         50.3426
1009.59        8.790945
1009.97       -64.75067
1010.35       -111.1237
1010.73       -46.01433
1011.11        10.92895
1011.49        37.94344
1011.86        53.70477
1012.24        61.25464
1012.62        63.61237
1013.00        62.87725
1013.38        58.90034
1013.76        53.58732
1014.14        54.61971
1014.52        68.52818
1014.90        98.03876
1015.28        134.9063
1015.66         153.248
1016.04        137.9937
1016.41        94.85703
1016.79        48.63525
1017.17        25.85168
1017.55        24.33063
1017.93        30.59094
1018.31        38.36998
1018.69        44.94413
1019.06        50.66781
1019.44        57.23396
1019.82        65.96872
1020.20        75.59211
1020.58        82.96738
1020.95        82.62666
1021.33        53.81945
1021.71        595.9554
1022.09        162.6748
1022.46        142.1092
1022.84        138.0179
1023.22        142.7029
1023.60        162.6527
1023.97        370.3349
1024.35        17.58231
1024.73        57.66929
