SpectraSmart Spectrum 2.9.0.0
--------- Device Information -----------
Spectrum Name :  反射率_0
Saving Time :  2024/04/26 01:03:37
Spectro-Module Model Name : SE2030-DUVN
Spectro-Module Serial Number : OS361AC55029948
Wavelength Start : 200
Wavelength End : 1025
Wavelength Unit : Wavelength(nm)
Spectrum Unit : Reflectance(%)
-----------Spectrum Setting ------------
Integration Time : 20ms
Average : 10
Boxcar : 0
Background removal :  enabled
linearity correction :  enabled
SC :  disabled
Intensity correction :  disabled
DWT denoise :  enabled
savitzky-golay :  disabled
FFT :  disabled
Running average :  disabled
Kalman :  disabled
High pass :  disabled
---------------BEGIN--------------------
Wavelength(nm)             Reflectance(%)
200.29               0
200.75        88.07675
201.21        78.99319
201.67        69.52483
202.13        64.35629
202.58        63.85665
203.04         67.1402
203.50        72.02202
203.96        74.51318
204.42        73.72295
204.88        71.21344
205.34        68.76563
205.80         68.2408
206.26        70.32851
206.72        76.06006
207.18        87.93383
207.64        99.45725
208.10        94.34855
208.55        81.38412
209.01        72.56475
209.47        68.81423
209.93         67.8575
210.39        68.47202
210.85        69.41946
211.31        68.50703
211.77        65.33513
212.23        60.93307
212.69        57.41966
213.14        58.11452
213.60        63.20149
214.06        71.61605
214.52        80.75386
214.98        86.73157
215.44        88.35201
215.90        86.64217
216.36        83.09308
216.81         79.7332
217.27        77.58768
217.73        76.19562
218.19        74.49493
218.65        70.82421
219.11        64.32567
219.57        54.10597
220.02        41.38642
220.48        33.99716
220.94        36.28392
221.40        46.28481
221.86          56.102
222.32        57.44827
222.77        51.17805
223.23         41.8091
223.69        33.74079
224.15        31.47108
224.61        34.50075
225.06        40.50366
225.52        46.50637
225.98        48.88328
226.44        47.00183
226.90        42.60823
227.36         37.4826
227.81        33.92327
228.27        32.83231
228.73        33.19971
229.19        34.70774
229.65        36.88057
230.10        39.20148
230.56        41.61407
231.02        43.59851
231.48        44.52235
231.93        44.42384
232.39        43.53234
232.85        42.33961
233.31        41.67659
233.77        41.74115
234.22        42.32951
234.68        43.07463
235.14        43.17887
235.60         42.4477
236.05        41.24419
236.51        40.04518
236.97        39.42991
237.43        39.61813
237.88         40.6178
238.34        42.36708
238.80        44.56505
239.26        46.80874
239.71        49.03986
240.17         51.1213
240.63        53.44504
241.08        56.13209
241.54        58.88296
242.00        61.31291
242.46        63.14528
242.91        64.72705
243.37        66.24406
243.83        71.30273
244.28        100.4633
244.74        158.4621
245.20        157.3983
245.66        140.9366
246.11        134.5498
246.57        134.3378
247.03        138.4367
247.48        141.6771
247.94        98.66257
248.40        84.79546
248.85        85.29064
249.31        87.38812
249.77        89.35232
250.22        91.55159
250.68        94.81918
251.14        98.68999
251.59        99.07302
252.05        93.41171
252.51        84.51451
252.96        76.18851
253.42        71.84299
253.88        70.67927
254.33        71.20419
254.79        73.72907
255.25        77.92842
255.70        82.54398
256.16        87.19362
256.62        89.54949
257.07        87.25739
257.53        81.52567
257.99        73.58894
258.44        66.06993
258.90        62.83874
259.35        62.90275
259.81        64.50169
260.27         65.2615
260.72        62.94472
261.18        58.29167
261.63        52.35019
262.09        46.82889
262.55        43.04265
263.00        40.98836
263.46        40.08804
263.91        39.44048
264.37         38.3173
264.83        36.54789
265.28        34.31808
265.74        32.22919
266.19        30.95889
266.65        30.67671
267.11        30.96768
267.56        31.25172
268.02        30.83117
268.47        29.59928
268.93        27.80145
269.38        25.80099
269.84        24.45218
270.30        23.99595
270.75        24.20308
271.21        24.64376
271.66        24.67804
272.12        24.13101
272.57        23.20758
273.03        22.25107
273.48         21.6977
273.94         21.6541
274.39        21.91425
274.85        22.18712
275.31        22.05962
275.76        21.45423
276.22        20.55994
276.67        19.62135
277.13        19.06002
277.58        18.91249
278.04        19.04483
278.49        19.21803
278.95         19.1412
279.40        18.73913
279.86         18.1669
280.31        17.53507
280.77        17.09931
281.22        16.87843
281.68        16.79764
282.13        16.77466
282.59         16.7163
283.04        16.59727
283.50        16.48739
283.95        16.36791
284.41        16.21212
284.86        16.02678
285.32        15.81958
285.77        15.69195
286.22        15.85223
286.68        16.28694
287.13        16.89562
287.59        17.45668
288.04        17.64395
288.50        17.42183
288.95         16.8949
289.41        16.28025
289.86        15.81082
290.32        15.60984
290.77        15.60406
291.22         15.7672
291.68        16.01872
292.13        16.34095
292.59        16.76851
293.04        17.32458
293.50        18.03254
293.95        18.87245
294.40        19.79186
294.86        20.72696
295.31        21.60492
295.77        22.41636
296.22        23.19067
296.68         23.9612
297.13        24.74916
297.58        25.59051
298.04        26.50375
298.49        27.53272
298.95        28.78521
299.40        30.26973
299.85        31.95493
300.31        33.75726
300.76        35.53617
301.21        37.21734
301.67        38.84925
302.12        40.40395
302.58        41.93589
303.03        43.44826
303.48        44.94478
303.94        46.53534
304.39        48.33555
304.84        50.36452
305.30        52.58188
305.75         54.7849
306.20        56.67712
306.66        58.22276
307.11         59.4726
307.57        60.66152
308.02        62.04008
308.47        63.71679
308.93        65.60468
309.38        67.55642
309.83        69.38562
310.29        71.01299
310.74        72.46089
311.19        73.78308
311.65         75.0657
312.10        76.32952
312.55        77.55917
313.00        78.68302
313.46        79.59488
313.91        80.26232
314.36        80.74131
314.82        81.19205
315.27        81.81094
315.72        82.67635
316.18        83.73104
316.63        84.84495
317.08        85.75401
317.53        86.37997
317.99        86.78612
318.44         87.1283
318.89        87.67159
319.35        88.45603
319.80        89.41985
320.25        90.35405
320.70        90.91661
321.16        91.02882
321.61        90.80527
322.06        90.46483
322.51        90.35538
322.97        90.55023
323.42         90.9889
323.87        91.51455
324.32        91.85702
324.78        91.93016
325.23        91.86207
325.68        91.75605
326.13        91.80295
326.59        92.03593
327.04           92.42
327.49        92.88126
327.94        93.33286
328.39        93.73689
328.85        94.10058
329.30         94.4754
329.75        94.78172
330.20        95.03149
330.66        95.22849
331.11        95.50228
331.56        95.98861
332.01        96.72982
332.46        97.66478
332.92        98.68501
333.37         99.7786
333.82        100.8021
334.27        101.7646
334.72        102.5304
335.17        102.8971
335.63        102.8511
336.08         102.502
336.53        102.1073
336.98        102.1298
337.43        102.6822
337.88        103.6356
338.34        104.7594
338.79        105.7548
339.24        106.4635
339.69        106.9976
340.14        107.3535
340.59        107.5316
341.05        107.5826
341.50        107.4819
341.95        107.4059
342.40        107.6527
342.85        108.2727
343.30        109.1954
343.75         110.189
344.20        110.8288
344.66        111.0046
345.11        110.8164
345.56        110.4652
346.01         110.264
346.46        110.3056
346.91        110.4983
347.36        110.7435
347.81        110.8921
348.26        110.9077
348.72        110.8664
349.17        110.8102
349.62        110.8486
350.07        110.9942
350.52        111.1832
350.97        111.3507
351.42        111.4077
351.87        111.3335
352.32        111.1754
352.77         110.938
353.22        110.6286
353.67        110.2694
354.13        109.8671
354.58        109.4832
355.03        109.2768
355.48         109.254
355.93        109.3577
356.38        109.4175
356.83        109.1626
357.28        108.5347
357.73        107.6209
358.18        106.5824
358.63         105.676
359.08        104.9869
359.53        104.4615
359.98        104.0076
360.43        103.4756
360.88        102.8184
361.33        102.0682
361.78        101.3229
362.23        100.7343
362.68         100.328
363.13        100.0576
363.58        99.74322
364.03        99.10798
364.48         98.1116
364.93         96.8465
365.38        95.56692
365.83         94.6842
366.28        94.28169
366.73        94.21514
367.18        94.23303
367.63        93.92377
368.08        93.18378
368.53        92.17226
368.98        91.03931
369.43         90.0002
369.88        89.13402
370.33        88.36829
370.78        87.72256
371.23        87.24197
371.68        86.91442
372.13         86.7333
372.58        86.60856
373.03        86.37156
373.48        85.98188
373.93        85.49019
374.38        84.94929
374.83        84.44737
375.28        84.01039
375.72        83.58679
376.17        83.21814
376.62        82.95151
377.07        82.77201
377.52        82.65029
377.97        82.47974
378.42        82.08839
378.87        81.46204
379.32        80.69094
379.77        79.87171
380.22        79.13551
380.67        78.51596
381.11        77.96542
381.56        77.50842
382.01         77.1909
382.46        77.01283
382.91        76.98333
383.36        76.95938
383.81        76.71094
384.26        76.20039
384.71        75.47536
385.15        74.73833
385.60        74.36856
386.05        74.37405
386.50        74.63144
386.95         74.8591
387.40        74.59267
387.85        73.78714
388.29         72.6432
388.74        71.55462
389.19        70.77402
389.64        70.35168
390.09        70.16171
390.54        70.16691
390.98        70.30679
391.43        70.50793
391.88        70.74671
392.33        70.89963
392.78        70.69859
393.23        70.13865
393.67        69.52492
394.12        69.02904
394.57        68.17717
395.02        67.26349
395.47        67.39319
395.91        68.44823
396.36        69.03539
396.81        69.00141
397.26        69.06223
397.71        69.20881
398.15        69.02047
398.60         68.5854
399.05        68.12194
399.50        67.67966
399.95        66.90331
400.39        66.23705
400.84        65.99899
401.29        66.19621
401.74        66.20589
402.18        65.98582
402.63        65.82512
403.08        65.84519
403.53        66.06394
403.97        66.47462
404.42        67.02359
404.87        67.47427
405.32        67.43852
405.76        66.86147
406.21        65.94913
406.66        64.97831
407.11        64.42777
407.55        64.42387
408.00        64.58942
408.45        64.84607
408.90        65.54121
409.34        66.30464
409.79         66.0019
410.24        64.91803
410.68         64.4557
411.13        64.72124
411.58        64.93834
412.03         65.0355
412.47        65.25309
412.92        65.51218
413.37        65.78192
413.81        65.97887
414.26        66.00986
414.71        65.84647
415.15        65.51464
415.60        65.13365
416.05        64.91106
416.49        64.90773
416.94        65.09523
417.39        65.31503
417.83        65.27895
418.28        64.94661
418.73        64.41686
419.17         63.9422
419.62         63.9248
420.07        64.40018
420.51        65.22998
420.96        66.11342
421.41        66.50591
421.85        66.25896
422.30        65.75621
422.74        65.18577
423.19         64.6675
423.64        64.37804
424.08        64.83054
424.53        65.81327
424.98        66.42218
425.42        66.50484
425.87        66.63763
426.31         66.8704
426.76        66.75456
427.21        66.50622
427.65        66.87291
428.10        67.73856
428.54        68.52258
428.99         69.1583
429.44        69.39787
429.88        69.32077
430.33        70.17959
430.77        71.29462
431.22        70.19779
431.66        67.47111
432.11        66.07299
432.56        66.30949
433.00        66.95588
433.45        67.93475
433.89        69.93443
434.34        71.46404
434.78        73.09725
435.23        68.88292
435.67        67.30498
436.12        69.64353
436.57        70.92076
437.01        71.52688
437.46        71.78027
437.90        71.82086
438.35        71.65552
438.79        71.86876
439.24        71.76397
439.68        71.55573
440.13        71.14604
440.57        70.90794
441.02        71.88882
441.46        73.68228
441.91        74.82863
442.35        74.97112
442.80         74.1683
443.24        72.89514
443.69        73.36078
444.13        75.21243
444.58        75.14288
445.02        73.40532
445.47        73.24347
445.91         74.5247
446.36        74.90413
446.80        74.28307
447.24        74.06705
447.69        74.03002
448.13        74.20041
448.58        74.56549
449.02         75.0763
449.47        75.62567
449.91         76.0317
450.36        76.24271
450.80        76.28364
451.25        76.20667
451.69        76.06694
452.13        75.92105
452.58        75.76431
453.02         75.6402
453.47        75.66207
453.91        75.81581
454.36        76.07558
454.80        76.37492
455.24        76.42625
455.69        76.18646
456.13        76.03625
456.58        76.05975
457.02        75.27132
457.46        74.73649
457.91        75.05891
458.35        76.16132
458.79         76.5802
459.24        76.27154
459.68        75.87621
460.13        75.49091
460.57         75.2506
461.01        75.32818
461.46        74.42535
461.90        74.40995
462.34        74.90975
462.79        74.54037
463.23        74.75111
463.68        75.34769
464.12        75.79647
464.56        76.05721
465.01        75.96859
465.45         75.5351
465.89        75.31116
466.34        75.19944
466.78        74.32378
467.22        73.21096
467.67        72.60836
468.11        74.14709
468.55        74.88882
468.99         74.9922
469.44        74.64899
469.88         74.0896
470.32         74.0867
470.77        74.54833
471.21        74.55478
471.65        74.06282
472.10        73.77177
472.54        73.76221
472.98        73.79781
473.42        73.87112
473.87        74.21696
474.31        74.62658
474.75        74.47809
475.20        73.90092
475.64        73.66225
476.08        73.85419
476.52        73.85984
476.97        73.67008
477.41        73.93407
477.85        74.59251
478.29        74.03537
478.74        74.44931
479.18        74.02801
479.62        73.27348
480.06        73.81577
480.50        73.98364
480.95        74.48653
481.39        74.86827
481.83        73.75601
482.27        73.62838
482.72        74.20845
483.16        72.29277
483.60        72.51337
484.04        74.30826
484.48        74.70562
484.93        74.33003
485.37          76.201
485.81        76.53808
486.25        75.13721
486.69        101.6153
487.14        82.04762
487.58        51.06739
488.02        63.36317
488.46        72.53761
488.90        71.70059
489.34        73.21419
489.79        72.00794
490.23        74.49736
490.67        75.33566
491.11        74.02834
491.55        73.89275
491.99        74.47397
492.43        74.32195
492.88         73.5228
493.32         73.4862
493.76        73.66862
494.20        73.91349
494.64        73.95746
495.08        74.01581
495.52         74.1661
495.96        74.14639
496.41        73.94749
496.85        74.55153
497.29        75.58752
497.73        74.32738
498.17        71.88866
498.61        72.07327
499.05        74.87744
499.49        75.44292
499.93        75.35458
500.37         75.0751
500.82        74.51273
501.26        74.52057
501.70        74.86018
502.14        75.08797
502.58        75.02258
503.02        74.86259
503.46        74.60022
503.90        74.09352
504.34         73.5472
504.78        73.35327
505.22        73.56525
505.66        74.09777
506.10        74.74966
506.54        75.00463
506.98        74.72318
507.42        74.52601
507.86        74.13539
508.30        73.43833
508.74        73.85297
509.18         74.0892
509.62        74.44397
510.06        74.65798
510.50        74.67947
510.94        74.56957
511.38        74.40508
511.82        74.33601
512.26        74.39745
512.70        74.53416
513.14        74.69321
513.58        74.79784
514.02         74.8197
514.46        74.78583
514.90        74.72741
515.34        74.67525
515.78        74.63379
516.22        74.64485
516.66        74.69449
517.10        74.61578
517.54        74.40438
517.98        74.60135
518.42        74.49017
518.86        74.61479
519.30        74.75285
519.74        74.96278
520.18        75.20258
520.62        75.36096
521.06        75.44211
521.50        75.54585
521.93        75.65215
522.37        75.65276
522.81        75.55463
523.25        75.41908
523.69         75.3111
524.13        75.30783
524.57        75.42784
525.01        75.65054
525.45        75.90556
525.89        76.07638
526.32         76.1204
526.76        76.06139
527.20        75.95045
527.64        75.89186
528.08        75.92416
528.52        75.94918
528.96        75.88036
529.40        75.80183
529.83        75.74184
530.27        74.92194
530.71        74.91663
531.15        74.67757
531.59        74.68133
532.03        74.83581
532.46        75.11697
532.90        75.44615
533.34        75.76054
533.78        76.07101
534.22        76.30933
534.66        76.38483
535.09        76.27728
535.53        76.03676
535.97        75.73289
536.41        75.50698
536.85        75.40504
537.28        75.40078
537.72        75.44793
538.16        75.47898
538.60        75.47337
539.04        75.39727
539.47        75.27929
539.91        75.36335
540.35        75.57188
540.79        75.56548
541.22        75.36443
541.66        75.30981
542.10        75.40793
542.54         75.4641
542.97        75.46661
543.41          75.535
543.85        75.65611
544.29        75.75803
544.72        75.78716
545.16        75.80923
545.60        75.74422
546.04         75.3698
546.47        74.84887
546.91        74.62791
547.35        74.80981
547.79        75.33994
548.22         75.9445
548.66        76.22308
549.10        76.01083
549.53        75.20097
549.97        74.18736
550.41        73.75531
550.84         74.0339
551.28         74.6744
551.72        75.40195
552.15        75.84456
552.59        75.87624
553.03        75.62128
553.46        75.24046
553.90        75.05013
554.34        75.11672
554.77        75.25836
555.21        75.37695
555.65        75.54039
556.08        75.74486
556.52        75.12939
556.96        75.47865
557.39        75.23484
557.83        75.04107
558.27        75.17392
558.70        75.57764
559.14        75.84693
559.57        75.90558
560.01        75.95589
560.45        75.99596
560.88        75.99534
561.32         75.9459
561.75        75.71748
562.19        75.40074
562.63        75.00769
563.06        74.65842
563.50        74.72066
563.93        75.07948
564.37        75.24294
564.80         75.1431
565.24        75.08889
565.68        75.09995
566.11        75.09747
566.55        75.13847
566.98        75.20298
567.42        75.29833
567.85        75.47672
568.29         75.7567
568.72        75.81064
569.16        75.81512
569.60        76.26122
570.03          76.684
570.47        76.57782
570.90        76.24757
571.34        74.41638
571.77        74.88129
572.21        75.43445
572.64        75.05599
573.08        73.98654
573.51        70.60646
573.95        73.17144
574.38         77.7928
574.82         75.6189
575.25        75.29964
575.69        73.04075
576.12        71.62496
576.56        71.01145
576.99        72.41332
577.42         75.8903
577.86        76.04771
578.29        74.92918
578.73        78.97564
579.16        73.05528
579.60        66.66216
580.03        69.73656
580.47        74.17361
580.90        76.20531
581.33        74.90193
581.77        73.65878
582.20        80.82066
582.64        80.30951
583.07        68.82913
583.51        67.39201
583.94        66.33236
584.37        69.29553
584.81        72.89583
585.24        76.81954
585.68        78.51347
586.11        77.48507
586.54        71.87794
586.98        69.29597
587.41        69.91532
587.85        74.46227
588.28         76.5849
588.71        73.35954
589.15        70.77505
589.58        72.39374
590.01        72.59252
590.45        73.73675
590.88        74.61398
591.31          73.847
591.75        73.26811
592.18        73.31422
592.61        74.98364
593.05        75.58707
593.48         78.4566
593.91        79.35859
594.35        72.99519
594.78        71.34376
595.21         71.2618
595.65        74.56561
596.08        77.40224
596.51        74.01295
596.94        71.95507
597.38        72.53619
597.81        75.41969
598.24         77.0603
598.68        75.71622
599.11        74.28248
599.54        77.66454
599.97        79.22131
600.41        73.56242
600.84        73.69921
601.27        75.40668
601.70        74.07384
602.14        74.14546
602.57        73.07208
603.00        73.77182
603.43        75.62553
603.87         77.2524
604.30         76.7282
604.73        74.42122
605.16        72.71163
605.60        73.99715
606.03         75.1303
606.46        75.94565
606.89        76.10336
607.32        73.53341
607.76        73.43263
608.19        76.03027
608.62        75.11626
609.05        73.84219
609.48        74.46106
609.92        74.45718
610.35        74.20094
610.78        75.99126
611.21        76.95932
611.64        73.36147
612.07        74.16081
612.50        74.56203
612.94        75.02693
613.37        74.42701
613.80        74.72405
614.23        75.33197
614.66        75.20116
615.09        75.30398
615.52        75.39508
615.96        75.52839
616.39         75.8818
616.82        74.57909
617.25        74.15156
617.68        74.75831
618.11         75.3664
618.54        75.85944
618.97        75.37869
619.40        74.31355
619.84        74.31656
620.27        75.32633
620.70         76.0435
621.13        76.26737
621.56         75.6975
621.99        74.67856
622.42        75.59892
622.85        77.89011
623.28        77.17932
623.71        76.75978
624.14        76.12206
624.57        75.88605
625.00        75.59675
625.43        75.75285
625.86        75.29873
626.29        75.78345
626.72          76.183
627.15        76.04451
627.58        76.12937
628.01        76.20942
628.44        76.19645
628.87        76.14616
629.30        76.37302
629.73        76.77041
630.16        76.86892
630.59        76.60098
631.02        76.25329
631.45        75.92635
631.88         75.6544
632.31        75.47138
632.74        75.53294
633.17        75.52874
633.60        75.63194
634.03        75.71888
634.46        75.92051
634.89        76.21689
635.32        76.01787
635.75        76.20469
636.18        76.06329
636.61        75.93542
637.04        75.92725
637.47        76.05936
637.89        76.31573
638.32         76.5731
638.75        76.62534
639.18        76.41695
639.61        76.31984
640.04        75.88469
640.47        75.67157
640.90        75.56721
641.33        75.53983
641.76        75.54132
642.18         75.6125
642.61         75.7366
643.04        75.73279
643.47        75.54274
643.90         76.0513
644.33        75.68552
644.76        75.71536
645.18         75.6838
645.61        75.63249
646.04        75.55719
646.47        75.44753
646.90         75.3793
647.33         75.4292
647.75        75.62893
648.18        75.95726
648.61        76.22855
649.04        76.25782
649.47        75.96621
649.89        75.08229
650.32         74.0686
650.75        73.98981
651.18        74.80894
651.61        75.64597
652.03        76.07105
652.46        75.96643
652.89        75.71073
653.32        74.97226
653.74        74.17941
654.17        75.78446
654.60        76.73712
655.03        74.19915
655.46        74.75352
655.88         78.9934
656.31        84.02983
656.74        186.4965
657.16         120.852
657.59        42.55301
658.02        32.44472
658.45        56.65319
658.87        72.84132
659.30        75.95825
659.73        75.06762
660.15        72.36271
660.58        75.29484
661.01        77.17378
661.44        74.56624
661.86        73.83391
662.29        74.09705
662.72        75.11278
663.14        76.55953
663.57        76.50325
664.00        75.23714
664.42        74.95679
664.85        75.75108
665.27        76.18208
665.70        76.05214
666.13        75.86427
666.55        75.60917
666.98        75.14155
667.41        74.62512
667.83        74.38837
668.26        74.49522
668.69        74.80967
669.11        75.13023
669.54         75.4791
669.96        75.08582
670.39        74.69154
670.82        74.25842
671.24         73.9551
671.67        73.96085
672.09        74.44608
672.52        75.10905
672.94         75.8312
673.37          75.236
673.80        74.98498
674.22        74.81437
674.65        74.69968
675.07        74.65504
675.50        74.54934
675.92        74.43566
676.35        74.46992
676.77        74.65045
677.20        74.91682
677.62        75.23815
678.05        75.16765
678.47        75.30663
678.90        75.19019
679.32        75.06103
679.75        74.84753
680.17        74.86932
680.60        74.86353
681.02        74.86838
681.45        74.75832
681.87        74.52728
682.30        74.31944
682.72        74.19531
683.15        74.02541
683.57        73.94849
684.00        74.35048
684.42        75.17088
684.85        75.54044
685.27        75.40621
685.70        75.08776
686.12        74.69702
686.54         74.6665
686.97        74.50787
687.39        74.62966
687.82        74.77628
688.24           74.86
688.66        74.82331
689.09        74.71236
689.51        74.61297
689.94        74.61444
690.36        74.74825
690.78        74.96791
691.21        75.19431
691.63        75.31404
692.06        75.30008
692.48        75.19426
692.90        75.06998
693.33        75.02748
693.75        75.09708
694.17        75.25465
694.60        75.44209
695.02        75.56873
695.44         75.5743
695.87        75.59805
696.29        75.68789
696.71         75.5014
697.14        75.17853
697.56        75.60392
697.98        76.54473
698.41        76.27513
698.83        75.59464
699.25        75.19709
699.68        75.34476
700.10        75.32319
700.52        75.13714
700.94        75.19595
701.37        75.45107
701.79        75.71011
702.21        75.90019
702.64        76.08392
703.06        76.20515
703.48        76.16346
703.90        75.96569
704.33        75.64294
704.75        75.28815
705.17        75.14533
705.59        75.27426
706.01        75.48343
706.44        75.65922
706.86        76.26243
707.28        76.22596
707.70        76.40215
708.12        76.47836
708.55        76.36958
708.97        76.10267
709.39        75.87595
709.81         75.7589
710.23         75.6915
710.66        75.69694
711.08        75.88422
711.50        76.13352
711.92        76.21423
712.34        76.08426
712.76        75.79576
713.19        75.48931
713.61        75.42562
714.03        75.64454
714.45        76.06765
714.87        76.49664
715.29        76.62017
715.71        76.37506
716.13        75.86306
716.56        75.29363
716.98        75.03584
717.40        75.17319
717.82        75.59443
718.24        76.10662
718.66        76.38324
719.08        76.33196
719.50        76.05508
719.92        75.68703
720.34        75.45956
720.76        75.44202
721.19        75.43682
721.61        75.61788
722.03        75.73895
722.45         75.8305
722.87        75.91833
723.29        76.01152
723.71        76.10995
724.13        76.21066
724.55        76.30064
724.97        76.37305
725.39        76.42738
725.81        76.46381
726.23        76.48663
726.65        76.50183
727.07        76.51581
727.49        76.53536
727.91        76.56487
728.33        76.60467
728.75        76.65539
729.17        76.70937
729.59        76.75399
730.01        76.79886
730.43        76.84922
730.85        76.91092
731.27        77.01858
731.69        77.11092
732.10        77.06542
732.52        76.86686
732.94        76.59322
733.36        76.40945
733.78        76.43242
734.20        76.68341
734.62        77.44469
735.04        78.42525
735.46        78.36948
735.88        77.52811
736.30        77.68324
736.72        78.81106
737.13        79.23062
737.55        78.72456
737.97        78.66759
738.39          79.064
738.81        78.50515
739.23        77.37019
739.65        78.02795
740.06        80.04635
740.48        80.18737
740.90        78.60035
741.32         78.0751
741.74        78.79281
742.16        79.18191
742.57         79.2426
742.99        79.83224
743.41        80.79365
743.83        81.39694
744.25        81.52842
744.67        81.36979
745.08        81.08786
745.50         80.9538
745.92        81.06207
746.34        81.31144
746.75        81.61198
747.17        81.79279
747.59        81.83508
748.01        81.83768
748.42        81.89169
748.84        82.08451
749.26        82.50188
749.68        83.07719
750.09        83.69647
750.51        84.44164
750.93        85.04491
751.35        84.61032
751.76        83.45182
752.18        83.07038
752.60         83.5054
753.01        83.69977
753.43        83.61224
753.85        83.86762
754.27        84.46246
754.68        85.12978
755.10         85.7146
755.52        86.13604
755.93        86.31689
756.35        86.22106
756.77        86.02097
757.18         85.8624
757.60        85.80335
758.02        86.22624
758.43        86.74506
758.85        86.14265
759.26         84.2937
759.68        84.18477
760.10        86.05596
760.51        87.01458
760.93        86.11007
761.34        85.06695
761.76        84.55555
762.18        84.03553
762.59        83.88784
763.01         84.3426
763.42        85.33874
763.84        86.15297
764.26        86.65273
764.67        86.96054
765.09        87.01561
765.50        86.95602
765.92          86.673
766.33        85.26574
766.75        83.31219
767.16        82.67612
767.58        83.53552
768.00        84.96424
768.41          86.616
768.83        88.10795
769.24         88.8229
769.66         88.3056
770.07        86.99552
770.49        85.24235
770.90        83.65868
771.32        84.61152
771.73        87.34612
772.15        86.93369
772.56        83.84531
772.97        83.21651
773.39        84.97641
773.80        85.56502
774.22          84.759
774.63        84.68615
775.05        85.28067
775.46        85.55593
775.88        85.40028
776.29        85.09017
776.70        84.75703
777.12        84.65018
777.53        84.83918
777.95        85.17673
778.36        85.48973
778.77        85.48211
779.19        85.13815
779.60        84.56161
780.02        83.98221
780.43        83.85851
780.84        84.33647
781.26        84.75703
781.67        85.08347
782.09        86.35982
782.50        87.94905
782.91        87.00043
783.33        84.28579
783.74        83.45232
784.15        84.68524
784.57        85.61674
784.98        85.85877
785.39        85.98307
785.81        85.88049
786.22        85.23167
786.63        84.43241
787.04        84.23301
787.46        84.72431
787.87        85.67376
788.28        86.70873
788.70        87.18832
789.11        86.96122
789.52        86.27207
789.93        85.44281
790.35        84.91102
790.76        84.80405
791.17        85.02513
791.58        85.44186
792.00        85.75376
792.41         85.8503
792.82         85.9268
793.23        86.07218
793.65        85.79755
794.06        85.36286
794.47        86.24628
794.88        87.76138
795.29        87.18094
795.71        84.80442
796.12        82.82935
796.53        81.87537
796.94        81.87151
797.35         82.7784
797.76        84.01905
798.18        85.05411
798.59        85.80065
799.00        85.96405
799.41         85.1729
799.82        83.84984
800.23        83.04379
800.64        82.96326
801.06         83.2206
801.47        83.71483
801.88        84.15975
802.29        84.43156
802.70          84.668
803.11        84.84416
803.52        84.88129
803.93        84.79293
804.34        84.54327
804.75        84.29162
805.17        84.39642
805.58        84.95296
805.99        85.59985
806.40        86.07152
806.81        86.55729
807.22        86.65057
807.63        85.07656
808.04         82.5483
808.45        81.39212
808.86        81.87115
809.27        82.90598
809.68        84.02599
810.09        84.78136
810.50        84.89899
810.91        84.52771
811.32        83.92986
811.73        83.53484
812.14        83.46547
812.55         83.5281
812.96        83.67422
813.37        83.83137
813.78        83.94928
814.19         84.1393
814.60        84.20737
815.01        83.81945
815.42        82.96053
815.83        81.69372
816.24         80.5011
816.65        80.23061
817.05        81.11218
817.46        82.85757
817.87        84.79552
818.28        85.72475
818.69        85.31194
819.10        83.84814
819.51        82.05759
819.92        81.18313
820.33        81.55914
820.74         82.8108
821.14        84.28651
821.55        84.82336
821.96        84.17209
822.37        82.75547
822.78        81.15652
823.19        80.21664
823.60         80.1654
824.00        80.78449
824.41        81.68259
824.82        82.32558
825.23        82.47668
825.64        82.33142
826.04        82.05378
826.45        81.87621
826.86        81.86388
827.27        81.88345
827.68        81.90791
828.08        81.95679
828.49        81.95179
828.90        81.98519
829.31        81.96342
829.72        81.69833
830.12        81.21354
830.53        80.56789
830.94        80.04309
831.35        80.01765
831.75        80.59234
832.16        81.58942
832.57        82.77284
832.97        83.63352
833.38        83.90474
833.79         83.7159
834.20        83.28054
834.60        82.93487
835.01         82.8093
835.42        82.80025
835.82        82.78824
836.23        82.49875
836.64        81.93112
837.04        81.22296
837.45        80.58927
837.86        80.35322
838.26        80.59106
838.67        81.15414
839.08        81.85568
839.48        82.35168
839.89        82.48212
840.29        82.35689
840.70        82.05886
841.11        81.70161
841.51         81.3546
841.92        80.96638
842.33        80.62877
842.73        80.51018
843.14        80.60114
843.54        80.90469
843.95        81.24498
844.35        81.38531
844.76        81.24507
845.17        80.90399
845.57        80.48154
845.98        80.17796
846.38        80.05101
846.79        80.01866
847.19        80.05821
847.60        80.03716
848.00        79.96114
848.41         79.8498
848.81        79.76071
849.22        79.69644
849.62        79.71528
850.03        79.81289
850.43         80.0103
850.84        80.24886
851.24        80.54861
851.65         80.7235
852.05        80.96422
852.46        81.40253
852.86         82.0454
853.27        82.88573
853.67        83.36381
854.07        82.74993
854.48        81.07426
854.88        78.59783
855.29        76.24757
855.69        75.36703
856.10        76.21282
856.50        78.61534
856.90        81.70461
857.31         83.4678
857.71        83.26727
858.12        81.63093
858.52        79.53674
858.92          78.283
859.33        78.14892
859.73        78.77377
860.13        79.87888
860.54        80.87624
860.94        81.56048
861.34        82.07865
861.75        82.41799
862.15        82.63882
862.55        82.73599
862.96        82.63002
863.36         82.4285
863.76        82.30985
864.17        82.33575
864.57        82.54358
864.97        82.87009
865.38        83.18513
865.78        83.49879
866.18        83.76202
866.58        84.04803
866.99        84.46983
867.39        85.09209
867.79        85.88543
868.19        86.54301
868.60        86.50217
869.00        85.67239
869.40        84.23816
869.80        82.89462
870.21        82.71056
870.61        84.01199
871.01        86.47862
871.41        89.32128
871.81        91.17135
872.22        91.61768
872.62        91.03252
873.02        90.08589
873.42         89.9587
873.82        90.82054
874.22        92.16009
874.63        93.54925
875.03        94.11278
875.43        93.45309
875.83        92.43968
876.23        90.83332
876.63        90.18382
877.03        90.60784
877.44        92.26112
877.84        101.3998
878.24        98.25859
878.64        98.22126
879.04        97.18871
879.44        94.70245
879.84        93.44974
880.24        95.45113
880.64        96.92406
881.04        98.13199
881.44        98.59698
881.84        97.69201
882.24        95.85558
882.65        94.15717
883.05         93.7319
883.45        94.75814
883.85        97.05341
884.25        99.79516
884.65        101.3405
885.05         101.172
885.45        99.87122
885.85         98.2422
886.25        97.38736
886.65        97.57064
887.05        98.39404
887.45        99.59039
887.85        100.6924
888.25        101.4395
888.65        102.0004
889.04        102.2338
889.44        101.9465
889.84        101.1627
890.24        99.94151
890.64        98.66247
891.04        97.92877
891.44        97.86528
891.84        98.33851
892.24         99.0472
892.64        99.40253
893.04        99.26812
893.44        98.90026
893.83        98.52262
894.23        98.47735
894.63        98.83175
895.03        99.39657
895.43        100.2109
895.83        101.3483
896.23         102.697
896.63        104.1932
897.02        105.3458
897.42        105.3621
897.82        104.1686
898.22        102.0953
898.62        99.84431
899.01        98.43371
899.41        98.14878
899.81        98.66176
900.21        99.64272
900.61        100.5309
901.00        101.0865
901.40        101.4703
901.80         101.689
902.20        101.7506
902.59        101.6896
902.99        101.4495
903.39        101.0903
903.79         100.758
904.18        100.5223
904.58        100.4239
904.98        100.4765
905.38        100.6858
905.77         100.994
906.17        101.3499
906.57         101.707
906.96        102.0411
907.36         102.273
907.76        102.4424
908.15        102.3992
908.55        101.7982
908.95        100.6833
909.34        99.13921
909.74        97.69465
910.14        96.99674
910.53        97.22054
910.93        98.25148
911.33        99.64684
911.72        100.5845
912.12        100.7422
912.52        100.3237
912.91        99.79402
913.31        99.78004
913.70        100.4345
914.10        101.5862
914.49        102.7738
914.89         102.764
915.29         101.254
915.68        98.76358
916.08        96.45348
916.47        95.33734
916.87        95.52331
917.26         96.6444
917.66        98.00505
918.05        98.52175
918.45        97.89571
918.84        96.53905
919.24        95.07323
919.64        94.36361
920.03        94.66184
920.42        95.66614
920.82          97.022
921.21        98.29098
921.61        99.09115
922.00        99.56441
922.40        99.66315
922.79        99.32189
923.19        98.63371
923.58        97.60234
923.98        96.36826
924.37        95.37389
924.77         94.9961
925.16        94.09846
925.55        94.75773
925.95        95.57364
926.34        97.08468
926.74        98.94677
927.13        100.7242
927.52        101.4465
927.92        101.0209
928.31        99.74364
928.70        98.03527
929.10        96.63515
929.49        95.75696
929.89        95.24411
930.28        95.25224
930.67        96.03684
931.07        97.42017
931.46         99.3549
931.85        101.1471
932.24         101.768
932.64        101.0405
933.03        99.15678
933.42        96.56086
933.82        94.38766
934.21        93.06933
934.60        92.43167
934.99         92.2643
935.39        92.31389
935.78         92.5341
936.17        92.90585
936.56        93.15025
936.96        93.82613
937.35        92.78118
937.74        91.81043
938.13        91.04355
938.53         91.2511
938.92        92.44262
939.31        94.53509
939.70        96.84132
940.09        97.53107
940.49        96.04621
940.88        93.19422
941.27         90.3046
941.66        88.91499
942.05        89.21631
942.44        90.69918
942.84         92.7715
943.23        94.47742
943.62         95.3159
944.01         95.5263
944.40        95.31037
944.79        94.97956
945.18        94.65147
945.57        94.19454
945.97        93.45716
946.36        92.35439
946.75        91.11071
947.14        90.01105
947.53         89.4008
947.92         89.5327
948.31         90.3694
948.70        91.87399
949.09        93.69405
949.48        94.92835
949.87        95.13336
950.26        94.43829
950.65        93.39333
951.04        92.91606
951.43        93.21186
951.82        94.00066
952.21        94.73512
952.60        94.54376
952.99        93.25335
953.38        91.22393
953.77        89.06706
954.16        87.62012
954.55        87.08633
954.94        87.27961
955.33            87.7
955.72        87.50819
956.11        86.51006
956.50        84.94466
956.89        83.50709
957.28        83.44376
957.66        85.12414
958.05        87.87354
958.44        90.77197
958.83        92.47403
959.22        92.63483
959.61        91.61178
960.00        89.95114
960.39        88.55824
960.78        87.75304
961.16        87.32246
961.55        86.99673
961.94        86.35552
962.33        85.34174
962.72        84.23743
963.11        83.33046
963.49        82.92527
963.88        83.05352
964.27        83.62422
964.66         84.4203
965.04        85.01006
965.43        85.10028
965.82        84.83669
966.21        84.49525
966.60        84.47488
966.98         84.8609
967.37        85.47482
967.76        86.07097
968.15        86.17795
968.53        85.67789
968.92          84.743
969.31        83.70004
969.69        82.92646
970.08        82.53057
970.47        82.45096
970.86        82.50981
971.24        82.40167
971.63        82.03455
972.02        81.48112
972.40          81.097
972.79        81.46353
973.17        82.81586
973.56        84.85715
973.95        86.95634
974.33         87.9036
974.72        87.28419
975.11        85.48306
975.49        83.41091
975.88        82.33457
976.26        82.43845
976.65        83.46902
977.04        84.64291
977.42          84.141
977.81        81.47416
978.19        77.50069
978.58        74.14505
978.96        73.29108
979.35        75.17831
979.74        79.40327
980.12        84.99606
980.51        88.54546
980.89         88.9166
981.28        86.96175
981.66        84.12949
982.05        82.30704
982.43        81.83681
982.82        82.07352
983.20         82.7937
983.59        83.78127
983.97        84.98902
984.35        86.64382
984.74        88.24178
985.12        88.92963
985.51         88.1103
985.89        85.86002
986.28        83.00123
986.66        80.83781
987.04         79.9969
987.43        80.24549
987.81        80.83341
988.20        80.82904
988.58        79.95418
988.96         78.0426
989.35        75.67101
989.73        75.75561
990.12        79.56863
990.50        85.54425
990.88        90.00904
991.27        90.41681
991.65        87.25767
992.03        81.38726
992.42        74.87553
992.80        71.56014
993.18        72.65579
993.56        76.13306
993.95        80.14903
994.33        83.11735
994.71        84.59512
995.10        85.46384
995.48        85.57654
995.86        84.46384
996.24        82.10158
996.63        78.11368
997.01        73.72232
997.39        72.55016
997.77        76.01319
998.15        83.25449
998.54        90.57172
998.92        92.93372
999.30        88.94785
999.68        79.79728
1000.06        68.14773
1000.45         60.4604
1000.83        59.23884
1001.21        62.31084
1001.59         67.1271
1001.97        70.94168
1002.35        73.16297
1002.73        74.94498
1003.12        75.81474
1003.50        74.51152
1003.88        70.98431
1004.26        66.12109
1004.64        61.97418
1005.02        60.31431
1005.40        61.29843
1005.78        65.13055
1006.16        72.67887
1006.54        81.19916
1006.92        85.69583
1007.30        86.29937
1007.69        85.26791
1008.07        84.50581
1008.45        84.21494
1008.83        83.77696
1009.21        81.27209
1009.59        67.28732
1009.97        17.70224
1010.35       -62.99773
1010.73       -59.64099
1011.11       -12.43327
1011.49        24.28053
1011.86        50.70658
1012.24         65.8853
1012.62        72.48765
1013.00        73.92225
1013.38        71.87738
1013.76        68.04659
1014.14        68.18818
1014.52        77.16772
1014.90        95.83233
1015.28        119.2269
1015.66        132.3238
1016.04        125.6338
1016.41        101.9571
1016.79        74.55118
1017.17        57.44609
1017.55        51.82451
1017.93        51.58278
1018.31         53.5164
1018.69        56.27579
1019.06        59.86256
1019.44        64.71944
1019.82        72.60534
1020.20        85.10806
1020.58        103.8386
1020.95        133.3504
1021.33         183.603
1021.71       -399.3972
1022.09        79.99779
1022.46        110.4672
1022.84        123.6352
1023.22        135.6514
1023.60        159.3778
1023.97        377.1701
1024.35        13.14708
1024.73        59.80077
