SpectraSmart Spectrum 2.9.0.0
--------- Device Information -----------
Spectrum Name :  反射率_0
Saving Time :  2024/04/26 01:32:46
Spectro-Module Model Name : SE2030-DUVN
Spectro-Module Serial Number : OS361AC55029948
Wavelength Start : 200
Wavelength End : 1025
Wavelength Unit : Wavelength(nm)
Spectrum Unit : Reflectance(%)
-----------Spectrum Setting ------------
Integration Time : 20ms
Average : 10
Boxcar : 0
Background removal :  enabled
linearity correction :  enabled
SC :  disabled
Intensity correction :  disabled
DWT denoise :  enabled
savitzky-golay :  disabled
FFT :  disabled
Running average :  disabled
Kalman :  disabled
High pass :  disabled
---------------BEGIN--------------------
Wavelength(nm)             Reflectance(%)
200.29               0
200.75        93.60465
201.21        85.77591
201.67        76.01143
202.13        69.87348
202.58          68.204
203.04        69.38975
203.50        72.27815
203.96        74.96452
204.42         76.5517
204.88        77.77276
205.34        78.75886
205.80        79.68505
206.26        80.92018
206.72        82.66663
207.18        85.72585
207.64        90.04217
208.10        91.06549
208.55        88.39317
209.01        85.67339
209.47        83.53038
209.93        81.51347
210.39        79.73184
210.85        77.23002
211.31        72.77363
211.77        66.82991
212.23        59.83516
212.69        54.97395
213.14        57.26537
213.60        66.84019
214.06        82.22351
214.52        97.69878
214.98        104.5056
215.44        101.0014
215.90        90.25714
216.36          77.417
216.81        69.86623
217.27        69.23778
217.73        72.76342
218.19        76.80695
218.65        76.63992
219.11        70.69952
219.57        58.82685
220.02        42.52848
220.48        31.41759
220.94        31.60434
221.40        40.71403
221.86        50.68429
222.32        52.84953
222.77        47.68629
223.23        39.75052
223.69        33.01698
224.15        31.47997
224.61        34.71852
225.06        40.59151
225.52        46.48124
225.98        49.30666
226.44        48.45732
226.90        45.38628
227.36        41.52913
227.81        38.70985
228.27         37.7374
228.73        37.81264
229.19         38.7059
229.65        40.09419
230.10        41.62296
230.56        43.26064
231.02        44.69038
231.48        45.51328
231.93        45.72596
232.39        45.47009
232.85        44.95625
233.31         44.5715
233.77        44.41813
234.22        44.39839
234.68        44.41755
235.14        44.23394
235.60        43.82368
236.05        43.36501
236.51        43.02861
236.97        42.97421
237.43        43.32821
237.88        44.22457
238.34         45.7387
238.80        47.95491
239.26        50.66959
239.71        53.68927
240.17        56.69865
240.63        59.82364
241.08        63.03587
241.54        66.05582
242.00        68.58504
242.46        70.47709
242.91        72.23525
243.37        74.25197
243.83        80.46842
244.28        110.8516
244.74        164.8926
245.20        158.8186
245.66        142.1348
246.11        138.0647
246.57        143.5014
247.03         164.149
247.48        220.2182
247.94        173.6593
248.40        109.6546
248.85        91.98357
249.31          87.999
249.77        89.51682
250.22         94.7694
250.68        104.6126
251.14        119.0377
251.59        129.3098
252.05        126.1624
252.51        113.2789
252.96        98.71662
253.42        90.47005
253.88        88.08048
254.33        88.62952
254.79        91.52766
255.25        95.33127
255.70        98.82822
256.16        102.5168
256.62        104.5766
257.07        103.0601
257.53        98.99165
257.99        92.97738
258.44        87.10232
258.90        84.82607
259.35        85.00021
259.81        86.28142
260.27        86.39526
260.72         83.1699
261.18        77.58627
261.63        70.67464
262.09        64.32368
262.55        59.93724
263.00        57.47066
263.46        56.32481
263.91        55.50136
264.37        54.30719
264.83        52.48249
265.28        50.18042
265.74        47.91222
266.19        46.16871
266.65        45.21389
267.11        44.74933
267.56        44.30903
268.02        43.35028
268.47        41.73174
268.93        39.64506
269.38        37.43824
269.84        35.95506
270.30        35.41951
270.75        35.59377
271.21        35.98136
271.66        35.82698
272.12        34.95014
272.57        33.60047
273.03        32.19597
273.48        31.27418
273.94        30.98643
274.39        31.08474
274.85        31.29436
275.31        31.20952
275.76        30.72136
276.22        30.00394
276.67        29.21131
277.13        28.65778
277.58        28.35251
278.04        28.21632
278.49        28.06526
278.95        27.71736
279.40          27.113
279.86        26.39346
280.31        25.64437
280.77          25.104
281.22         24.7772
281.68        24.61199
282.13        24.52265
282.59        24.42789
283.04        24.29181
283.50        24.18415
283.95        24.07009
284.41        23.91538
284.86        23.72031
285.32        23.50306
285.77        23.36721
286.22         23.5369
286.68        24.00137
287.13        24.64294
287.59        25.24558
288.04        25.47643
288.50         25.3036
288.95        24.83039
289.41        24.25797
289.86        23.77932
290.32        23.52577
290.77        23.43097
291.22        23.52421
291.68        23.80653
292.13        24.26879
292.59        24.92555
293.04        25.73375
293.50        26.61295
293.95        27.52253
294.40        28.45118
294.86        29.40194
295.31        30.40242
295.77        31.46798
296.22        32.58533
296.68        33.74656
297.13        34.90548
297.58        36.06396
298.04        37.25481
298.49        38.50634
298.95          39.915
299.40        41.48826
299.85        43.19116
300.31        44.97321
300.76        46.74827
301.21        48.45477
301.67         50.1395
302.12        51.72761
302.58        53.21882
303.03        54.60572
303.48        55.92974
303.94         57.3538
304.39        59.06291
304.84        61.09046
305.30        63.35836
305.75        65.62397
306.20        67.54261
306.66        69.05637
307.11        70.21962
307.57        71.26019
308.02        72.39573
308.47        73.75301
308.93         75.2756
309.38        76.85464
309.83        78.37472
310.29        79.78237
310.74        81.07317
311.19        82.31468
311.65        83.60697
312.10        84.94926
312.55        86.31522
313.00        87.54192
313.46        88.37753
313.91        88.76788
314.36        88.82013
314.82        88.81397
315.27        89.12295
315.72        89.87314
316.18        90.95861
316.63        92.17776
317.08        93.14455
317.53        93.73676
317.99        94.04641
318.44         94.2702
318.89        94.73523
319.35        95.49606
319.80        96.47585
320.25        97.40858
320.70        97.86601
321.16        97.76237
321.61        97.24746
322.06        96.64532
322.51        96.46217
322.97        96.79336
323.42        97.52577
323.87        98.37786
324.32        98.86424
324.78        98.83668
325.23        98.49323
325.68        98.03273
326.13        97.80834
326.59        97.90787
327.04        98.24989
327.49        98.73616
327.94        99.24039
328.39        99.70136
328.85        100.1456
329.30        100.5999
329.75        100.9225
330.20        101.1165
330.66        101.1981
331.11        101.3471
331.56        101.7854
332.01        102.5797
332.46        103.6441
332.92        104.8363
333.37        106.0951
333.82        107.2377
334.27        108.2739
334.72        109.0596
335.17        109.3819
335.63        109.2339
336.08        108.7457
336.53        108.1765
336.98        107.9934
337.43        108.3307
337.88        109.0733
338.34        110.0693
338.79        111.1453
339.24        112.1599
339.69        113.1852
340.14        114.0892
340.59        114.6422
341.05        114.8207
341.50        114.6505
341.95        114.4115
342.40        114.5687
342.85        115.2175
343.30        116.2353
343.75        117.3404
344.20        118.0252
344.66        118.1565
345.11        117.8763
345.56         117.417
346.01        117.1263
346.46        117.1151
346.91        117.2854
347.36        117.5381
347.81        117.7249
348.26        117.8093
348.72         117.868
349.17        117.9484
349.62        118.1617
350.07        118.5096
350.52         118.912
350.97        119.2748
351.42        119.4753
351.87        119.4784
352.32        119.3273
352.77        119.0432
353.22        118.6638
353.67        118.2234
354.13        117.7367
354.58        117.2396
355.03        116.8476
355.48        116.5773
355.93         116.406
356.38        116.2461
356.83        115.9488
357.28        115.4766
357.73        114.8691
358.18        114.1973
358.63        113.5789
359.08        113.0456
359.53        112.5588
359.98        112.0659
360.43         111.487
360.88        110.7963
361.33        110.0166
361.78         109.198
362.23        108.4171
362.68        107.7101
363.13        107.0832
363.58        106.4758
364.03        105.7879
364.48        105.0022
364.93        104.1339
365.38        103.3146
365.83        102.7586
366.28        102.4806
366.73        102.3889
367.18        102.2548
367.63        101.7132
368.08        100.7065
368.53        99.39565
368.98        98.00162
369.43        96.84991
369.88        96.03719
370.33         95.4623
370.78        95.08339
371.23        94.83015
371.68        94.64471
372.13        94.54463
372.58        94.43331
373.03        94.14024
373.48        93.64177
373.93        92.99252
374.38        92.30111
374.83        91.74458
375.28        91.36745
375.72        91.09759
376.17        90.93018
376.62        90.83046
377.07        90.75115
377.52        90.67604
377.97        90.50902
378.42        90.09964
378.87         89.4426
379.32        88.62212
379.77        87.73112
380.22        86.89645
380.67        86.15755
381.11        85.47909
381.56        84.90935
382.01        84.52965
382.46        84.34773
382.91        84.35899
383.36        84.40003
383.81        84.20582
384.26        83.72596
384.71        83.01822
385.15        82.27885
385.60        81.88862
386.05        81.85545
386.50        82.05206
386.95         82.2245
387.40        81.95542
387.85        81.20778
388.29        80.16171
388.74        79.17256
389.19        78.42389
389.64        77.95198
390.09        77.63003
390.54        77.48811
390.98        77.58108
391.43        77.86578
391.88        78.29581
392.33        78.61196
392.78        78.38927
393.23        77.62475
393.67        76.56988
394.12        75.62347
394.57         74.8828
395.02        74.54282
395.47        74.98101
395.91        76.01374
396.36        76.70944
396.81        76.88686
397.26        76.92661
397.71         76.8623
398.15        76.49347
398.60         75.9477
399.05        75.43057
399.50         74.9751
399.95        74.08781
400.39        73.28588
400.84        73.09593
401.29         73.5071
401.74        73.62622
402.18        73.37804
402.63         73.1954
403.08        73.19345
403.53        73.31522
403.97        73.56222
404.42        73.90588
404.87        74.16066
405.32        74.02525
405.76        73.46054
406.21        72.64047
406.66        71.79404
407.11        71.32829
407.55        71.34679
408.00        71.50633
408.45        71.72057
408.90        72.27316
409.34        72.83688
409.79        72.40621
410.24        71.25323
410.68        70.74021
411.13        70.98981
411.58        71.11781
412.03        71.01747
412.47        71.72298
412.92        71.74744
413.37        72.18149
413.81        72.47382
414.26        72.49451
414.71        72.19717
415.15        71.64494
415.60        71.03236
416.05        70.65364
416.49        70.59912
416.94        70.81144
417.39        71.09465
417.83        71.08916
418.28        70.73654
418.73        70.17269
419.17        69.65105
419.62        69.57703
420.07        69.98011
420.51        70.69814
420.96        71.48357
421.41        71.84528
421.85         71.6278
422.30        71.32155
422.74        70.96006
423.19        70.17532
423.64        69.25203
424.08        69.39127
424.53        70.42554
424.98        70.94724
425.42        70.80473
425.87        70.93946
426.31        71.35859
426.76        71.29416
427.21        70.95989
427.65        71.31752
428.10        72.22677
428.54        72.96676
428.99        73.46893
429.44        73.49897
429.88        73.22791
430.33        74.09265
430.77         75.3546
431.22           74.41
431.66         71.7595
432.11        70.14458
432.56         69.9599
433.00        70.62294
433.45        72.06232
433.89        74.12522
434.34        75.16978
434.78         77.1478
435.23         72.3063
435.67        70.64584
436.12        72.68439
436.57        73.86532
437.01        74.39655
437.46        75.08634
437.90        74.97853
438.35        74.55109
438.79        75.18507
439.24        75.17861
439.68        75.00584
440.13        74.45784
440.57        73.97082
441.02        74.67531
441.46        76.23561
441.91        77.42199
442.35        77.78037
442.80        76.93785
443.24        75.41495
443.69        75.86688
444.13        77.92171
444.58        77.91921
445.02        76.09936
445.47        75.85174
445.91        77.07571
446.36        77.48438
446.80         76.9959
447.24        76.77638
447.69        76.90844
448.13        77.05814
448.58        77.23957
449.02        77.47509
449.47        77.72442
449.91        77.94495
450.36        78.11314
450.80        78.21511
451.25        78.21989
451.69        78.04929
452.13        77.73417
452.58        77.32104
453.02        76.92323
453.47        76.76741
453.91         76.8717
454.36        77.14892
454.80        77.49958
455.24        77.65668
455.69        77.52733
456.13        77.32361
456.58        77.19098
457.02        76.40475
457.46        76.10658
457.91        76.38103
458.35        77.23937
458.79        77.57883
459.24        77.34262
459.68        77.06023
460.13        76.79214
460.57        76.44181
461.01        76.11279
461.46        75.59012
461.90        74.89752
462.34        75.40666
462.79        74.78656
463.23         75.1777
463.68        75.72312
464.12         76.0868
464.56        76.16087
465.01        76.11639
465.45        75.89602
465.89        75.76128
466.34        75.57974
466.78        74.49037
467.22        73.10123
467.67        72.40736
468.11        73.99031
468.55        74.74643
468.99        74.77995
469.44        74.37943
469.88        73.76216
470.32        73.63099
470.77        73.93462
471.21        73.86098
471.65        73.39162
472.10        73.19566
472.54        73.29124
472.98        73.37875
473.42        73.43302
473.87        73.61655
474.31        73.82561
474.75        73.78824
475.20        73.56847
475.64        73.47667
476.08         73.5568
476.52        73.50003
476.97        73.28587
477.41        73.27909
477.85        73.59187
478.29        73.03681
478.74         73.9408
479.18        73.89417
479.62        72.33583
480.06        72.75442
480.50        73.22696
480.95        73.72496
481.39         73.7027
481.83        72.82594
482.27        73.24181
482.72        72.50864
483.16        71.45354
483.60        71.64344
484.04        73.14651
484.48        73.47695
484.93        73.11523
485.37         74.9609
485.81        75.82975
486.25        74.53522
486.69        101.6165
487.14        82.76345
487.58        50.93066
488.02         62.5392
488.46        70.66013
488.90         69.9341
489.34        71.60058
489.79        70.64741
490.23        72.81831
490.67        73.60738
491.11        72.47385
491.55         72.3611
491.99        72.85147
492.43          72.677
492.88        71.94592
493.32        72.01881
493.76        72.33128
494.20        72.64613
494.64        72.69061
495.08        72.71859
495.52        72.81417
495.96        72.74319
496.41        72.50542
496.85        72.99233
497.29        73.87559
497.73        72.67387
498.17        70.42693
498.61        70.57772
499.05        73.13097
499.49        73.59216
499.93        73.53931
500.37        73.29553
500.82        72.75555
501.26        72.78496
501.70        73.13438
502.14        73.33854
502.58        73.25701
503.02        73.09502
503.46        72.97117
503.90        72.61568
504.34        72.19531
504.78        71.98958
505.22        72.03395
505.66        72.28533
506.10        72.63036
506.54        72.74881
506.98        72.55082
507.42        72.63268
507.86        72.19303
508.30        72.11785
508.74        72.19077
509.18        72.37006
509.62        72.56419
510.06        72.64226
510.50        72.58075
510.94        72.42104
511.38        72.25169
511.82        72.20293
512.26        72.30496
512.70        72.51289
513.14        72.74841
513.58        72.88786
514.02        72.89127
514.46        72.79068
514.90        72.65102
515.34        72.55994
515.78        72.53274
516.22        72.59972
516.66        72.70647
517.10        72.60884
517.54        72.28883
517.98         72.3549
518.42        72.07674
518.86        72.12273
519.30         72.2681
519.74        72.54013
520.18        72.85088
520.62         73.0522
521.06        73.11317
521.50        73.07133
521.93        72.97237
522.37        72.89094
522.81        72.85886
523.25         72.8522
523.69        72.87049
524.13        72.91549
524.57        72.98204
525.01        73.07376
525.45        73.16972
525.89        73.23172
526.32        73.24281
526.76         73.2099
527.20        73.14611
527.64        73.09586
528.08        73.08617
528.52        73.03871
528.96        72.91772
529.40        72.88424
529.83        72.96883
530.27         72.3671
530.71        72.54082
531.15        72.41035
531.59        72.41624
532.03        72.48356
532.46        72.63169
532.90        72.86318
533.34        73.14063
533.78         73.4516
534.22        73.70656
534.66        73.78069
535.09        73.64676
535.53        73.37357
535.97        73.04019
536.41        72.79774
536.85        72.69601
537.28        72.69917
537.72        72.76622
538.16        72.84059
538.60          72.896
539.04        72.89191
539.47        72.83192
539.91        72.91492
540.35        73.06293
540.79        72.96629
541.22        72.66605
541.66        72.52496
542.10        72.55903
542.54        72.56932
542.97        72.55684
543.41        72.63503
543.85        72.78391
544.29        72.99052
544.72        73.15694
545.16        73.12962
545.60        72.87711
546.04        72.51598
546.47        72.21055
546.91        71.97101
547.35        72.20666
547.79        72.72518
548.22        73.35049
548.66        73.59746
549.10        73.32511
549.53        72.52004
549.97        71.54697
550.41        71.08332
550.84        71.24921
551.28        71.76565
551.72        72.41264
552.15        72.81801
552.59        72.85252
553.03        72.83372
553.46        72.62006
553.90        72.36703
554.34        72.42159
554.77        72.46898
555.21        72.61994
555.65        72.34951
556.08        72.85892
556.52         72.3166
556.96        72.72626
557.39        72.52072
557.83        72.28996
558.27        72.21989
558.70        72.33108
559.14        72.49044
559.57        72.65407
560.01        72.85568
560.45        73.04729
560.88        73.23441
561.32        73.32658
561.75        73.06859
562.19        72.58785
562.63        71.98586
563.06        71.48052
563.50        71.63705
563.93        72.27979
564.37        72.57994
564.80         72.4437
565.24        72.38489
565.68        72.41805
566.11        72.38788
566.55        72.36148
566.98         72.2756
567.42        72.20044
567.85        72.44466
568.29        72.94698
568.72        73.02245
569.16        72.91803
569.60        73.29316
570.03        73.75967
570.47        73.98177
570.90        74.01633
571.34        71.65232
571.77        72.79768
572.21        72.98346
572.64        72.34546
573.08        71.50107
573.51        68.50945
573.95        71.17649
574.38        75.72031
574.82        73.81422
575.25        72.95515
575.69        70.87312
576.12        69.53629
576.56         68.7322
576.99        70.54358
577.42        73.72533
577.86        73.97138
578.29        73.06819
578.73        77.30728
579.16        71.30441
579.60        64.79452
580.03          67.506
580.47        72.05602
580.90        73.77555
581.33        72.38184
581.77        71.71241
582.20        79.03725
582.64         79.1723
583.07        67.23594
583.51         65.8271
583.94        64.47879
584.37         67.1608
584.81        70.44872
585.24        74.34555
585.68         76.1245
586.11        75.16707
586.54        70.17174
586.98        67.42477
587.41        68.19458
587.85        71.90033
588.28        74.66729
588.71        70.99385
589.15        68.51267
589.58        69.99579
590.01        70.32832
590.45         71.1052
590.88        71.87961
591.31        71.16135
591.75        70.85967
592.18        70.94583
592.61        72.42414
593.05        72.91267
593.48        76.21905
593.91        77.00898
594.35        70.45016
594.78        68.99558
595.21        68.69501
595.65        71.82449
596.08        74.57146
596.51         71.3785
596.94        69.47634
597.38         70.0684
597.81        72.75706
598.24        74.51409
598.68        73.25683
599.11        71.67516
599.54        74.90045
599.97        76.82867
600.41        71.13246
600.84        71.07123
601.27        72.88518
601.70        71.82271
602.14        71.89964
602.57         70.6749
603.00        70.95524
603.43        72.45193
603.87        74.20562
604.30        73.80454
604.73        71.37525
605.16        70.15714
605.60        71.11568
606.03        72.36879
606.46         73.3898
606.89        73.38522
607.32        71.07008
607.76        71.01088
608.19        73.37553
608.62        72.43024
609.05        71.09436
609.48        71.47285
609.92        71.28252
610.35        70.57207
610.78        72.69825
611.21        73.91311
611.64        70.27235
612.07        71.12203
612.50        71.64487
612.94        72.17665
613.37         71.6113
613.80         71.5893
614.23        72.20766
614.66         71.8361
615.09         72.1531
615.52        72.16321
615.96        72.13177
616.39         72.2642
616.82        71.37595
617.25        70.77486
617.68         71.7767
618.11        72.37029
618.54        72.74506
618.97        72.24203
619.40        71.26651
619.84        71.10855
620.27        72.02664
620.70        72.70246
621.13        72.98916
621.56        72.39822
621.99         71.2907
622.42        72.09268
622.85        74.25214
623.28        73.92763
623.71        73.29494
624.14        72.98225
624.57        72.80683
625.00        72.57561
625.43        72.79144
625.86        72.07159
626.29        71.91734
626.72        73.02767
627.15        72.29136
627.58        72.54268
628.01        72.67233
628.44        72.82698
628.87          73.024
629.30        72.95798
629.73        72.78136
630.16        73.60577
630.59         72.8379
631.02        72.68446
631.45        72.42484
631.88        72.22524
632.31        72.09825
632.74        72.03466
633.17        72.05037
633.60        72.10206
634.03        72.17876
634.46        72.28992
634.89        72.39661
635.32        72.43646
635.75         72.3988
636.18        72.29358
636.61        72.18147
637.04        72.16071
637.47        72.24041
637.89        72.43002
638.32        72.64857
638.75        72.70213
639.18         72.5375
639.61        72.62846
640.04         72.2794
640.47        72.16111
640.90        72.08482
641.33        72.04424
641.76        72.00934
642.18         72.0518
642.61        72.16816
643.04        72.16763
643.47        72.00289
643.90        72.53019
644.33        72.24673
644.76        72.36562
645.18        72.40655
645.61        72.33678
646.04        72.13845
646.47        71.81951
646.90        71.53009
647.33        71.45731
647.75        71.65736
648.18        72.12067
648.61        72.57705
649.04        72.60362
649.47        72.14626
649.89        71.19958
650.32          70.244
650.75        70.22177
651.18         71.0978
651.61        71.98062
652.03        72.44545
652.46        72.51672
652.89        72.45043
653.32        71.62433
653.74        70.58603
654.17         71.9309
654.60        72.44598
655.03         70.7266
655.46        71.56579
655.88        75.69393
656.31        80.98853
656.74        186.3463
657.16        120.9313
657.59        42.45268
658.02        31.53014
658.45        54.62352
658.87        69.12352
659.30        72.96729
659.73        71.11772
660.15        69.05568
660.58        71.69029
661.01        73.67434
661.44        71.27413
661.86        70.34305
662.29        70.16336
662.72        70.99929
663.14        72.56001
663.57        72.51813
664.00        71.14256
664.42        70.83638
664.85        71.67585
665.27        72.12471
665.70        71.98315
666.13        71.80013
666.55        71.56544
666.98        71.10735
667.41        70.60977
667.83         70.4369
668.26        70.65893
668.69        71.13932
669.11        71.61938
669.54        72.03256
669.96         71.6255
670.39        71.05836
670.82        70.40167
671.24        70.13976
671.67        70.39017
672.09        70.94071
672.52        71.47066
672.94        72.02667
673.37        71.35328
673.80        71.10767
674.22        71.03021
674.65        70.94437
675.07        70.85879
675.50        70.77164
675.92         70.7085
676.35        70.74464
676.77        70.88025
677.20        71.01548
677.62        71.14097
678.05        71.24505
678.47        71.30742
678.90        71.34426
679.32        71.36011
679.75        71.23337
680.17        71.25137
680.60        71.19041
681.02        71.12125
681.45        70.99452
681.87        70.82398
682.30        70.63968
682.72        70.50497
683.15        70.49627
683.57        70.66015
684.00        70.95598
684.42        71.42313
684.85        71.66457
685.27        71.66523
685.70        71.53855
686.12        71.34138
686.54        71.19561
686.97        71.13039
687.39        71.12794
687.82        71.14592
688.24         71.1702
688.66        71.17095
689.09        71.16449
689.51        71.18019
689.94         71.2317
690.36         71.3278
690.78        71.44966
691.21        71.56229
691.63        71.61861
692.06        71.61178
692.48        71.56611
692.90        71.51649
693.33        71.50255
693.75        71.53578
694.17         71.6102
694.60        71.71256
695.02        71.78661
695.44         71.7798
695.87        71.92076
696.29        72.19264
696.71        71.89821
697.14        71.28131
697.56        71.81535
697.98        73.17131
698.41        73.04885
698.83        72.18759
699.25        71.54924
699.68        71.42861
700.10        71.53288
700.52        71.02712
700.94        71.27757
701.37        71.49164
701.79        71.90095
702.21        72.26291
702.64         72.6475
703.06        72.93539
703.48        72.91683
703.90        72.59014
704.33        72.01514
704.75        71.37315
705.17        71.05009
705.59         71.1468
706.01        71.44326
706.44        71.77773
706.86         72.4935
707.28         72.5406
707.70        72.74437
708.12        72.82459
708.55        72.75484
708.97        72.55463
709.39        72.33073
709.81        72.16071
710.23        72.07377
710.66        72.10098
711.08        72.30874
711.50        72.56567
711.92        72.63852
712.34        72.48349
712.76        72.15602
713.19         71.8145
713.61        71.74785
714.03        71.99953
714.45        72.47605
714.87        72.96233
715.29        73.11927
715.71        72.87716
716.13        72.35395
716.56        71.75418
716.98        71.43793
717.40        71.49445
717.82        71.81087
718.24        72.24281
718.66        72.54441
719.08        72.63274
719.50        72.58495
719.92        72.44698
720.34        72.31081
720.76        72.21799
721.19        72.01675
721.61        71.96108
722.03        71.96469
722.45        72.09628
722.87        72.33537
723.29         72.6158
723.71        72.81359
724.13        72.88739
724.55        72.86221
724.97        72.78062
725.39        72.71996
725.81        72.70628
726.23        72.72146
726.65        72.74091
727.07        72.72461
727.49        72.67147
727.91        72.60891
728.33        72.57512
728.75        72.62819
729.17        72.77313
729.59        72.97247
730.01        73.19679
730.43        73.39327
730.85        73.54594
731.27        73.69866
731.69        73.80409
732.10        73.76583
732.52        73.57849
732.94        73.31111
733.36        73.11922
733.78        73.11292
734.20        73.31488
734.62        74.00034
735.04        74.90353
735.46        74.84057
735.88        74.05293
736.30         74.2403
736.72        75.36123
737.13        75.77037
737.55        75.24971
737.97        75.13387
738.39        75.45404
738.81        74.88036
739.23        73.79743
739.65        74.51965
740.06        76.58283
740.48        76.74478
740.90        75.12559
741.32        74.45644
741.74        74.95345
742.16        75.17892
742.57        75.16517
742.99        75.71799
743.41        76.65373
743.83        77.22116
744.25        77.29751
744.67        77.07178
745.08        76.75116
745.50        76.66791
745.92        76.92697
746.34        77.41019
746.75        77.94912
747.17        78.26098
747.59        78.29185
748.01        78.12688
748.42        77.96344
748.84        78.09608
749.26        78.59105
749.68        79.32585
750.09        80.08685
750.51        80.52514
750.93        80.56722
751.35        80.26723
751.76        79.79246
752.18        79.59992
752.60        79.68408
753.01        79.59353
753.43        79.38223
753.85        79.53345
754.27        80.07439
754.68        80.79079
755.10        81.50443
755.52        82.05657
755.93        82.36805
756.35        82.47375
756.77        82.50482
757.18         82.4958
757.60        82.47404
758.02         82.8241
758.43        83.28979
758.85        82.61471
759.26        81.14533
759.68        81.15618
760.10         82.4099
760.51        82.85762
760.93        82.07415
761.34        81.19063
761.76        80.80302
762.18        80.51611
762.59        80.53381
763.01        80.63409
763.42        80.91059
763.84        81.51035
764.26        82.34552
764.67        82.95132
765.09        83.13939
765.50         83.0167
765.92        82.54417
766.33        81.24775
766.75        79.66357
767.16         79.0721
767.58        79.67769
768.00        81.19908
768.41        83.23246
768.83        84.63316
769.24        84.83911
769.66        84.14684
770.07        83.00578
770.49        81.32195
770.90        79.69741
771.32        80.64963
771.73        83.41235
772.15        83.05722
772.56        80.01109
772.97        79.24931
773.39         80.7577
773.80         81.2461
774.22         80.5391
774.63        80.62412
775.05        81.37883
775.46        81.76559
775.88        81.64569
776.29        81.30582
776.70        80.92542
777.12        80.83257
777.53        81.11053
777.95        81.58285
778.36        82.02184
778.77        82.04573
779.19        81.62093
779.60         80.8916
780.02        80.13193
780.43        79.86983
780.84        80.26994
781.26         80.6393
781.67        80.94069
782.09         82.2494
782.50        83.90386
782.91        83.00072
783.33        80.28178
783.74        79.39184
784.15         80.5157
784.57        81.29246
784.98        81.38455
785.39        81.44615
785.81          81.391
786.22        80.89009
786.63        80.27423
787.04        80.18575
787.46         80.6957
787.87        81.60274
788.28         82.5844
788.70        83.08538
789.11        82.96598
789.52        82.42508
789.93        81.73639
790.35        81.26851
790.76        81.13544
791.17        81.28048
791.58        81.57568
792.00         81.7298
792.41        81.65663
792.82        81.54317
793.23        81.55891
793.65        81.37482
794.06        81.23116
794.47        82.46481
794.88        84.28223
795.29        83.82291
795.71        81.32471
796.12        79.10083
796.53        77.82887
796.94        77.27874
797.35        77.62568
797.76        79.04388
798.18        80.86675
798.59        82.00147
799.00        82.03421
799.41         81.1361
799.82        79.82357
800.23        79.04937
800.64        79.04958
801.06        79.44925
801.47        80.08148
801.88        80.56853
802.29        80.75883
802.70        80.80412
803.11        80.75909
803.52        80.67856
803.93        80.61363
804.34        80.50521
804.75        80.39828
805.17        80.48511
805.58        80.83047
805.99        81.06181
806.40        81.09647
806.81        81.59225
807.22        82.12852
807.63        80.96415
808.04        78.68121
808.45        77.72216
808.86        78.30399
809.27         79.2084
809.68        80.04954
810.09         80.6395
810.50        80.77337
810.91        80.52728
811.32        80.09281
811.73        79.78925
812.14        79.70781
812.55        79.69621
812.96         79.7694
813.37        79.95364
813.78        80.22023
814.19        80.63592
814.60        80.92206
815.01        80.62817
815.42        79.71094
815.83        78.26172
816.24        76.83329
816.65        76.39642
817.05        77.22139
817.46        79.00179
817.87         80.9921
818.28        81.86414
818.69        81.26164
819.10        79.52499
819.51        77.49131
819.92        76.58363
820.33        77.17485
820.74        78.82303
821.14        80.75429
821.55        81.60551
821.96        81.06322
822.37        79.60767
822.78        77.89328
823.19        76.87515
823.60        76.82141
824.00        77.47388
824.41        78.43308
824.82        79.14142
825.23        79.34494
825.64        79.25124
826.04        79.01138
826.45        78.82875
826.86        78.76688
827.27        78.70105
827.68        78.61624
828.08        78.55595
828.49        78.45747
828.90        78.40392
829.31        78.32044
829.72        78.05037
830.12        77.61587
830.53        77.06161
830.94        76.61831
831.35        76.58949
831.75        77.05989
832.16        77.87334
832.57        78.83482
832.97        79.51989
833.38        79.70705
833.79        79.51159
834.20        79.12707
834.60        78.85519
835.01         78.8116
835.42        78.89905
835.82         79.0084
836.23        78.87904
836.64         78.5043
837.04        78.01165
837.45        77.57056
837.86        77.44284
838.26        77.69244
838.67        78.17693
839.08        78.78213
839.48        79.29351
839.89         79.5759
840.29        79.69806
840.70        79.62169
841.11        79.27599
841.51        78.70106
841.92        77.91087
842.33        77.12868
842.73        76.73643
843.14        76.78629
843.54        77.21751
843.95        77.75886
844.35        78.00848
844.76        77.83338
845.17        77.36638
845.57        76.78397
845.98        76.36583
846.38        76.19484
846.79         76.1631
847.19        76.22026
847.60        76.19929
848.00        76.09557
848.41        75.94636
848.81        75.84026
849.22        75.82256
849.62        75.95466
850.03        76.21423
850.43        76.57902
850.84        76.92185
851.24        77.23613
851.65        77.36759
852.05         77.5254
852.46        77.88216
852.86        78.46519
853.27        79.24797
853.67        79.71178
854.07        79.18595
854.48        77.69267
854.88        75.47458
855.29        73.35991
855.69        72.54078
856.10        73.24447
856.50        75.32549
856.90        78.01948
857.31        79.56429
857.71        79.40878
858.12        77.99486
858.52        76.17822
858.92        75.08651
859.33        74.96281
859.73        75.50803
860.13        76.45022
860.54        77.22285
860.94        77.65426
861.34        77.88787
861.75         78.0136
862.15        78.25587
862.55        78.62949
862.96        79.01049
863.36        79.33946
863.76        79.50263
864.17        79.47412
864.57        79.37339
864.97        79.26486
865.38        79.22334
865.78        79.32278
866.18        79.45552
866.58        79.66171
866.99        79.99722
867.39        80.50859
867.79        81.22155
868.19        81.82985
868.60        81.75928
869.00        80.91022
869.40        79.43508
869.80        78.09264
870.21        78.07088
870.61        79.69044
871.01        82.59189
871.41        85.78786
871.81        87.58042
872.22        87.52342
872.62        86.13264
873.02        84.34803
873.42        83.79739
873.82        84.68756
874.22        86.23038
874.63        87.99147
875.03        89.01299
875.43          88.765
875.83        88.31284
876.23        86.76691
876.63        86.07103
877.03        86.24834
877.44        87.40961
877.84         103.091
878.24        93.30227
878.64        93.40619
879.04        93.10435
879.44        89.59235
879.84        87.90656
880.24        91.33767
880.64        93.31845
881.04         94.4524
881.44        94.83422
881.84        93.83791
882.24        91.81828
882.65        89.97261
883.05        89.52811
883.45        90.67415
883.85        93.29891
884.25        96.40162
884.65        97.94515
885.05        97.34603
885.45         95.3387
885.85        93.02905
886.25        91.92918
886.65        92.36261
887.05        93.79666
887.45        95.72297
887.85        97.23104
888.25        97.92237
888.65        98.12047
889.04        97.86029
889.44        97.22917
889.84        96.33552
890.24        95.11391
890.64        93.92903
891.04         93.3743
891.44        93.53947
891.84        94.32526
892.24        95.27272
892.64        95.50079
893.04        94.86106
893.44        93.74141
893.83        92.65545
894.23        92.35581
894.63        92.97628
895.03        94.17729
895.43        95.81882
895.83        97.62173
896.23        99.32052
896.63        100.9695
897.02        102.0303
897.42        101.6578
897.82        99.84145
898.22        96.92671
898.62        93.94378
899.01        92.40811
899.41        92.64572
899.81        94.17259
900.21        96.23093
900.61        97.55563
901.00        97.75266
901.40        97.21069
901.80        96.31161
902.20        95.65179
902.59        95.42524
902.99        95.39995
903.39        95.43246
903.79        95.31748
904.18        95.01304
904.58        94.70992
904.98        94.52161
905.38         94.5876
905.77        94.89762
906.17        95.31604
906.57        95.80304
906.96        96.36718
907.36        96.90627
907.76        97.45459
908.15        97.76188
908.55        97.30841
908.95        96.10475
909.34        94.28671
909.74        92.50863
910.14        91.62749
910.53        91.86955
910.93        93.05507
911.33        94.66573
911.72        95.73902
912.12        95.89659
912.52        95.40449
912.91        94.73984
913.31        94.50478
913.70        94.86228
914.10        95.64879
914.49        96.47205
914.89        96.35029
915.29        95.04913
915.68         92.9668
916.08        91.15122
916.47        90.52687
916.87        91.17697
917.26        92.80468
917.66        94.56973
918.05        95.13393
918.45        94.17043
918.84        92.14333
919.24        90.04482
919.64        89.32815
920.03        90.34697
920.42        92.65779
920.82        95.38016
921.21         97.0864
921.61        97.15948
922.00        96.11846
922.40        94.54939
922.79        93.24022
923.19        92.48489
923.58        91.97125
923.98        91.52068
924.37        91.14141
924.77        90.99749
925.16        89.32672
925.55        89.98446
925.95        90.68454
926.34        92.53145
926.74        94.93056
927.13        97.27399
927.52        98.34245
927.92        97.95858
928.31        96.54186
928.70        94.51287
929.10        92.59799
929.49        91.06243
929.89        89.76593
930.28        89.06243
930.67        89.54048
931.07        91.09683
931.46        93.61082
931.85         96.1201
932.24        97.16418
932.64        96.45216
933.03        94.24377
933.42        91.19019
933.82        88.85659
934.21        87.77089
934.60        87.55721
934.99        87.72726
935.39        87.76012
935.78         87.5634
936.17        87.03812
936.56        85.84297
936.96        86.38547
937.35        84.57062
937.74        83.95547
938.13        83.73917
938.53        84.64619
938.92        86.69625
939.31        89.89713
939.70        93.45873
940.09        95.05154
940.49        93.84097
940.88        90.75984
941.27        87.38972
941.66        85.61691
942.05        85.71203
942.44        87.04494
942.84        89.05733
943.23        90.84399
943.62        91.89009
944.01        92.46066
944.40         92.5416
944.79        92.08093
945.18         91.0891
945.57        89.41622
945.97        87.25715
946.36        85.39851
946.75        84.38256
947.14        84.16795
947.53        84.44056
947.92        84.75232
948.31        85.01025
948.70        85.35081
949.09        85.80849
949.48        86.39671
949.87        87.03497
950.26        87.53719
950.65        87.89796
951.04        88.20884
951.43        88.46627
951.82        88.66833
952.21        88.54539
952.60        87.69234
952.99        86.12378
953.38        84.03068
953.77        82.02122
954.16        80.95121
954.55        80.97841
954.94        81.93775
955.33        83.14707
955.72        83.43147
956.11        82.51458
956.50        80.69416
956.89        78.87169
957.28        78.70584
957.66        80.69936
958.05        84.05707
958.44        87.66284
958.83        89.88983
959.22        90.30775
959.61        89.33389
960.00        87.63066
960.39        86.28516
960.78        85.65887
961.16        85.49149
961.55        85.32117
961.94        84.41124
962.33        82.68633
962.72        80.59303
963.11        78.75591
963.49        77.90501
963.88        78.13983
964.27        79.26599
964.66        80.82475
965.04        81.83531
965.43        81.79395
965.82        81.02972
966.21        80.08458
966.60        79.68975
966.98        80.01167
967.37        80.78124
967.76        81.67619
968.15        82.08665
968.53        81.81832
968.92        81.05449
969.31        80.18897
969.69        79.70515
970.08        79.70219
970.47        80.05656
970.86        80.41396
971.24         80.1647
971.63        79.14983
972.02        77.55621
972.40        75.95821
972.79        75.35039
973.17         76.1498
973.56        78.01472
973.95        80.33664
974.33        81.87074
974.72         82.0659
975.11        81.22712
975.49        80.03762
975.88        79.52023
976.26        79.85704
976.65        80.85326
977.04        81.81575
977.42        81.17561
977.81        78.57935
978.19        74.81085
978.58        71.76199
978.96        71.31044
979.35        73.69029
979.74        78.50911
980.12        84.71057
980.51        88.62254
980.89        88.97919
981.28        86.73859
981.66        83.41777
982.05        80.97427
982.43        79.84731
982.82          79.436
983.20        79.67492
983.59        80.58506
983.97        82.16634
984.35        84.58522
984.74        87.27695
985.12        89.09566
985.51        89.18372
985.89        87.61053
986.28        84.90768
986.66        82.05138
987.04        79.80529
987.43        78.18956
987.81         77.0237
988.20        75.92629
988.58        74.64238
988.96        72.97263
989.35        71.37259
989.73        71.82346
990.12        75.01949
990.50        79.77888
990.88        83.28201
991.27        83.63993
991.65        81.32863
992.03        76.97124
992.42        72.10254
992.80        69.49907
993.18        70.15128
993.56        72.52904
993.95        75.48825
994.33        78.26643
994.71        80.43961
995.10        82.53318
995.48        83.96825
995.86         83.6087
996.24        81.21809
996.63        76.59671
997.01        71.07626
997.39        68.68124
997.77        71.16341
998.15        77.64058
998.54        84.52262
998.92        86.83863
999.30         83.1837
999.68        74.85018
1000.06        64.34544
1000.45        57.62304
1000.83        56.92255
1001.21         60.0766
1001.59        64.85113
1001.97        68.99732
1002.35        72.02232
1002.73        75.01741
1003.12        77.11045
1003.50         75.8278
1003.88        70.64123
1004.26        63.16734
1004.64        56.38865
1005.02         52.5525
1005.40        51.58025
1005.78         53.1896
1006.16        58.38485
1006.54        66.05939
1006.92        71.96391
1007.30        75.01684
1007.69         75.9724
1008.07        76.19582
1008.45        76.03258
1008.83        74.66384
1009.21        69.70986
1009.59         53.3683
1009.97        9.790546
1010.35       -47.79237
1010.73       -35.86316
1011.11      -0.4007539
1011.49        23.98428
1011.86        41.84376
1012.24         51.7696
1012.62        55.57339
1013.00         55.5517
1013.38        52.24633
1013.76         47.5932
1014.14        48.83757
1014.52        62.18023
1014.90          89.962
1015.28        124.4276
1015.66        141.8706
1016.04         128.408
1016.41        88.87219
1016.79        46.85078
1017.17        27.32278
1017.55        27.58204
1017.93        34.82135
1018.31        42.79728
1018.69        48.52629
1019.06        52.37182
1019.44        55.64939
1019.82        59.19452
1020.20        62.74106
1020.58        64.80792
1020.95         61.2767
1021.33        32.01055
1021.71        640.3789
1022.09        160.4331
1022.46        138.4389
1022.84        134.6915
1023.22        141.3159
1023.60        167.0421
1023.97        435.6446
1024.35       -20.13411
1024.73        34.40075
