SpectraSmart Spectrum 2.9.0.0
--------- Device Information -----------
Spectrum Name :  反射率_0
Saving Time :  2024/04/26 01:22:26
Spectro-Module Model Name : SE2030-DUVN
Spectro-Module Serial Number : OS361AC55029948
Wavelength Start : 200
Wavelength End : 1025
Wavelength Unit : Wavelength(nm)
Spectrum Unit : Reflectance(%)
-----------Spectrum Setting ------------
Integration Time : 20ms
Average : 10
Boxcar : 0
Background removal :  enabled
linearity correction :  enabled
SC :  disabled
Intensity correction :  disabled
DWT denoise :  enabled
savitzky-golay :  disabled
FFT :  disabled
Running average :  disabled
Kalman :  disabled
High pass :  disabled
---------------BEGIN--------------------
Wavelength(nm)             Reflectance(%)
200.29               0
200.75        100.5432
201.21        96.20969
201.67        90.40331
202.13        85.83166
202.58        83.04113
203.04        81.73055
203.50        81.57374
203.96        82.15734
204.42        83.06791
204.88        84.10033
205.34        85.39945
205.80         87.4208
206.26         90.8495
206.72        97.61196
207.18        109.3724
207.64        116.0615
208.10        103.2109
208.55        85.26324
209.01        75.79037
209.47        74.61537
209.93        78.56911
210.39        86.55981
210.85        95.78963
211.31        99.50323
211.77        95.34502
212.23        85.75754
212.69         75.6294
213.14        72.58853
213.60        77.87652
214.06        89.10079
214.52        101.6372
214.98         108.449
215.44        107.7313
215.90        101.9768
216.36        94.11293
216.81        88.06989
217.27        85.29662
217.73        84.48761
218.19        83.80447
218.65        80.73009
219.11        74.11064
219.57        63.13243
220.02        49.22088
220.48        40.91549
220.94        43.06344
221.40        53.45452
221.86         63.3164
222.32        63.45576
222.77        55.04729
223.23        43.33039
223.69        33.45786
224.15        30.65672
224.61        34.28855
225.06        41.56144
225.52        48.95506
225.98        52.07954
226.44        50.11904
226.90         45.0543
227.36        39.01505
227.81        34.79984
228.27        33.41042
228.73        33.65932
229.19        34.97557
229.65        36.55706
230.10        37.92638
230.56        39.26291
231.02        40.31303
231.48        40.69041
231.93        40.44932
232.39        39.74368
232.85        38.86746
233.31         38.3606
233.77        38.36216
234.22         38.7025
234.68        39.33822
235.14        40.04597
235.60        40.69142
236.05        41.37081
236.51        41.95489
236.97         42.2354
237.43        42.25709
237.88        42.10078
238.34         42.0922
238.80        43.16892
239.26        45.64137
239.71        49.25888
240.17        53.21091
240.63        56.54536
241.08        58.92914
241.54        60.46618
242.00        61.35294
242.46        61.98239
242.91         62.8675
243.37        64.12776
243.83        69.38384
244.28        98.45847
244.74        154.2196
245.20         151.694
245.66         136.548
246.11        134.0207
246.57        142.3357
247.03        169.8477
247.48        247.4443
247.94        202.2298
248.40        118.2138
248.85        92.94881
249.31        85.77268
249.77        85.39944
250.22        88.89034
250.68        96.47308
251.14        107.7128
251.59        114.6178
252.05        109.7741
252.51        97.07704
252.96        83.96783
253.42        77.49129
253.88        76.89915
254.33        79.26398
254.79        83.53678
255.25        87.70287
255.70        90.55833
256.16        92.91131
256.62        93.28439
257.07        90.03372
257.53        84.24907
257.99        76.61692
258.44        69.40237
258.90        66.16345
259.35         65.8428
259.81        66.87655
260.27        66.94051
260.72        63.80186
261.18        58.29086
261.63        51.53722
262.09        45.31943
262.55        41.05665
263.00        38.75653
263.46        37.75333
263.91        37.14445
264.37        36.19329
264.83        34.69284
265.28        32.79883
265.74        30.99966
266.19        29.80092
266.65        29.36384
267.11         29.3711
267.56         29.3557
268.02        28.73278
268.47        27.41566
268.93        25.61007
269.38        23.66375
269.84        22.40524
270.30        22.05211
270.75          22.374
271.21         22.9264
271.66        23.04558
272.12        22.55003
272.57        21.65418
273.03        20.68393
273.48        20.05811
273.94        19.89389
274.39        19.99795
274.85        20.14721
275.31        20.03223
275.76        19.57759
276.22        18.92174
276.67        18.21533
277.13        17.73658
277.58        17.50397
278.04        17.44473
278.49         17.3882
278.95        17.13199
279.40        16.63075
279.86         16.0075
280.31        15.37764
280.77        14.99867
281.22        14.88006
281.68        14.94178
282.13        15.06025
282.59        15.07764
283.04        14.95872
283.50         14.7808
283.95         14.5729
284.41         14.3819
284.86        14.22999
285.32        14.10636
285.77        14.05618
286.22        14.19846
286.68        14.51426
287.13         14.9458
287.59        15.35086
288.04        15.52336
288.50         15.4402
288.95        15.15242
289.41        14.80144
289.86        14.51488
290.32         14.3844
290.77        14.37136
291.22        14.47448
291.68        14.65027
292.13        14.90339
292.59        15.26472
293.04        15.76904
293.50        16.45914
293.95        17.32031
294.40        18.29516
294.86        19.32247
295.31        20.32966
295.77         21.2975
296.22        22.24929
296.68        23.17863
297.13        24.04501
297.58        24.87403
298.04        25.70238
298.49        26.62676
298.95        27.83936
299.40        29.36943
299.85        31.16223
300.31        33.09522
300.76        34.96211
301.21        36.67214
301.67        38.29972
302.12        39.84223
302.58        41.38858
303.03        42.95234
303.48         44.5219
303.94        46.20063
304.39        48.09712
304.84        50.22381
305.30         52.5407
305.75         54.8349
306.20        56.79416
306.66        58.37717
307.11        59.63409
307.57         60.8105
308.02        62.17405
308.47        63.83985
308.93        65.72393
309.38        67.66652
309.83        69.46016
310.29        71.02729
310.74        72.39993
311.19        73.66605
311.65        74.96358
312.10        76.31766
312.55        77.69073
313.00        78.96326
313.46        79.95023
313.91        80.59855
314.36        80.99107
314.82        81.32423
315.27         81.8485
315.72        82.66459
316.18          83.706
316.63        84.83684
317.08        85.78569
317.53        86.46287
317.99        86.92005
318.44        87.32109
318.89        87.94126
319.35        88.81723
319.80         89.8931
320.25        90.89361
320.70        91.36927
321.16         91.2386
321.61        90.65869
322.06        89.99869
322.51        89.83624
322.97        90.28544
323.42        91.21648
323.87        92.30608
324.32        92.99107
324.78        93.09373
325.23         92.8202
325.68        92.40208
326.13          92.249
326.59        92.46234
327.04         92.9393
327.49         93.5361
327.94        94.05211
328.39        94.41393
328.85        94.68004
329.30        94.94099
329.75        95.17138
330.20        95.40537
330.66        95.62171
331.11        95.94253
331.56        96.49748
332.01        97.32307
332.46        98.36644
332.92        99.49875
333.37        100.6698
333.82        101.7225
334.27        102.6646
334.72        103.3983
335.17        103.7917
335.63        103.8474
336.08        103.6608
336.53        103.4268
336.98        103.5071
337.43        103.9988
337.88        104.8074
338.34        105.7882
338.79         106.785
339.24        107.6718
339.69        108.5125
340.14        109.2125
340.59         109.612
341.05        109.7083
341.50        109.5244
341.95        109.2964
342.40        109.4102
342.85        109.9479
343.30        110.8165
343.75        111.7807
344.20        112.4099
344.66        112.5945
345.11        112.4472
345.56        112.1688
346.01        112.0651
346.46        112.2213
346.91        112.5333
347.36        112.8992
347.81        113.1699
348.26        113.3063
348.72        113.3898
349.17        113.4402
349.62        113.5283
350.07        113.6706
350.52         113.823
350.97        113.9793
351.42         114.143
351.87        114.3006
352.32        114.4498
352.77        114.5351
353.22        114.4681
353.67        114.2374
354.13         113.884
354.58        113.4615
355.03        113.1181
355.48        112.8859
355.93        112.7281
356.38        112.5665
356.83        112.2732
357.28        111.8167
357.73        111.2379
358.18        110.6057
358.63        110.0263
359.08        109.5294
359.53         109.086
359.98        108.6364
360.43        108.0888
360.88        107.4196
361.33        106.6541
361.78        105.8679
362.23        105.1818
362.68         104.631
363.13        104.1958
363.58        103.7757
364.03        103.2086
364.48        102.4642
364.93         101.585
365.38        100.7149
365.83        100.0888
366.28        99.73969
366.73        99.57148
367.18        99.40219
367.63        98.94085
368.08        98.13335
368.53        97.11372
368.98        96.01801
369.43        95.03974
369.88        94.24774
370.33        93.57834
370.78        93.06214
371.23        92.75237
371.68        92.63123
372.13        92.68393
372.58        92.76508
373.03        92.62227
373.48         92.1981
373.93        91.56104
374.38         90.8566
374.83        90.31651
375.28        89.99673
375.72        89.81411
376.17        89.69914
376.62        89.51591
377.07        89.20944
377.52        88.80412
377.97         88.3321
378.42        87.84129
378.87        87.35891
379.32        86.89777
379.77        86.40038
380.22        85.77615
380.67        85.01865
381.11        84.15473
381.56        83.34622
382.01        82.86285
382.46        82.76273
382.91        82.98149
383.36        83.25478
383.81        83.15932
384.26        82.60918
384.71        81.72164
385.15        80.78967
385.60        80.32839
386.05        80.37446
386.50        80.75387
386.95        81.13307
387.40        80.96114
387.85        80.16824
388.29        78.98946
388.74         77.8499
389.19        77.02254
389.64         76.5589
390.09        76.30097
390.54        76.24242
390.98        76.37817
391.43        76.64976
391.88         77.0386
392.33        77.31128
392.78        77.07809
393.23        76.34288
393.67         75.3368
394.12        74.44931
394.57        73.77536
395.02        73.50333
395.47        74.00734
395.91        75.08624
396.36        75.78334
396.81        75.91039
397.26         75.8529
397.71        75.67387
398.15        75.22348
398.60        74.64408
399.05        74.12516
399.50        73.67562
399.95        72.80368
400.39        72.00622
400.84        71.73381
401.29        72.02689
401.74        72.21967
402.18        72.21741
402.63        72.19579
403.08        72.23348
403.53        72.40805
403.97        72.70889
404.42        73.01122
404.87        73.16388
405.32        72.95541
405.76        72.36048
406.21        71.59705
406.66        70.85201
407.11        70.29818
407.55        70.10525
408.00        70.35399
408.45        70.91298
408.90        71.55492
409.34        71.92819
409.79        71.39423
410.24        70.28191
410.68        69.76305
411.13        69.95558
411.58        70.20733
412.03        70.42958
412.47        70.76608
412.92         71.1045
413.37         71.4269
413.81        71.63676
414.26        71.62943
414.71        71.37814
415.15        70.91473
415.60        70.36729
416.05        69.96358
416.49        69.77898
416.94        69.78289
417.39        69.85686
417.83        69.77112
418.28        69.49365
418.73        69.11009
419.17        68.79038
419.62        68.81717
420.07        69.19113
420.51        69.79242
420.96        70.41645
421.41        70.64966
421.85        70.37891
422.30        70.05862
422.74        69.71246
423.19        69.02364
423.64        68.22407
424.08        68.34922
424.53        69.30405
424.98        69.86697
425.42        69.88147
425.87        70.41112
426.31         71.2639
426.76        70.83389
427.21        69.55473
427.65        69.79655
428.10        71.37404
428.54        72.26945
428.99        72.39049
429.44        72.24323
429.88        72.02635
430.33        73.02304
430.77        74.42256
431.22        73.29964
431.66        70.30885
432.11        68.78596
432.56        69.05515
433.00        69.96732
433.45        71.35493
433.89        72.86253
434.34        73.78226
434.78        75.16681
435.23         71.3769
435.67        69.21057
436.12        71.88829
436.57        73.01407
437.01        73.50704
437.46        73.81309
437.90        74.15485
438.35        73.24097
438.79        73.95807
439.24        73.76019
439.68        73.52328
440.13        73.25458
440.57        73.22383
441.02        73.92136
441.46        75.04405
441.91        76.02164
442.35        76.44646
442.80        75.61401
443.24        74.01863
443.69         74.3695
444.13         76.3092
444.58        76.23872
445.02        74.41241
445.47         74.1777
445.91        75.42224
446.36        75.85844
446.80        75.39862
447.24        75.20766
447.69        75.37583
448.13        75.57879
448.58        75.82877
449.02        76.14416
449.47        76.46232
449.91        76.70354
450.36         76.8417
450.80        76.88163
451.25        76.82153
451.69        76.62916
452.13        76.34396
452.58        75.99191
453.02        75.67712
453.47        75.60282
453.91        75.77734
454.36        76.14478
454.80        76.56332
455.24         76.6855
455.69        76.44881
456.13        76.14095
456.58        75.91451
457.02         75.3859
457.46        74.82905
457.91        75.42182
458.35        76.31486
458.79        76.75686
459.24          76.522
459.68        76.14781
460.13        75.73936
460.57        75.41668
461.01        75.34779
461.46        74.56658
461.90        74.37174
462.34        74.82734
462.79        74.54559
463.23        74.73597
463.68        74.87077
464.12        75.37527
464.56        75.99879
465.01        76.04101
465.45        75.49273
465.89        75.11307
466.34        74.86156
466.78        74.04082
467.22        73.15176
467.67        72.29385
468.11        73.81757
468.55        74.34836
468.99        74.33351
469.44         73.9566
469.88        73.46185
470.32        73.60267
470.77        74.22631
471.21        74.33131
471.65        73.84441
472.10        73.48865
472.54        73.37198
472.98        73.30251
473.42         73.2894
473.87        73.56618
474.31        73.93322
474.75        73.74132
475.20        73.14421
475.64        73.00792
476.08        73.35702
476.52        73.41701
476.97        73.15718
477.41        73.24262
477.85        73.70167
478.29        73.25822
478.74        73.69991
479.18        73.67195
479.62        72.73424
480.06        73.29546
480.50        73.48037
480.95        73.85027
481.39        73.98175
481.83        72.74816
482.27        73.14411
482.72        72.96894
483.16        71.65224
483.60         71.9686
484.04        73.45934
484.48         73.8751
484.93        73.72645
485.37        75.00243
485.81        75.42731
486.25          74.143
486.69        101.2558
487.14        81.59505
487.58        50.82936
488.02        62.59583
488.46        70.81817
488.90        69.99786
489.34        72.04724
489.79        71.12429
490.23        73.38738
490.67        74.16966
491.11        73.01239
491.55        72.90148
491.99        73.42478
492.43        73.29164
492.88        72.59837
493.32        72.72599
493.76        73.09483
494.20         73.4102
494.64        73.38053
495.08        73.37705
495.52        73.46955
495.96        73.14944
496.41        72.54569
496.85        73.14217
497.29        74.51121
497.73        73.49118
498.17        71.11625
498.61        71.19639
499.05        73.79213
499.49        74.47647
499.93        74.75237
500.37        74.44002
500.82        73.51107
501.26        73.53683
501.70        74.21548
502.14         74.3894
502.58        73.94739
503.02        73.70261
503.46        73.67548
503.90        73.42371
504.34         73.0551
504.78        72.92581
505.22        73.05289
505.66        73.38191
506.10          73.806
506.54        73.92995
506.98        73.61172
507.42        73.73389
507.86        73.13845
508.30        72.68503
508.74        73.06039
509.18        73.32602
509.62         73.6334
510.06        73.76693
510.50        73.68951
510.94         73.4526
511.38        73.16414
511.82         73.0117
512.26        73.04314
512.70        73.19918
513.14        73.41265
513.58         73.5784
514.02        73.65289
514.46        73.66111
514.90        73.63634
515.34        73.61432
515.78         73.5984
516.22        73.63097
516.66        73.67654
517.10        73.53145
517.54        73.19221
517.98        73.24006
518.42        72.97487
518.86        73.05286
519.30        73.25404
519.74        73.60179
520.18         73.9914
520.62        74.24664
521.06        74.32835
521.50        74.27941
521.93        74.15815
522.37         74.0621
522.81        74.03146
523.25        74.03841
523.69         74.0759
524.13        74.13437
524.57         74.2082
525.01        74.30737
525.45         74.4203
525.89        74.52391
526.32        74.59925
526.76        74.63736
527.20        74.64037
527.64        74.64076
528.08         74.6617
528.52        74.62299
528.96        74.47251
529.40        74.37947
529.83        74.36626
530.27        73.56025
530.71        73.52745
531.15         73.3438
531.59        73.47525
532.03        73.77917
532.46        74.17219
532.90         74.4996
533.34        74.68647
533.78        74.77338
534.22        74.77772
534.66        74.73801
535.09        74.66096
535.53        74.55727
535.97        74.42791
536.41        74.30326
536.85        74.19724
537.28        74.11479
537.72        74.05453
538.16         74.0207
538.60        74.01252
539.04         73.9735
539.47        73.89567
539.91        73.96556
540.35        74.10016
540.79        73.99245
541.22        73.70126
541.66        73.61709
542.10        73.75324
542.54        73.89278
542.97        73.99747
543.41        74.12358
543.85        74.24233
544.29        74.36372
544.72        74.42095
545.16        74.32501
545.60        74.06186
546.04        73.70839
546.47        73.41415
546.91        73.30968
547.35        73.48799
547.79        74.16685
548.22        75.00659
548.66        75.25154
549.10        74.78058
549.53        73.84445
549.97        72.84709
550.41        72.34216
550.84         72.4545
551.28        73.01247
551.72        73.77017
552.15        74.19741
552.59        74.13287
553.03        74.24281
553.46        73.73495
553.90        73.58272
554.34        73.57432
554.77        73.61056
555.21        73.63146
555.65        73.60316
556.08        73.87701
556.52        73.25679
556.96         73.5815
557.39        73.47215
557.83        73.47175
558.27        73.53083
558.70        73.65649
559.14        73.80444
559.57        73.96627
560.01        74.23581
560.45        74.51801
560.88        74.70112
561.32        74.72182
561.75        74.30704
562.19        73.67754
562.63        73.34282
563.06        73.34885
563.50        73.45751
563.93        73.57463
564.37        73.68987
564.80        73.74522
565.24        73.77991
565.68        73.77654
566.11        73.74464
566.55        73.74169
566.98        73.65273
567.42        73.55121
567.85        73.76432
568.29        74.24596
568.72        74.27455
569.16         74.0467
569.60        74.42118
570.03        75.05777
570.47        74.97865
570.90        74.48039
571.34        73.09702
571.77        73.92506
572.21        74.11407
572.64        73.52234
573.08        72.66901
573.51        69.50718
573.95        72.13142
574.38        76.53262
574.82        74.39296
575.25        74.08395
575.69        72.10406
576.12        70.41483
576.56        69.87099
576.99        71.46275
577.42        74.95235
577.86        74.64554
578.29        73.75495
578.73        77.74792
579.16        71.70144
579.60        65.55534
580.03        68.53291
580.47        72.95367
580.90        74.75948
581.33        73.25693
581.77        72.44216
582.20        79.76696
582.64        79.04295
583.07        67.51897
583.51        66.27093
583.94        65.30492
584.37        68.24535
584.81         71.5229
585.24        75.34875
585.68        77.28624
586.11        76.12936
586.54        70.69783
586.98        68.27045
587.41        68.95157
587.85        72.64469
588.28        75.41416
588.71        71.50925
589.15        69.26742
589.58        70.79514
590.01        71.41268
590.45        71.98566
590.88        73.49864
591.31        72.70093
591.75        72.03465
592.18        71.91533
592.61        73.41581
593.05         74.0669
593.48        77.31875
593.91        78.15604
594.35        71.70226
594.78        70.19001
595.21        69.71399
595.65        72.89436
596.08        75.84434
596.51        72.77863
596.94        70.82072
597.38        71.43622
597.81        74.14339
598.24        76.31364
598.68        74.36592
599.11        73.29405
599.54        76.30293
599.97        77.83105
600.41        72.19234
600.84         72.2382
601.27        73.73421
601.70        73.04276
602.14        73.01113
602.57        71.98157
603.00        72.35661
603.43        74.37374
603.87        75.34135
604.30        75.01957
604.73         73.0896
605.16        71.28371
605.60        72.52794
606.03        73.56881
606.46        74.58494
606.89        74.28253
607.32        72.30482
607.76        72.20227
608.19        74.61885
608.62        73.61512
609.05         72.2953
609.48        72.85643
609.92        72.87636
610.35        72.35017
610.78        74.57533
611.21        75.32513
611.64        71.96233
612.07        72.74023
612.50        73.18737
612.94        73.62359
613.37        72.91741
613.80        73.34326
614.23        73.72827
614.66        73.56823
615.09        73.60295
615.52        73.57416
615.96        73.62484
616.39        73.74521
616.82        72.67048
617.25        72.64979
617.68        73.43424
618.11        74.05327
618.54        74.25647
618.97        73.68533
619.40         72.7665
619.84        72.49098
620.27        73.33719
620.70        74.18183
621.13        74.85349
621.56        74.34362
621.99        73.01074
622.42        73.78605
622.85        76.16466
623.28        75.54671
623.71        75.12343
624.14        74.68039
624.57        74.37957
625.00        74.21968
625.43        74.33047
625.86        73.79717
626.29        74.07864
626.72        74.56726
627.15        74.37708
627.58        74.52087
628.01        74.54952
628.44        74.71749
628.87        75.14726
629.30        74.74203
629.73        75.01973
630.16        75.98293
630.59        74.95038
631.02        74.63396
631.45        74.24877
631.88        73.92324
632.31        73.65534
632.74        73.85679
633.17         73.7968
633.60        73.93016
634.03        74.01625
634.46        74.10299
634.89        74.17715
635.32        74.23321
635.75        74.27716
636.18        74.28533
636.61        74.28759
637.04        74.34364
637.47        74.45949
637.89        74.62806
638.32        74.77133
638.75        74.81037
639.18        74.72533
639.61        74.54974
640.04        74.33575
640.47        74.16422
640.90        74.06568
641.33        74.01617
641.76        73.97768
642.18        73.99303
642.61        74.05022
643.04         73.9759
643.47        73.73839
643.90        74.24142
644.33        73.95675
644.76        74.11698
645.18         74.2325
645.61        74.27182
646.04        74.20737
646.47        74.03773
646.90        73.88632
647.33        73.90043
647.75        74.12419
648.18        74.55171
648.61        74.92915
649.04        74.87422
649.47        74.35031
649.89        73.32381
650.32        72.27279
650.75        72.19702
651.18        73.02962
651.61        73.73089
652.03        73.93988
652.46        73.96395
652.89        74.14328
653.32        73.61459
653.74        72.73665
654.17        74.59527
654.60        75.38125
655.03        72.71804
655.46        73.70574
655.88        77.57871
656.31        82.32035
656.74        185.3289
657.16         120.101
657.59        42.28682
658.02        32.14274
658.45        55.53285
658.87        71.03796
659.30        74.29589
659.73        73.90858
660.15        70.95731
660.58        73.79994
661.01        75.54424
661.44        73.15156
661.86        72.32042
662.29        72.25622
662.72        73.11524
663.14        74.60038
663.57        74.63653
664.00        73.45766
664.42        73.22259
664.85        74.00217
665.27        74.38085
665.70        74.19291
666.13        73.98326
666.55        73.75442
666.98        73.34469
667.41        72.90065
667.83        72.72433
668.26        72.87157
668.69         73.2169
669.11        73.56066
669.54        73.92771
669.96        73.56417
670.39        73.16524
670.82         72.7049
671.24        72.42656
671.67        72.47445
672.09        72.88985
672.52        73.40299
672.94        74.00015
673.37        73.38084
673.80        73.22668
674.22         73.2244
674.65        73.15818
675.07        73.01788
675.50        72.77932
675.92        72.53089
676.35        72.47696
676.77        72.64267
677.20        72.88764
677.62        73.14313
678.05        73.30247
678.47        73.31874
678.90        73.23718
679.32        73.12208
679.75        72.93896
680.17        73.00229
680.60        73.05603
681.02        73.10995
681.45        73.01496
681.87        72.76434
682.30        72.42126
682.72         72.1239
683.15        72.06443
683.57        72.31557
684.00        72.80376
684.42        73.48145
684.85         73.8264
685.27        73.78644
685.70        73.51859
686.12         73.1495
686.54        72.90643
686.97        72.84366
687.39        72.91015
687.82        73.01601
688.24        73.07084
688.66        73.02359
689.09        72.92091
689.51        72.83318
689.94        72.83398
690.36        72.95218
690.78        73.15076
691.21        73.36626
691.63        73.51035
692.06        73.55766
692.48          73.533
692.90        73.49834
693.33        73.53506
693.75        73.66476
694.17         73.8778
694.60        74.09649
695.02        74.18239
695.44        74.08455
695.87        73.98592
696.29        73.97568
696.71        73.76015
697.14         73.4835
697.56        73.99404
697.98        75.01601
698.41        74.78413
698.83        74.06067
699.25        73.56586
699.68        73.60845
700.10        73.51102
700.52        73.28331
700.94        73.59026
701.37        73.83811
701.79        74.20468
702.21        74.44268
702.64        74.64219
703.06        74.73867
703.48        74.62891
703.90        74.33156
704.33        73.87524
704.75         73.3875
705.17        73.16641
705.59        73.28559
706.01        73.54665
706.44        73.80511
706.86        74.45788
707.28        74.44758
707.70        74.59499
708.12        74.62252
708.55        74.55571
708.97        74.39874
709.39        74.18037
709.81        73.98663
710.23        73.92778
710.66        74.03596
711.08        74.32481
711.50          74.646
711.92        74.76578
712.34        74.63442
712.76        74.30486
713.19        73.94453
713.61        73.86004
714.03        74.10132
714.45        74.57431
714.87        75.05788
715.29        75.20245
715.71        74.93571
716.13        74.37691
716.56        73.74441
716.98        73.41926
717.40        73.49426
717.82        73.85425
718.24        74.32426
718.66        74.60827
719.08        74.61548
719.50        74.43715
719.92         74.1733
720.34        74.00037
720.76        73.97527
721.19         73.9191
721.61         74.0266
722.03        74.09862
722.45         74.1798
722.87        74.28514
723.29        74.41858
723.71        74.55963
724.13        74.69419
724.55        74.83563
724.97        74.98552
725.39         75.0075
725.81        75.05888
726.23        75.08296
726.65        75.15691
727.07        74.91014
727.49        75.00381
727.91        74.93076
728.33        74.88131
728.75        74.83787
729.17        74.80606
729.59        74.77285
730.01        74.77651
730.43        74.88435
730.85        75.10067
731.27        75.42698
731.69        75.73859
732.10        75.82961
732.52         75.6861
732.94        75.32413
733.36        74.89616
733.78        74.85708
734.20        75.33141
734.62        75.30193
735.04        76.48842
735.46        76.65211
735.88        75.65805
736.30        75.97172
736.72        77.26394
737.13        77.80593
737.55        77.31912
737.97        77.26315
738.39         77.6619
738.81        76.98088
739.23        75.68365
739.65        76.46382
740.06        78.79628
740.48         78.9912
740.90        77.15421
741.32        76.28862
741.74        76.69043
742.16         76.9314
742.57        77.06509
742.99        77.89452
743.41        79.13567
743.83        79.85559
744.25        79.88544
744.67        79.46702
745.08        78.88955
745.50        78.62585
745.92        78.82759
746.34        79.33243
746.75        79.94431
747.17        80.33569
747.59        80.43408
748.01        80.34576
748.42        80.25275
748.84        80.42882
749.26        80.93868
749.68        81.62382
750.09        82.30749
750.51        82.78793
750.93        82.96555
751.35        82.69773
751.76        82.15088
752.18        81.93446
752.60        82.04316
753.01        81.92854
753.43         81.6541
753.85        81.78138
754.27        82.34806
754.68        83.10295
755.10        83.86208
755.52         84.4921
755.93        84.89181
756.35        85.01984
756.77         84.9885
757.18        84.95936
757.60        84.98843
758.02        85.25721
758.43        85.42347
758.85        85.19033
759.26        83.10196
759.68          83.125
760.10        84.47136
760.51        85.13834
760.93        84.53465
761.34        83.42025
761.76        83.12309
762.18        82.58297
762.59        82.34682
763.01        82.70817
763.42        83.61671
763.84        84.29003
764.26        84.61181
764.67        84.80605
765.09        84.83054
765.50        84.75453
765.92        84.49571
766.33        83.29337
766.75         81.6838
767.16        81.30513
767.58        82.30064
768.00        83.93371
768.41        85.79169
768.83        87.12929
769.24        87.42416
769.66        86.69511
770.07        85.41067
770.49        83.72427
770.90        82.17334
771.32        82.97102
771.73        85.41785
772.15        84.94254
772.56        82.02209
772.97        81.50646
773.39         83.2923
773.80         83.9177
774.22        83.14602
774.63        83.04199
775.05        83.57489
775.46        83.84238
775.88        83.74846
776.29        83.54977
776.70        83.32717
777.12         83.2444
777.53        83.35822
777.95        83.55717
778.36         83.7327
778.77         83.6927
779.19        83.43896
779.60        83.03275
780.02        82.64928
780.43        82.63534
780.84        83.10214
781.26        83.52065
781.67        83.84925
782.09        84.87535
782.50        86.09384
782.91        85.22385
783.33        82.92384
783.74        82.18306
784.15        83.14942
784.57        83.82847
784.98         83.9109
785.39        83.92622
785.81         83.7971
786.22        83.21364
786.63        82.54264
787.04        82.48945
787.46        83.12661
787.87        84.22646
788.28        85.39302
788.70        85.95287
789.11        85.74139
789.52        84.99563
789.93        84.07737
790.35        83.49052
790.76        83.38651
791.17        83.67371
791.58        84.15891
792.00        84.46453
792.41        84.47383
792.82         84.3101
793.23        84.20432
793.65        84.13055
794.06         84.2468
794.47        85.40876
794.88        86.87382
795.29         86.2491
795.71        83.80901
796.12         81.6372
796.53        80.38796
796.94        79.87865
797.35        80.26638
797.76        81.70078
798.18        83.51456
798.59        84.62914
799.00        84.63251
799.41        83.69168
799.82        82.32366
800.23        81.48719
800.64        81.42068
801.06        81.74568
801.47        82.32397
801.88        82.81625
802.29        83.08163
802.70        83.27547
803.11        83.38715
803.52        83.35954
803.93        83.21175
804.34         82.9017
804.75        82.59569
805.17        82.62863
805.58        83.09003
805.99        83.73987
806.40        84.30045
806.81        84.65635
807.22        84.52485
807.63        83.25048
808.04        81.39169
808.45        80.50623
808.86        80.79764
809.27        81.58376
809.68        82.48746
810.09        83.05167
810.50        83.05918
810.91        82.67043
811.32         82.1179
811.73        81.77592
812.14         81.7523
812.55        81.87576
812.96        82.10938
813.37        82.39466
813.78        82.67501
814.19        83.03114
814.60        83.25636
815.01        83.01528
815.42        82.28448
815.83        81.12064
816.24        79.98247
816.65        79.67924
817.05        80.43698
817.46         81.9892
817.87        83.69811
818.28        84.41754
818.69        83.84028
819.10        82.25374
819.51        80.39458
819.92        79.51416
820.33        79.94494
820.74         81.3158
821.14        82.93352
821.55         83.5666
821.96         82.9422
822.37        81.48007
822.78        79.81924
823.19         78.8962
823.60        78.95705
824.00        79.76503
824.41        80.82996
824.82        81.42981
825.23        81.29347
825.64        80.69292
826.04        79.96532
826.45        79.59489
826.86        79.70147
827.27        80.07929
827.68        80.56453
828.08        80.93822
828.49        81.03861
828.90        81.01246
829.31        80.84198
829.72        80.48516
830.12         80.0144
830.53        79.43148
830.94        78.96595
831.35        78.92693
831.75        79.40284
832.16        80.26038
832.57        81.30147
832.97        82.07536
833.38        82.34801
833.79        82.22931
834.20        81.92758
834.60        81.77901
835.01        81.89375
835.42        82.14516
835.82        82.37613
836.23        82.24593
836.64        81.73148
837.04        80.99892
837.45        80.24901
837.86        79.78792
838.26         79.7081
838.67        79.86367
839.08        80.19934
839.48        80.59547
839.89        80.93571
840.29        81.26704
840.70         81.4529
841.11        81.26833
841.51        80.71348
841.92        79.82935
842.33        78.92131
842.73        78.51369
843.14        78.69395
843.54        79.36495
843.95        80.15836
844.35        80.51253
844.76        80.26447
845.17        79.60571
845.57        78.83746
845.98        78.43043
846.38        78.49852
846.79        78.85572
847.19        79.33315
847.60        79.54769
848.00        79.42367
848.41        79.07835
848.81        78.65926
849.22        78.29157
849.62          78.086
850.03        78.00784
850.43         78.1063
850.84        78.38271
851.24        78.85961
851.65        79.33781
852.05        79.93938
852.46        80.67283
852.86        81.49366
853.27        82.40829
853.67        82.86275
854.07        82.15057
854.48        80.32624
854.88        77.65674
855.29        75.10884
855.69        74.08334
856.10        74.85351
856.50        77.24525
856.90        80.38234
857.31        82.21963
857.71        82.09333
858.12        80.52979
858.52        78.49763
858.92        77.28799
859.33        77.18334
859.73        77.82372
860.13        78.92572
860.54         79.8997
860.94        80.54279
861.34        81.00319
861.75        81.30586
862.15        81.56831
862.55        81.79247
862.96        81.88398
863.36        81.87674
863.76        81.82359
864.17        81.75561
864.57        81.74688
864.97        81.81754
865.38        81.96827
865.78        82.23882
866.18        82.54202
866.58        82.89276
866.99        83.29974
867.39         83.8056
867.79         84.4379
868.19        84.93335
868.60        84.80626
869.00        83.99625
869.40        82.64146
869.80        81.47318
870.21        81.62639
870.61        83.40409
871.01        86.45574
871.41        89.80127
871.81        91.75417
872.22        91.85289
872.62        90.59271
873.02         88.9012
873.42        88.35075
873.82         89.1917
874.22         90.7726
874.63        92.58659
875.03        93.52882
875.43        93.05329
875.83        92.09795
876.23        90.44444
876.63        89.76382
877.03        90.19848
877.44        91.89848
877.84        101.5031
878.24        97.85129
878.64        97.58175
879.04        96.41508
879.44        93.58203
879.84        92.38612
880.24        95.02316
880.64        97.09526
881.04        99.04877
881.44        100.0979
881.84        99.29647
882.24        97.18387
882.65        95.02971
883.05        94.24924
883.45        95.07772
883.85        97.25025
884.25        99.93816
884.65        101.4901
885.05        101.3673
885.45        100.1598
885.85        98.63383
886.25        97.82703
886.65        97.98497
887.05        98.71747
887.45        99.75651
887.85        100.6443
888.25        101.1568
888.65        101.4987
889.04        101.5714
889.44        101.2441
889.84        100.5454
890.24        99.47907
890.64        98.44339
891.04        98.07478
891.44        98.46713
891.84        99.47236
892.24        100.5806
892.64        100.8466
893.04        100.1052
893.44        98.77692
893.83        97.42593
894.23        96.86855
894.63         97.2581
895.03         98.2589
895.43        99.72234
895.83        101.3523
896.23        102.8928
896.63        104.4126
897.02        105.4302
897.42        105.1809
897.82         103.649
898.22        101.1259
898.62        98.52951
899.01         97.2183
899.41         97.4921
899.81        98.91833
900.21        100.8147
900.61        102.0367
901.00        102.2384
901.40        101.7876
901.80        101.0489
902.20        100.5943
902.59         100.602
902.99        100.8289
903.39        101.1328
903.79        101.3046
904.18        101.2677
904.58        101.1796
904.98        101.0713
905.38        100.9669
905.77        100.8661
906.17        100.7239
906.57        100.6125
906.96        100.7009
907.36        100.9385
907.76        101.3058
908.15        101.5686
908.55        101.2261
908.95        100.2565
909.34        98.77962
909.74         97.3019
910.14        96.44035
910.53        96.38513
910.93         97.0319
911.33        98.03748
911.72        98.77488
912.12        98.97458
912.52        98.77762
912.91        98.55105
913.31        98.79992
913.70        99.65482
914.10        100.9827
914.49        102.3234
914.89        102.4248
915.29        100.9748
915.68        98.50253
916.08        96.19041
916.47        95.09108
916.87        95.33292
917.26         96.5425
917.66        98.06919
918.05        98.89501
918.45         98.6975
918.84        97.83024
919.24        96.80267
919.64        96.31906
920.03        96.58253
920.42        97.32071
920.82        98.21166
921.21        98.91792
921.61         99.1528
922.00        99.09633
922.40           98.75
922.79        98.07719
923.19        97.17825
923.58        96.04723
923.98        94.83091
924.37        94.03842
924.77        94.01257
925.16        93.39346
925.55        94.47174
925.95        95.58491
926.34        97.28805
926.74        99.22639
927.13        100.9415
927.52        101.4449
927.92        100.6694
928.31        98.94981
928.70        96.77691
929.10        95.00525
929.49        93.88002
929.89        93.20193
930.28        93.13969
930.67        93.95187
931.07        95.44601
931.46        97.60676
931.85        99.58008
932.24        100.0834
932.64        98.90868
933.03        96.27726
933.42        92.97911
933.82        90.82052
934.21        90.34527
934.60         91.0737
934.99        92.24915
935.39        93.01771
935.78        93.23826
936.17        93.03281
936.56        92.28824
936.96        92.51308
937.35        91.58215
937.74        91.28486
938.13        91.20006
938.53        91.77267
938.92        93.00683
939.31        94.91947
939.70        96.98977
940.09        97.72586
940.49        96.66059
940.88        94.45228
941.27        92.08808
941.66          90.712
942.05        90.50208
942.44        91.07374
942.84        92.19538
943.23         93.5714
943.62        94.86983
944.01        96.09966
944.40        97.01701
944.79        97.25722
945.18        96.71278
945.57        95.35721
945.97        93.25565
946.36         90.9842
946.75        89.17264
947.14        87.98467
947.53        87.47048
947.92        87.52394
948.31        88.03638
948.70        89.04367
949.09        90.43698
949.48        91.81335
949.87         92.8607
950.26        93.50181
950.65        93.75009
951.04         93.7661
951.43        93.61115
951.82        93.21886
952.21        92.56458
952.60        91.67017
952.99         90.6024
953.38        89.43687
953.77        88.36751
954.16         87.6009
954.55        87.19662
954.94        87.20454
955.33        87.35267
955.72         87.1678
956.11        86.56568
956.50        85.60457
956.89        84.89477
957.28        85.53979
957.66        87.78887
958.05        91.01512
958.44        94.13087
958.83        95.53712
959.22        94.90496
959.61        92.68379
960.00        89.80256
960.39        87.79888
960.78        87.16159
961.16        87.54108
961.55        88.29858
961.94        88.31672
962.33        87.31218
962.72        85.74937
963.11        84.24854
963.49        83.58868
963.88        83.89293
964.27         84.9211
964.66        86.18577
965.04        86.71607
965.43        86.10103
965.82        84.80556
966.21        83.47169
966.60         82.9026
966.98        83.25598
967.37        84.19616
967.76        85.45351
968.15        86.46684
968.53        86.95909
968.92        87.06976
969.31        86.85505
969.69        86.34706
970.08        85.63284
970.47        84.70331
970.86        83.71867
971.24        83.01617
971.63        82.71253
972.02        82.78201
972.40        83.19534
972.79        83.78045
973.17        84.54129
973.56        85.37402
973.95        86.15071
974.33        86.57413
974.72        86.45425
975.11         85.8035
975.49        84.96425
975.88        84.54379
976.26        84.60718
976.65        85.05984
977.04        85.38726
977.42        84.42294
977.81        81.96928
978.19        78.65631
978.58        76.01119
978.96        75.45945
979.35        77.13944
979.74        80.72095
980.12         85.5195
980.51        88.74745
980.89        89.50646
981.28        88.47731
981.66        86.52682
982.05        84.81085
982.43        83.67561
982.82        82.77427
983.20        82.52875
983.59        83.71598
983.97        86.51952
984.35         90.9593
984.74        95.94386
985.12        99.03555
985.51        98.71761
985.89        95.45334
986.28        90.42506
986.66        85.86329
987.04        82.96998
987.43        81.32329
987.81        80.61713
988.20        80.40636
988.58         80.4741
988.96        81.13313
989.35        82.48368
989.73        84.19366
990.12        85.31039
990.50        85.76564
990.88         85.5447
991.27        85.08527
991.65        84.67522
992.03        84.11897
992.42        83.80521
992.80        84.05334
993.18        84.95346
993.56        86.09595
993.95        87.06622
994.33        87.73832
994.71        87.98475
995.10         88.0955
995.48        87.85847
995.86        86.81132
996.24        84.89148
996.63        81.96792
997.01        78.98471
997.39        78.60278
997.77        81.79945
998.15        87.77184
998.54        93.66595
998.92        95.84736
999.30        93.26196
999.68        86.85927
1000.06        78.36546
1000.45        72.15076
1000.83         70.0349
1001.21         70.6068
1001.59        72.78541
1001.97        75.41808
1002.35        78.19515
1002.73        82.16663
1003.12        85.99713
1003.50        85.73646
1003.88        80.10317
1004.26        71.18285
1004.64        63.55826
1005.02        61.40541
1005.40        65.23937
1005.78        75.50957
1006.16        92.36399
1006.54        105.4495
1006.92         105.614
1007.30        98.47433
1007.69        90.80226
1008.07        86.03951
1008.45        83.55476
1008.83        81.25178
1009.21        77.61484
1009.59        69.04734
1009.97          50.125
1010.35        36.09001
1010.73        48.95672
1011.11        58.65844
1011.49        62.37241
1011.86        65.33749
1012.24        67.28386
1012.62        69.59782
1013.00        72.94541
1013.38        77.44996
1013.76        85.35314
1014.14        100.5979
1014.52         125.023
1014.90        158.8771
1015.28        193.5724
1015.66        210.3436
1016.04        197.4274
1016.41        156.6844
1016.79        107.5476
1017.17        73.40929
1017.55        58.30355
1017.93        53.72515
1018.31        54.67409
1018.69        58.85628
1019.06        66.04681
1019.44        77.73945
1019.82        97.47269
1020.20        127.3662
1020.58         169.806
1020.95        233.1167
1021.33         353.835
1021.71        -1443.55
1022.09       -1.804368
1022.46        77.61119
1022.84        104.4379
1023.22        117.9026
1023.60        130.7823
1023.97        204.2947
1024.35        90.27908
1024.73        108.5677
