SpectraSmart Spectrum 2.9.0.0
--------- Device Information -----------
Spectrum Name :  反射率_0
Saving Time :  2024/04/26 01:04:31
Spectro-Module Model Name : SE2030-DUVN
Spectro-Module Serial Number : OS361AC55029948
Wavelength Start : 200
Wavelength End : 1025
Wavelength Unit : Wavelength(nm)
Spectrum Unit : Reflectance(%)
-----------Spectrum Setting ------------
Integration Time : 20ms
Average : 10
Boxcar : 0
Background removal :  enabled
linearity correction :  enabled
SC :  disabled
Intensity correction :  disabled
DWT denoise :  enabled
savitzky-golay :  disabled
FFT :  disabled
Running average :  disabled
Kalman :  disabled
High pass :  disabled
---------------BEGIN--------------------
Wavelength(nm)             Reflectance(%)
200.29               0
200.75        97.28434
201.21        90.82253
201.67        83.06998
202.13        77.44972
202.58         74.5125
203.04        73.70457
203.50        74.40058
203.96        75.59499
204.42        76.68208
204.88        77.68279
205.34        78.81296
205.80        80.58535
206.26        83.62659
206.72        89.44621
207.18        99.45828
207.64        105.2463
208.10        94.47392
208.55        79.42463
209.01        71.19972
209.47        69.47968
209.93        71.62043
210.39        76.67982
210.85        82.66625
211.31        84.93178
211.77        81.88183
212.23        75.18269
212.69        68.20971
213.14        66.29811
213.60        70.19409
214.06        78.33475
214.52        87.45441
214.98        92.55686
215.44        92.41666
215.90        88.82816
216.36        83.96381
216.81        80.72667
217.27        80.10662
217.73        80.90533
218.19        81.80226
218.65        81.14655
219.11        78.21554
219.57        72.56503
220.02        64.68212
220.48        59.04851
220.94        58.29411
221.40        61.87886
221.86        65.21016
222.32        63.23376
222.77        56.65874
223.23        48.58652
223.69        42.38205
224.15        41.56467
224.61        45.49198
225.06        52.25396
225.52        58.76628
225.98        61.13817
226.44        58.75586
226.90        53.32125
227.36        47.18106
227.81        43.50446
228.27        43.25217
228.73        45.11352
229.19        47.86939
229.65          49.738
230.10         50.2124
230.56        49.99422
231.02        49.51223
231.48        49.17641
231.93        49.06081
232.39        49.00565
232.85        48.87239
233.31        48.56317
233.77        48.04641
234.22        47.34809
234.68        46.67358
235.14        46.34319
235.60        46.45555
236.05        46.95449
236.51        47.49518
236.97        47.51908
237.43         46.9243
237.88        45.85635
238.34        44.69881
238.80        44.70594
239.26        46.47929
239.71         49.7845
240.17        53.78363
240.63        57.39593
241.08        60.19115
241.54        62.26659
242.00        63.84463
242.46        65.50686
242.91        68.14542
243.37        72.92342
243.83        86.87785
244.28        135.7034
244.74         198.725
245.20        173.6135
245.66        146.3604
246.11        139.7272
246.57        146.6786
247.03        174.1614
247.48        255.8178
247.94        215.3466
248.40        128.3984
248.85        101.6818
249.31        93.87603
249.77        93.01051
250.22        95.94507
250.68        102.5552
251.14        112.5114
251.59         119.065
252.05        115.5109
252.51        104.9692
252.96        93.35548
253.42        86.45217
253.88        83.69223
254.33        82.95077
254.79        83.99361
255.25        85.95203
255.70        87.96131
256.16        90.26638
256.62        91.30291
257.07        89.40363
257.53        85.37475
257.99        79.70741
258.44        74.10625
258.90        71.50888
259.35        70.95937
259.81         71.3298
260.27        70.72641
260.72        67.32887
261.18        61.93354
261.63        55.41878
262.09        49.41438
262.55        45.14945
263.00        42.63358
263.46        41.35245
263.91        40.42878
264.37        39.15279
264.83        37.33073
265.28        35.11854
265.74        33.08616
266.19        31.86281
266.65        31.61035
267.11        31.92839
267.56        32.24654
268.02         31.8905
268.47        30.75156
268.93        29.05259
269.38        27.15788
269.84         25.9229
270.30        25.56796
270.75        25.85325
271.21        26.29506
271.66        26.17155
272.12        25.31546
272.57        23.98753
273.03        22.62104
273.48        21.78049
273.94        21.61471
274.39        21.88424
274.85        22.27445
275.31        22.33493
275.76        21.94983
276.22        21.28894
276.67        20.55654
277.13        20.12033
277.58         20.0013
278.04        20.08455
278.49        20.13181
278.95        19.85959
279.40        19.21621
279.86        18.37668
280.31         17.5146
280.77        16.97742
281.22        16.79634
281.68        16.86165
282.13        17.02962
282.59         17.1182
283.04        17.07533
283.50        16.98952
283.95        16.86079
284.41        16.69446
284.86        16.50723
285.32        16.29828
285.77        16.15781
286.22        16.27989
286.68        16.65612
287.13        17.20054
287.59        17.71819
288.04         17.9198
288.50        17.76887
288.95        17.34379
289.41        16.83585
289.86        16.43958
290.32        16.26676
290.77        16.26051
291.22        16.38388
291.68        16.54055
292.13        16.72188
292.59        16.97087
293.04        17.36822
293.50        18.02834
293.95        18.94577
294.40        20.04118
294.86        21.17796
295.31        22.16637
295.77        22.97254
296.22        23.66313
296.68         24.3315
297.13        25.09863
297.58        26.02506
298.04        27.08884
298.49        28.29527
298.95        29.69651
299.40        31.28044
299.85        33.03501
300.31        34.87399
300.76        36.65131
301.21        38.29844
301.67        39.86537
302.12        41.35324
302.58        42.86159
303.03        44.40345
303.48         45.9796
303.94        47.66641
304.39         49.5241
304.84        51.56139
305.30        53.74724
305.75        55.92387
306.20        57.86896
306.66        59.54624
307.11        60.96461
307.57        62.28666
308.02        63.65407
308.47        65.16381
308.93        66.78325
309.38        68.41987
309.83        69.97518
310.29        71.40451
310.74        72.70079
311.19        73.93551
311.65        75.22006
312.10        76.56019
312.55        77.92941
313.00        79.16874
313.46        80.02717
313.91         80.4473
314.36         80.5335
314.82        80.55112
315.27        80.85809
315.72        81.57577
316.18        82.60673
316.63        83.76022
317.08        84.67015
317.53        85.22469
317.99        85.51419
318.44        85.73527
318.89        86.21373
319.35        87.00043
319.80        88.00755
320.25         88.9694
320.70        89.45693
321.16        89.37832
321.61        88.88564
322.06        88.27596
322.51        88.01159
322.97        88.19302
323.42        88.72686
323.87        89.39763
324.32        89.83094
324.78        89.90813
325.23        89.78828
325.68        89.61185
326.13        89.63148
326.59        89.89692
327.04        90.33987
327.49        90.86919
327.94        91.37611
328.39        91.80619
328.85        92.17346
329.30         92.5096
329.75        92.70116
330.20        92.76682
330.66        92.73981
331.11        92.78658
331.56        93.09965
332.01        93.74223
332.46        94.63614
332.92        95.69717
333.37        96.94237
333.82        98.21651
334.27        99.50797
334.72        100.5761
335.17        101.0446
335.63        100.8611
336.08        100.1866
336.53        99.39313
336.98        99.13189
337.43         99.5779
337.88        100.5596
338.34        101.8061
338.79        102.9424
339.24        103.7749
339.69        104.4331
340.14        104.9067
340.59         105.177
341.05        105.2853
341.50        105.2021
341.95         105.094
342.40         105.255
342.85        105.7435
343.30        106.4947
343.75        107.3299
344.20        107.9113
344.66        108.1477
345.11        108.1174
345.56        107.9482
346.01        107.8367
346.46        107.8544
346.91        107.9468
347.36        108.0808
347.81        108.2137
348.26        108.3309
348.72        108.4664
349.17        108.6165
349.62        108.8132
350.07        109.0477
350.52        109.2952
350.97        109.4939
351.42          109.56
351.87         109.483
352.32        109.2906
352.77        109.0504
353.22        108.8728
353.67        108.7821
354.13        108.7521
354.58        108.7009
355.03        108.5597
355.48        108.2977
355.93        107.9346
356.38        107.4831
356.83        106.9615
357.28        106.3871
357.73        105.7685
358.18        105.1132
358.63        104.4327
359.08        103.7439
359.53        103.0569
359.98        102.4084
360.43        101.8466
360.88         101.365
361.33        100.9324
361.78         100.491
362.23        99.95096
362.68        99.29719
363.13        98.57381
363.58        97.80431
364.03        97.02271
364.48         96.2522
364.93        95.48163
365.38        94.76893
365.83        94.20901
366.28        93.79907
366.73        93.49177
367.18        93.17842
367.63        92.68347
368.08         91.9735
368.53        91.12598
368.98        90.20559
369.43        89.30257
369.88         88.4604
370.33        87.65826
370.78        86.95592
371.23        86.45424
371.68        86.16176
372.13        86.04707
372.58        86.00394
373.03        85.84373
373.48        85.51373
373.93        85.06838
374.38        84.56273
374.83        84.08688
375.28        83.66728
375.72        83.25168
376.17        82.87318
376.62        82.56646
377.07        82.32043
377.52        82.11702
377.97        81.87404
378.42        81.45683
378.87        80.85654
379.32        80.14546
379.77        79.40051
380.22          78.725
380.67        78.14101
381.11        77.60713
381.56        77.13886
382.01        76.76823
382.46        76.49945
382.91        76.35069
383.36         76.2065
383.81        75.88169
384.26        75.35123
384.71        74.65147
385.15        73.96864
385.60        73.65507
386.05        73.70856
386.50        74.01222
386.95        74.28261
387.40        74.04775
387.85        73.26829
388.29        72.15406
388.74        71.09803
389.19        70.36588
389.64        70.00109
390.09        69.84388
390.54        69.89522
390.98        70.15482
391.43        70.55801
391.88        71.08132
392.33        71.44089
392.78        71.20639
393.23        70.38656
393.67         69.1601
394.12        68.00883
394.57        67.33821
395.02        67.27048
395.47        67.76857
395.91        68.60851
396.36        69.15591
396.81        69.24677
397.26        69.07647
397.71        68.75166
398.15        68.33771
398.60        67.97587
399.05        67.64404
399.50        67.33807
399.95        66.84857
400.39        66.49332
400.84        66.13616
401.29        65.88245
401.74        65.77815
402.18        65.81252
402.63        65.77428
403.08        65.73526
403.53        65.92293
403.97          66.327
404.42        66.81213
404.87        67.15607
405.32        67.03658
405.76        66.40168
406.21        65.42542
406.66        64.43387
407.11        63.90956
407.55        63.96105
408.00        64.42498
408.45        65.07716
408.90        65.44693
409.34        65.37077
409.79        65.01968
410.24         64.5745
410.68        64.27768
411.13        64.21271
411.58        64.26844
412.03        64.42342
412.47         64.6704
412.92        64.93127
413.37        65.23862
413.81        65.49397
414.26        65.58112
414.71        65.46242
415.15         65.1544
415.60        64.76856
416.05        64.50999
416.49        64.44328
416.94        64.54595
417.39        64.67381
417.83        64.56656
418.28        64.19446
418.73        63.64639
419.17        63.18282
419.62        63.21669
420.07        63.77576
420.51        64.71068
420.96         65.6747
421.41        66.05911
421.85        65.70621
422.30        64.99987
422.74        64.18658
423.19        63.52332
423.64        63.17578
424.08        63.50237
424.53        64.30444
424.98        64.84137
425.42        64.98067
425.87        65.18711
426.31        65.49982
426.76        65.55919
427.21         65.5219
427.65        65.95144
428.10        66.75275
428.54        67.44775
428.99        67.98124
429.44        68.26481
429.88        68.26043
430.33        68.66264
430.77         69.0299
431.22        67.80268
431.66        65.54942
432.11        64.57383
432.56        65.04709
433.00        66.02386
433.45        67.33467
433.89         68.9455
434.34        69.50837
434.78        71.19672
435.23        67.35008
435.67          65.258
436.12        68.13887
436.57        69.20124
437.01        69.47206
437.46        69.89861
437.90        70.79589
438.35        69.54517
438.79         70.8942
439.24        70.69469
439.68        70.41115
440.13        69.76673
440.57        69.26527
441.02        70.29792
441.46        72.34645
441.91        73.42454
442.35        73.21762
442.80        72.31908
443.24        71.20787
443.69        71.69695
444.13        73.37737
444.58         73.5674
445.02        71.64822
445.47        71.46178
445.91        72.66035
446.36        73.08752
446.80        72.65991
447.24        72.51619
447.69        72.74773
448.13        73.01311
448.58        73.32262
449.02        73.70316
449.47        74.09233
449.91        74.41165
450.36         74.6312
450.80        74.74142
451.25        74.74324
451.69        74.63264
452.13        74.41373
452.58        74.14484
453.02        73.89029
453.47        73.80615
453.91        73.89333
454.36        74.11436
454.80        74.42194
455.24        74.50468
455.69        74.30212
456.13        74.28098
456.58        74.52334
457.02        73.48897
457.46        73.23413
457.91        73.32516
458.35        74.08933
458.79         74.3581
459.24        74.09392
459.68        73.85981
460.13        73.71387
460.57        73.44508
461.01        73.12915
461.46        72.78678
461.90        72.42528
462.34        72.47617
462.79         72.2915
463.23        72.41776
463.68        73.04654
464.12        73.36172
464.56        73.42756
465.01        73.51214
465.45        73.45231
465.89        73.19475
466.34        72.73167
466.78        71.65336
467.22        70.48492
467.67        70.30019
468.11        71.63196
468.55        72.36797
468.99        72.35435
469.44        71.95081
469.88        71.37289
470.32        71.23839
470.77         71.5148
471.21        71.46658
471.65        71.07967
472.10        70.98109
472.54        71.15918
472.98        71.28784
473.42         71.3378
473.87        71.45869
474.31        71.58493
474.75        71.56092
475.20        71.41146
475.64        71.31919
476.08        71.36349
476.52        71.26261
476.97        70.95679
477.41        71.36638
477.85        71.63541
478.29        71.05687
478.74        71.50726
479.18        71.86866
479.62        70.58648
480.06        71.17583
480.50        71.42514
480.95        71.89588
481.39        72.16161
481.83        70.81625
482.27        71.03489
482.72        71.18463
483.16        69.54603
483.60        69.84256
484.04         71.2566
484.48        71.63263
484.93        71.52625
485.37        72.59939
485.81        73.77952
486.25        72.28626
486.69        97.44884
487.14        78.71463
487.58        49.09843
488.02         60.8643
488.46         68.9276
488.90        68.41813
489.34        70.38274
489.79        69.18527
490.23         71.2536
490.67        72.01568
491.11        71.12421
491.55        71.09566
491.99        71.49817
492.43        71.30271
492.88        70.59957
493.32        70.57169
493.76        70.71819
494.20        70.97314
494.64        71.08716
495.08        71.27811
495.52        71.54846
495.96        71.48587
496.41         71.0892
496.85        71.42419
497.29        72.22684
497.73        70.98451
498.17         68.7645
498.61        69.10758
499.05        71.94916
499.49        72.55467
499.93        72.39933
500.37        71.93584
500.82        71.23943
501.26        70.94203
501.70        71.83222
502.14        72.12483
502.58        71.95212
503.02        71.73249
503.46        71.65323
503.90        71.19257
504.34        70.58333
504.78        70.30122
505.22        70.40208
505.66        70.79549
506.10        71.32275
506.54        71.55064
506.98        71.35139
507.42        71.50349
507.86        70.96715
508.30        70.87928
508.74        70.96509
509.18        71.17037
509.62        71.38703
510.06        71.46096
510.50        71.36736
510.94        71.15833
511.38        70.94416
511.82        70.88567
512.26        71.01917
512.70        71.28819
513.14        71.59522
513.58         71.7851
514.02        71.80768
514.46        71.70463
514.90        71.55037
515.34        71.44765
515.78        71.41743
516.22         71.4871
516.66        71.60442
517.10        71.52288
517.54        71.22406
517.98        71.33825
518.42        71.09594
518.86         71.1717
519.30        71.32836
519.74        71.59668
520.18        71.89741
520.62         72.0978
521.06        72.16926
521.50        72.14389
521.93        72.05502
522.37        71.95642
522.81        71.87976
523.25        71.81645
523.69        71.78117
524.13        71.79678
524.57        71.86548
525.01         71.9816
525.45        72.12871
525.89        72.27641
526.32        72.39784
526.76        72.48809
527.20        72.52923
527.64        72.51563
528.08        72.46818
528.52        72.33801
528.96        72.11232
529.40        71.97648
529.83        71.98323
530.27        71.35241
530.71         71.5421
531.15        71.49081
531.59        71.62591
532.03        71.87671
532.46        72.20203
532.90         72.4958
533.34        72.70126
533.78        72.84206
534.22        72.89833
534.66        72.85366
535.09        72.70705
535.53        72.49179
535.97        72.25002
536.41         72.0734
536.85        71.99007
537.28        71.98426
537.72        72.01928
538.16        72.04245
538.60        72.03664
539.04        71.96358
539.47        71.83918
539.91        71.88114
540.35        72.01612
540.79        71.93008
541.22        71.66497
541.66        71.57725
542.10        71.67678
542.54        71.76877
542.97        71.82237
543.41        71.90068
543.85         71.9802
544.29        72.06252
544.72        72.10212
545.16        72.04202
545.60        71.86842
546.04        71.65053
546.47        71.48085
546.91        71.40255
547.35        71.50072
547.79        72.00519
548.22        72.64973
548.66        72.85495
549.10        72.48916
549.53        71.61302
549.97        70.60724
550.41        70.13192
550.84        70.31055
551.28        70.87381
551.72         71.6031
552.15        72.07731
552.59        72.14793
553.03        72.19236
553.46        72.13862
553.90        71.65534
554.34        71.97767
554.77         71.9642
555.21        71.92349
555.65         71.9764
556.08        72.15701
556.52        71.54962
556.96        71.83701
557.39        71.68844
557.83         71.6324
558.27        71.60425
558.70        71.64015
559.14        71.77228
559.57        71.95602
560.01        72.19724
560.45        72.41121
560.88        72.42793
561.32        72.26037
561.75        72.03448
562.19        71.83833
562.63        71.45424
563.06        71.03058
563.50        71.15176
563.93        71.67474
564.37         71.9116
564.80         71.7796
565.24        71.67466
565.68        71.63825
566.11        71.59013
566.55        71.59133
566.98        71.63529
567.42        71.71382
567.85        71.81939
568.29        71.98997
568.72        72.00577
569.16        72.02267
569.60         72.4611
570.03        72.89859
570.47        72.77923
570.90        72.36652
571.34        70.83581
571.77        71.66288
572.21        71.64554
572.64        70.96665
573.08        70.14938
573.51        67.31564
573.95        69.98167
574.38        74.28668
574.82         71.8135
575.25        71.62427
575.69        69.36006
576.12        68.14485
576.56        67.25322
576.99        68.64355
577.42        72.29015
577.86        72.41614
578.29        71.40751
578.73        75.15499
579.16        69.14612
579.60        63.62971
580.03        66.56187
580.47        70.55485
580.90        72.45319
581.33        71.02619
581.77        69.97715
582.20        76.83394
582.64        76.37661
583.07        65.28236
583.51        64.17252
583.94        63.17775
584.37         66.1179
584.81        69.52706
585.24        73.07832
585.68        74.44418
586.11        73.50218
586.54        68.46464
586.98        65.93251
587.41        66.62991
587.85        70.65866
588.28        72.77068
588.71        69.12757
589.15        67.06113
589.58        68.69143
590.01        69.03062
590.45        70.12993
590.88        70.93889
591.31        70.19064
591.75         69.6583
592.18        69.75676
592.61        71.42097
593.05        71.78999
593.48        74.76355
593.91        75.36488
594.35        69.05789
594.78        67.78022
595.21        67.67052
595.65        70.78782
596.08        73.32867
596.51        70.44167
596.94        68.44256
597.38        69.10045
597.81        71.79691
598.24        73.74644
598.68        72.06905
599.11        71.22516
599.54         73.7216
599.97        75.62607
600.41        69.98272
600.84        70.13049
601.27         71.6464
601.70        70.66852
602.14        70.70039
602.57        69.67887
603.00        70.17738
603.43        71.96746
603.87        73.44123
604.30        72.91644
604.73        70.68633
605.16        69.32414
605.60        70.27483
606.03        71.49464
606.46        72.64329
606.89        72.07364
607.32        70.07712
607.76         69.9782
608.19         71.9121
608.62        71.50281
609.05        69.80367
609.48        70.45979
609.92        70.55697
610.35        70.22822
610.78        72.12119
611.21        73.05194
611.64        69.74722
612.07        70.59957
612.50        71.07303
612.94        71.49002
613.37        70.74954
613.80        71.04155
614.23        71.22768
614.66        71.14515
615.09        71.43381
615.52        71.48674
615.96        71.42667
616.39        71.50307
616.82        70.49121
617.25        70.49017
617.68         71.0152
618.11        71.66883
618.54        72.10291
618.97        71.48757
619.40         70.2678
619.84        70.22118
620.27         71.2937
620.70        72.06345
621.13        72.29749
621.56        71.67446
621.99        70.88764
622.42         71.5601
622.85        73.29448
623.28        72.89034
623.71        72.47936
624.14         71.9631
624.57        72.05736
625.00        71.94833
625.43        72.11508
625.86        71.53316
626.29         71.6534
626.72        72.38533
627.15        71.94417
627.58        72.09884
628.01        72.19061
628.44        72.29562
628.87        72.43843
629.30        72.37617
629.73        72.78272
630.16        72.80329
630.59        72.61679
631.02        72.36319
631.45        72.11576
631.88        71.93205
632.31        71.83513
632.74        71.83081
633.17        71.86447
633.60        71.90082
634.03        71.91406
634.46        71.92569
634.89        71.93309
635.32        71.93108
635.75        71.92202
636.18        71.89724
636.61        71.87923
637.04        71.91127
637.47        71.99618
637.89        72.12878
638.32        72.24332
638.75        72.28019
639.18        72.22298
639.61        72.09856
640.04        71.94093
640.47        71.80346
640.90        71.71126
641.33        71.64814
641.76        71.59651
642.18        71.62997
642.61        71.74234
643.04        71.75158
643.47        71.60368
643.90        72.14155
644.33        71.86889
644.76        71.99124
645.18        72.04344
645.61        72.01447
646.04        71.88481
646.47        71.65002
646.90        71.43012
647.33        71.36418
647.75        71.50343
648.18        71.86251
648.61        72.19781
649.04        72.13771
649.47        71.64523
649.89        70.67274
650.32        69.71171
650.75        69.76634
651.18        70.74894
651.61        71.67995
652.03        72.12836
652.46        72.03954
652.89        71.77919
653.32        71.20407
653.74         70.6445
654.17        72.16058
654.60        71.93529
655.03        70.11504
655.46        70.80818
655.88        74.54462
656.31        79.69637
656.74        177.4569
657.16        114.3078
657.59        40.50134
658.02        30.70589
658.45        53.76072
658.87         69.0351
659.30        71.85969
659.73        71.06904
660.15        68.78297
660.58        71.14869
661.01        72.92571
661.44        70.54569
661.86        69.85837
662.29        70.00616
662.72         70.7874
663.14        71.95496
663.57        71.87282
664.00        70.81443
664.42        70.60586
664.85        71.31487
665.27        71.85966
665.70        71.79189
666.13        71.68414
666.55        71.44507
666.98         70.9652
667.41        70.42894
667.83        70.20052
668.26        70.35951
668.69        70.76145
669.11        71.17104
669.54        71.56184
669.96        71.18883
670.39        70.69429
670.82        70.11181
671.24        69.86353
671.67        70.05447
672.09        70.49543
672.52        70.90093
672.94        71.36801
673.37        70.67048
673.80        70.43807
674.22        70.40369
674.65        70.37619
675.07        70.35155
675.50        70.32606
675.92        70.32928
676.35        70.42513
676.77         70.6078
677.20        70.81187
677.62         71.0088
678.05        70.98505
678.47        70.99655
678.90        70.85196
679.32        70.70383
679.75        70.52535
680.17        70.62131
680.60        70.73965
681.02        70.86684
681.45        70.83061
681.87        70.61333
682.30         70.2622
682.72        69.92273
683.15        69.84582
683.57        70.09164
684.00        70.48706
684.42        71.01752
684.85        71.27733
685.27        71.23403
685.70        70.98512
686.12        70.65007
686.54        70.46477
686.97        70.47645
687.39        70.62724
687.82        70.82066
688.24        70.95397
688.66        70.96812
689.09        70.90504
689.51        70.83041
689.94        70.81616
690.36        70.89061
690.78        71.01888
691.21        71.14491
691.63        71.18798
692.06        71.13371
692.48        71.02641
692.90        70.93608
693.33        70.90638
693.75        70.94634
694.17        71.12608
694.60        71.42928
695.02        71.32517
695.44        71.50858
695.87        71.58827
696.29        71.77443
696.71        71.46746
697.14        70.91793
697.56        71.35777
697.98         72.4565
698.41        72.63886
698.83        71.58349
699.25        71.10742
699.68        71.19176
700.10        71.12372
700.52         70.9176
700.94        70.97918
701.37        71.27093
701.79        71.59442
702.21         71.8707
702.64        72.15846
703.06        72.35732
703.48         72.3018
703.90        71.99146
704.33        71.47565
704.75        70.92183
705.17        70.69228
705.59        70.87365
706.01        71.24786
706.44        71.62733
706.86        72.32049
707.28        72.28053
707.70        72.32864
708.12        72.23208
708.55        72.08115
708.97        71.88969
709.39        71.63923
709.81        71.41378
710.23        71.34952
710.66        71.47453
711.08        71.78692
711.50        72.12501
711.92        72.23891
712.34        72.07497
712.76        71.69067
713.19        71.26871
713.61        71.14134
714.03        71.36939
714.45        71.85508
714.87        72.37182
715.29        72.56063
715.71        72.34318
716.13        71.83604
716.56        71.26006
716.98        70.99959
717.40        71.14406
717.82        71.57441
718.24        72.09322
718.66        72.36911
719.08        72.30928
719.50        72.02214
719.92        71.64619
720.34        71.41631
720.76         71.4023
721.19        71.40934
721.61        71.59963
722.03        71.73722
722.45        71.84671
722.87         71.9528
723.29        72.05165
723.71         72.1234
724.13         72.1621
724.55        72.15994
724.97        72.13132
725.39        72.11098
725.81        72.10827
726.23        72.12057
726.65        72.13375
727.07        72.11903
727.49        72.07831
727.91        72.03313
728.33        72.00697
728.75        72.03725
729.17        72.12823
729.59        72.25239
730.01        72.40805
730.43        72.58615
730.85        72.77597
731.27        73.00079
731.69        73.18537
732.10        73.18774
732.52        72.98946
732.94        72.67864
733.36        72.41113
733.78        72.30151
734.20        72.38377
734.62        72.92617
735.04        73.71013
735.46        73.64173
735.88        72.97018
736.30        73.35295
736.72        74.68012
737.13        75.21538
737.55        74.70744
737.97        74.43018
738.39        74.51202
738.81         73.9826
739.23        73.17549
739.65        73.92417
740.06        75.76547
740.48        75.86777
740.90        74.36229
741.32        73.72375
741.74         74.1897
742.16        74.49028
742.57        74.66242
742.99         75.4472
743.41        76.60793
743.83         77.3107
744.25        77.40356
744.67        77.09927
745.08        76.63807
745.50        76.40667
745.92        76.53611
746.34        76.90375
746.75        77.33799
747.17        77.54676
747.59        77.47742
748.01        77.22759
748.42        77.01196
748.84        77.14494
749.26        77.69531
749.68         78.5331
750.09        79.41359
750.51        79.93984
750.93        80.02205
751.35        79.71726
751.76        79.22701
752.18        79.06449
752.60        79.23376
753.01        79.26726
753.43         79.1633
753.85         79.3165
754.27        79.73762
754.68        80.23511
755.10         80.7047
755.52        81.13042
755.93        81.45396
756.35        81.61746
756.77        81.71224
757.18        81.78122
757.60        81.83954
758.02        82.19945
758.43        82.61125
758.85        82.05128
759.26        80.70064
759.68        80.58876
760.10        81.48634
760.51        81.89918
760.93        81.67758
761.34        80.26398
761.76        80.53847
762.18        79.96543
762.59        79.54602
763.01        79.74416
763.42         80.5903
763.84        81.22318
764.26        81.52559
764.67        81.90547
765.09        82.19798
765.50        82.02702
765.92         81.3924
766.33        80.10416
766.75        78.70345
767.16        78.35543
767.58         79.1966
768.00        80.88922
768.41        82.93888
768.83         84.1015
769.24        83.96134
769.66        83.00494
770.07        81.77734
770.49        80.51401
770.90        79.53611
771.32        80.28186
771.73        82.14536
772.15        81.56386
772.56        79.03777
772.97        78.70441
773.39        80.43713
773.80        81.09473
774.22         80.4415
774.63         80.4118
775.05        80.96297
775.46        81.20463
775.88        81.04294
776.29        80.73918
776.70        80.41606
777.12        80.29595
777.53        80.44747
777.95        80.75083
778.36        81.04317
778.77        81.03723
779.19        80.71259
779.60        80.16467
780.02        79.62708
780.43        79.52382
780.84        79.98221
781.26        80.48667
781.67        80.95429
782.09        82.00178
782.50        83.14687
782.91        82.36351
783.33          80.262
783.74        79.56313
784.15        80.40344
784.57        80.93514
784.98        80.90791
785.39        80.87633
785.81        80.78212
786.22        80.32085
786.63        79.77576
787.04        79.71767
787.46        80.20356
787.87        81.05097
788.28         81.9659
788.70        82.44791
789.11        82.36686
789.52        81.88757
789.93        81.27284
790.35        80.88402
790.76        80.83205
791.17        81.06555
791.58        81.41933
792.00        81.58573
792.41        81.48078
792.82        81.16065
793.23        80.88413
793.65        80.80068
794.06        81.02203
794.47        82.11381
794.88        83.37675
795.29        82.77126
795.71        80.56732
796.12        78.54392
796.53        77.34327
796.94        77.05209
797.35        77.74748
797.76        79.13567
798.18         80.6058
798.59        81.58131
799.00        81.70444
799.41         80.8753
799.82        79.56438
800.23        78.77202
800.64        78.72074
801.06        79.02868
801.47        79.56413
801.88        80.00098
802.29        80.20345
802.70         80.3201
803.11         80.3532
803.52        80.26715
803.93        80.09328
804.34        79.79704
804.75        79.51393
805.17        79.56015
805.58        80.02612
805.99        80.56879
806.40        80.97974
806.81        81.53992
807.22        81.84863
807.63        80.58183
808.04        78.36549
808.45        77.39667
808.86        77.90579
809.27        78.85541
809.68        79.79408
810.09        80.31477
810.50        80.18321
810.91        79.54706
811.32        78.73201
811.73        78.25848
812.14        78.26948
812.55        78.56924
812.96        79.02399
813.37        79.39153
813.78        79.56336
814.19        79.67475
814.60        79.63297
815.01        79.27116
815.42        78.60435
815.83        77.64354
816.24        76.74181
816.65        76.52861
817.05        77.17974
817.46        78.48198
817.87        79.92382
818.28        80.57021
818.69        80.16779
819.10        78.94027
819.51        77.47768
819.92        76.79122
820.33        77.14724
820.74         78.2439
821.14        79.52796
821.55        80.00007
821.96        79.45255
822.37        78.23861
822.78        76.87318
823.19         76.1065
823.60        76.14067
824.00        76.78947
824.41        77.68053
824.82        78.29749
825.23        78.41678
825.64         78.2183
826.04        77.88847
826.45        77.69693
826.86        77.71347
827.27        77.80422
827.68         77.8988
828.08        77.93258
828.49        77.81725
828.90        77.67071
829.31        77.46468
829.72        77.13457
830.12        76.73093
830.53        76.25199
830.94        75.92517
831.35        76.05486
831.75        76.71673
832.16        77.77351
832.57        78.94189
832.97        79.63061
833.38        79.58887
833.79        78.97876
834.20        78.18261
834.60        77.78906
835.01        77.96344
835.42         78.5281
835.82        79.16861
836.23        79.26582
836.64         78.7169
837.04        77.76201
837.45        76.76833
837.86        76.30779
838.26        76.53117
838.67        77.20784
839.08         78.0981
839.48        78.76726
839.89        79.01145
840.29        78.98128
840.70        78.72951
841.11        78.31615
841.51        77.81168
841.92        77.16893
842.33        76.55997
842.73        76.29338
843.14        76.39513
843.54        76.83965
843.95        77.36123
844.35        77.55904
844.76        77.32053
845.17        76.78643
845.57        76.17664
845.98        75.84301
846.38        75.87205
846.79        76.11568
847.19        76.48194
847.60        76.72002
848.00        76.77902
848.41        76.71989
848.81        76.58595
849.22        76.35688
849.62        76.10348
850.03        75.82027
850.43        75.63194
850.84        75.68858
851.24         76.0638
851.65        76.53771
852.05        77.14012
852.46        77.72707
852.86        78.23484
853.27        78.73755
853.67        78.82983
854.07         78.0157
854.48        76.37568
854.88        74.09554
855.29         71.9809
855.69        71.20031
856.10        71.96669
856.50        74.14988
856.90         76.9819
857.31        78.66169
857.71        78.61358
858.12        77.28271
858.52        75.51178
858.92        74.42499
859.33        74.27596
859.73        74.75761
860.13         75.6638
860.54        76.55531
860.94        77.28161
861.34        77.94589
861.75         78.4976
862.15        78.93849
862.55        79.23585
862.96        79.32941
863.36        79.28644
863.76        79.22445
864.17        79.18776
864.57        79.21275
864.97        79.30502
865.38        79.44536
865.78        79.67194
866.18        79.93051
866.58        80.20692
866.99        80.45763
867.39        80.72209
867.79        81.02866
868.19        81.24698
868.60        81.13146
869.00        80.66779
869.40        79.93394
869.80        79.40289
870.21          79.797
870.61        81.31519
871.01        83.69704
871.41        86.24411
871.81        87.76003
872.22        87.91798
872.62         87.0705
873.02        85.83258
873.42        85.33427
873.82        85.70966
874.22        86.33918
874.63        87.01202
875.03        87.39202
875.43        87.21987
875.83        87.36993
876.23        86.44963
876.63        86.15483
877.03        86.40842
877.44        87.39194
877.84        103.2269
878.24          92.622
878.64        92.71613
879.04        92.59417
879.44        89.11707
879.84        87.64525
880.24        91.39636
880.64        93.67715
881.04        95.22394
881.44         95.9791
881.84        95.15469
882.24        93.14259
882.65         91.1345
883.05        90.38011
883.45        91.08725
883.85        93.12195
884.25        95.66965
884.65        97.04245
885.05        96.72462
885.45         95.3049
885.85        93.63838
886.25        92.88973
886.65        93.30832
887.05        94.47973
887.45        95.95778
887.85        96.96081
888.25        97.19297
888.65        96.95939
889.04        96.43295
889.44        95.90787
889.84        95.50137
890.24        95.07733
890.64        94.77718
891.04        94.85405
891.44        95.30392
891.84        96.08366
892.24        96.85141
892.64        96.95871
893.04        96.31672
893.44        95.22626
893.83        94.09749
894.23        93.52981
894.63         93.6362
895.03        94.16869
895.43         95.0789
895.83        96.25282
896.23        97.51382
896.63        98.87515
897.02        99.84241
897.42        99.62194
897.82        98.16991
898.22        95.80746
898.62        93.36223
899.01        92.05251
899.41         92.1627
899.81        93.28424
900.21        94.88848
900.61        96.09513
901.00        96.58326
901.40        96.60231
901.80        96.31302
902.20        95.96707
902.59        95.67178
902.99        95.31516
903.39        94.88341
903.79        94.39379
904.18         93.8985
904.58        93.52164
904.98        93.36266
905.38        93.54059
905.77        94.01376
906.17        94.64965
906.57        95.34469
906.96        96.00687
907.36        96.50716
907.76        96.88842
908.15         96.9553
908.55        96.28639
908.95        94.93871
909.34        93.06641
909.74        91.27206
910.14        90.31548
910.53        90.42265
910.93        91.44592
911.33        93.04238
911.72        94.53455
912.12        95.51787
912.52        96.05408
912.91          96.338
913.31        96.67686
913.70        97.20228
914.10        97.83595
914.49        98.23492
914.89        97.59357
915.29        95.85207
915.68        93.40511
916.08        91.38129
916.47        90.76984
916.87        91.61368
917.26        93.58813
917.66        95.72063
918.05        96.41747
918.45        95.28616
918.84        92.88261
919.24        90.28463
919.64        89.08127
920.03          89.688
920.42        91.62221
920.82        94.10355
921.21        95.87799
921.61        96.32246
922.00        95.86496
922.40        94.87578
922.79        93.85025
923.19        93.02836
923.58        92.18623
923.98        91.22513
924.37         90.3776
924.77        89.95895
925.16        87.90967
925.55        88.55906
925.95        89.29916
926.34        91.36603
926.74        94.17007
927.13        96.92828
927.52        98.13179
927.92        97.56046
928.31        95.69548
928.70        93.20766
929.10        91.24919
929.49        90.15927
929.89        89.64912
930.28        89.76714
930.67        90.58646
931.07        91.87976
931.46        93.71954
931.85        95.39407
932.24        95.82604
932.64        94.83784
933.03        92.54389
933.42        89.60737
933.82        87.58058
934.21        86.93427
934.60        87.33897
934.99        88.04998
935.39        88.23094
935.78        87.76185
936.17        86.49354
936.56        84.43188
936.96        85.36487
937.35        85.01022
937.74        86.41498
938.13        87.74413
938.53        88.94951
938.92        90.09016
939.31        91.38348
939.70        92.43862
940.09        92.19301
940.49        90.49918
940.88        87.89683
941.27        85.45489
941.66        84.39827
942.05        84.83695
942.44        86.40659
942.84         88.5174
943.23        90.16042
943.62        90.85246
944.01        90.82546
944.40        90.36788
944.79        89.95651
945.18        89.74593
945.57        89.56791
945.97        89.22002
946.36         88.4136
946.75        87.27415
947.14        86.15641
947.53        85.40739
947.92         85.2655
948.31        85.69637
948.70        86.62376
949.09        87.82009
949.48        88.71738
949.87        88.99903
950.26        88.71942
950.65         88.1506
951.04        87.76077
951.43        87.67003
951.82        87.75854
952.21        87.73904
952.60        87.17418
952.99         86.0211
953.38        84.48138
953.77        83.02907
954.16        82.31305
954.55        82.45512
954.94         83.3137
955.33        84.35673
955.72        84.68596
956.11        84.08881
956.50        82.78323
956.89        81.47348
957.28        81.45837
957.66        83.12641
958.05         85.7948
958.44        88.56536
958.83        90.11634
959.22        90.11118
959.61        88.92426
960.00        87.07885
960.39        85.42769
960.78        84.29115
961.16        83.47928
961.55        82.79283
961.94        81.93266
962.33        80.87572
962.72        79.86012
963.11        79.09577
963.49        78.78183
963.88        78.91034
964.27         79.3959
964.66         80.0369
965.04        80.45111
965.43        80.38941
965.82        80.00735
966.21        79.53708
966.60        79.30223
966.98        79.38046
967.37        79.61365
967.76        79.90073
968.15        80.02898
968.53        79.92987
968.92        79.67155
969.31        79.33417
969.69         78.9698
970.08        78.63061
970.47        78.33365
970.86        78.11185
971.24        78.03196
971.63        78.12898
972.02          78.394
972.40        78.91619
972.79        79.80796
973.17        81.12482
973.56        82.63438
973.95        84.03569
974.33        84.73198
974.72        84.46479
975.11        83.44056
975.49        82.08669
975.88        81.04753
976.26        80.41582
976.65        80.04113
977.04         79.6679
977.42        78.76073
977.81        77.26445
978.19        75.48439
978.58        74.33056
978.96        74.52864
979.35        76.13434
979.74        79.01962
980.12        82.66317
980.51        84.82059
980.89         84.9477
981.28        83.54425
981.66        81.63099
982.05         80.5434
982.43        80.48705
982.82        80.99598
983.20        81.95638
983.59        83.28477
983.97        84.97189
984.35        87.16785
984.74        89.20608
985.12        89.92072
985.51        88.55101
985.89        85.23923
986.28        81.06531
986.66        77.79048
987.04        76.22898
987.43        76.10395
987.81        76.42533
988.20        75.83731
988.58        73.87177
988.96        70.21347
989.35        65.57497
989.73        64.14223
990.12        68.46906
990.50        76.44373
990.88        83.14956
991.27        85.03502
991.65        82.68083
992.03         77.3171
992.42        71.07848
992.80        67.86256
993.18        68.95312
993.56        72.21458
993.95        76.13828
994.33        79.61774
994.71        82.14604
995.10        84.44429
995.48        85.83379
995.86        84.93578
996.24        81.51595
996.63        75.41811
997.01        68.31499
997.39        65.19862
997.77        68.30232
998.15        76.44482
998.54        85.66423
998.92        90.49571
999.30        89.30788
999.68         83.5376
1000.06        74.86034
1000.45        67.61161
1000.83        63.92658
1001.21        62.54266
1001.59        62.89925
1001.97        64.40353
1002.35        66.70171
1002.73        70.63442
1003.12        74.97165
1003.50        75.54851
1003.88        70.82053
1004.26        62.92918
1004.64        55.68624
1005.02        52.38143
1005.40         53.2686
1005.78         58.0355
1006.16        67.68847
1006.54        78.59141
1006.92        84.26669
1007.30        85.27683
1007.69        83.98802
1008.07        82.24219
1008.45        79.95454
1008.83        74.97569
1009.21        62.61639
1009.59        31.76475
1009.97       -30.45531
1010.35       -83.25882
1010.73       -41.72061
1011.11        4.312765
1011.49        28.63089
1011.86        44.23309
1012.24        52.64438
1012.62        56.85307
1013.00        58.98659
1013.38           59.44
1013.76        59.96518
1014.14        65.55104
1014.52        79.64681
1014.90        103.0535
1015.28         128.822
1015.66        138.7432
1016.04        122.8461
1016.41        86.46344
1016.79        48.76818
1017.17        29.05706
1017.55        26.23291
1017.93        30.18986
1018.31        36.71539
1018.69        44.77494
1019.06        55.01667
1019.44        69.64687
1019.82        91.65107
1020.20        119.2885
1020.58        148.1142
1020.95        173.9629
1021.33        192.3564
1021.71       -106.1343
1022.09        122.3817
1022.46        133.9138
1022.84        138.8141
1023.22        145.5686
1023.60        162.1877
1023.97        315.5546
1024.35        61.78612
1024.73        97.13617
