SpectraSmart Spectrum 2.9.0.0
--------- Device Information -----------
Spectrum Name :  反射率_0
Saving Time :  2024/04/26 01:29:13
Spectro-Module Model Name : SE2030-DUVN
Spectro-Module Serial Number : OS361AC55029948
Wavelength Start : 200
Wavelength End : 1025
Wavelength Unit : Wavelength(nm)
Spectrum Unit : Reflectance(%)
-----------Spectrum Setting ------------
Integration Time : 20ms
Average : 10
Boxcar : 0
Background removal :  enabled
linearity correction :  enabled
SC :  disabled
Intensity correction :  disabled
DWT denoise :  enabled
savitzky-golay :  disabled
FFT :  disabled
Running average :  disabled
Kalman :  disabled
High pass :  disabled
---------------BEGIN--------------------
Wavelength(nm)             Reflectance(%)
200.29               0
200.75        84.13913
201.21        77.30087
201.67         69.2662
202.13        64.22665
202.58        62.75755
203.04        63.99459
203.50        66.57317
203.96        68.18264
204.42        68.18345
204.88        67.40571
205.34        66.88702
205.80        67.88175
206.26        71.19242
206.72        78.48756
207.18        92.58187
207.64        105.1939
208.10        97.52801
208.55        80.89343
209.01        69.93703
209.47        65.50697
209.93        64.64613
210.39        65.94469
210.85        67.58345
211.31        66.16852
211.77         61.0259
212.23        53.61688
212.69        47.12142
213.14         46.4422
213.60        52.10103
214.06        62.65057
214.52        74.38396
214.98        81.64242
215.44        82.86547
215.90        79.69971
216.36        74.59309
216.81         70.9375
217.27        69.88474
217.73        70.36125
218.19         70.6062
218.65        68.19205
219.11        62.12953
219.57        51.68649
220.02        38.35037
220.48        30.83516
220.94        33.83767
221.40        44.88698
221.86        55.30642
222.32        56.11311
222.77        48.44494
223.23        37.44305
223.69        27.96067
224.15        24.86245
224.61        27.65872
225.06        33.83009
225.52        40.30118
225.98        43.38097
226.44        42.31504
226.90        38.73936
227.36        34.39795
227.81        31.53836
228.27        31.02306
228.73        31.90669
229.19        33.55969
229.65        35.10035
230.10        36.18339
230.56        37.04037
231.02        37.83861
231.48        38.73331
231.93        39.71161
232.39        40.64528
232.85        41.34571
233.31        41.58672
233.77        41.30729
234.22        40.57558
234.68        39.55305
235.14         38.5145
235.60        37.68201
236.05        37.14052
236.51         36.8571
236.97        36.67322
237.43        36.58643
237.88        36.70165
238.34         37.3418
238.80         39.1885
239.26        42.31976
239.71        46.43681
240.17        50.44493
240.63        53.04219
241.08        53.92958
241.54        53.35906
242.00        52.02532
242.46        50.84346
242.91        50.07226
243.37        49.04148
243.83        49.06644
244.28        63.09055
244.74         104.389
245.20         114.588
245.66        107.4827
246.11        103.5405
246.57        101.7818
247.03        98.34859
247.48        80.27018
247.94        55.76178
248.40        66.55542
248.85        73.84342
249.31        77.83636
249.77        80.19643
250.22        82.14579
250.68        84.57623
251.14        87.19907
251.59        87.16994
252.05        82.86587
252.51         76.2066
252.96        69.99835
253.42        66.90678
253.88        66.27834
254.33        67.13114
254.79        69.46564
255.25        72.59159
255.70        75.69701
256.16        78.74121
256.62        80.43235
257.07        79.46898
257.53         76.5626
257.99        72.11648
258.44        67.54655
258.90        65.37991
259.35        64.81582
259.81        64.99573
260.27        64.32056
260.72        61.23586
261.18        56.46867
261.63        50.76743
262.09        45.61931
262.55        42.11765
263.00        40.23029
263.46        39.46386
263.91        38.98809
264.37        38.15016
264.83        36.77143
265.28        34.97552
265.74        33.28141
266.19        32.23032
266.65        31.97299
267.11        32.17065
267.56        32.30527
268.02        31.74499
268.47         30.4048
268.93        28.51997
269.38        26.48301
269.84        25.20076
270.30        24.91585
270.75        25.37012
271.21        26.08426
271.66        26.34278
272.12        25.94193
272.57        25.09602
273.03         24.1375
273.48        23.49108
273.94        23.28146
274.39         23.3192
274.85        23.36696
275.31        23.08931
275.76        22.42234
276.22        21.52849
276.67        20.62302
277.13        20.08241
277.58        19.92422
278.04        20.03229
278.49        20.15266
278.95        19.97294
279.40        19.42817
279.86         18.6928
280.31        17.91999
280.77        17.43391
281.22        17.26073
281.68        17.29035
282.13        17.41262
282.59        17.49773
283.04        17.49842
283.50        17.49075
283.95        17.42509
284.41        17.22996
284.86        16.91613
285.32        16.51711
285.77        16.18982
286.22        16.22875
286.68        16.64001
287.13        17.29534
287.59        17.94673
288.04        18.22305
288.50        18.07104
288.95        17.60859
289.41        17.03793
289.86        16.56876
290.32        16.32532
290.77        16.23465
291.22        16.30643
291.68         16.5194
292.13        16.86125
292.59        17.34498
293.04        17.94537
293.50         18.6086
293.95         19.2995
294.40        19.99567
294.86         20.6739
295.31        21.32213
295.77        21.94906
296.22        22.56485
296.68        23.19068
297.13        23.82889
297.58        24.50615
298.04        25.24647
298.49        26.08242
298.95        27.10199
299.40        28.30338
299.85        29.64537
300.31        31.05682
300.76        32.42791
301.21        33.69244
301.67        34.89423
302.12        35.97773
302.58        36.94203
303.03        37.79043
303.48        38.54988
303.94        39.37854
304.39        40.47151
304.84         41.8624
305.30        43.48238
305.75            45.1
306.20        46.37038
306.66        47.24426
307.11        47.80239
307.57        48.28355
308.02        48.95383
308.47        49.92037
308.93        51.09191
309.38        52.33528
309.83        53.48323
310.29        54.46453
310.74         55.3074
311.19        56.05891
311.65         56.7897
312.10        57.51446
312.55        58.21478
313.00        58.82135
313.46        59.23548
313.91        59.43563
314.36        59.48307
314.82        59.53033
315.27        59.77077
315.72        60.27103
316.18        60.97561
316.63        61.76188
317.08        62.38871
317.53        62.78032
317.99        62.98538
318.44        63.13827
318.89        63.46572
319.35        64.00134
319.80        64.68842
320.25        65.33102
320.70        65.61203
321.16        65.46779
321.61        65.00928
322.06         64.4722
322.51        64.22158
322.97        64.33287
323.42        64.73106
323.87        65.22757
324.32        65.49554
324.78         65.4393
325.23        65.19207
325.68        64.89928
326.13        64.81269
326.59         64.9896
327.04        65.36726
327.49        65.84896
327.94        66.30034
328.39        66.66531
328.85        66.96713
329.30        67.25445
329.75        67.49241
330.20        67.69458
330.66        67.84509
331.11        68.02956
331.56        68.32914
332.01         68.7719
332.46        69.32587
332.92        69.93086
333.37        70.59596
333.82        71.23625
334.27        71.86044
334.72        72.37768
335.17        72.64857
335.63         72.6608
336.08        72.48706
336.53        72.29969
336.98        72.40905
337.43        72.89032
337.88        73.65847
338.34        74.54302
338.79        75.33287
339.24        75.91426
339.69        76.36194
340.14        76.70457
340.59        76.99092
341.05        77.25218
341.50        77.45314
341.95        77.65561
342.40        77.98248
342.85        78.45942
343.30        79.06701
343.75        79.70612
344.20        80.18573
344.66        80.45388
345.11        80.53747
345.56        80.52721
346.01        80.56599
346.46        80.69788
346.91        80.88755
347.36        81.07915
347.81        81.18758
348.26        81.20495
348.72        81.19278
349.17        81.19527
349.62        81.33345
350.07         81.6283
350.52        82.03001
350.97        82.46619
351.42        82.83371
351.87        83.10011
352.32        83.28967
352.77        83.41969
353.22         83.5218
353.67        83.60559
354.13        83.66407
354.58        83.67596
355.03         83.6658
355.48          83.632
355.93        83.57296
356.38        83.46738
356.83        83.27705
357.28        82.99945
357.73        82.65568
358.18        82.27502
358.63        81.90173
359.08        81.55502
359.53        81.22958
359.98        80.92358
360.43        80.63044
360.88        80.34047
361.33        80.04814
361.78        79.74699
362.23        79.42781
362.68        79.08865
363.13        78.73649
363.58        78.35639
364.03        77.92414
364.48         77.4436
364.93        76.92712
365.38        76.42223
365.83        76.00653
366.28        75.68781
366.73        75.42757
367.18        75.17922
367.63        74.86703
368.08        74.47367
368.53         74.0435
368.98        73.56612
369.43        73.01797
369.88        72.41158
370.33        71.74998
370.78        71.14188
371.23        70.77187
371.68        70.67117
372.13         70.7853
372.58        70.95341
373.03        70.89719
373.48         70.5499
373.93        70.00734
374.38        69.40868
374.83        68.96534
375.28         68.7356
375.72        68.63763
376.17        68.63479
376.62        68.64218
377.07        68.61027
377.52        68.54301
377.97        68.42103
378.42        68.21121
378.87        67.91429
379.32        67.55547
379.77        67.12405
380.22        66.60298
380.67        66.00559
381.11        65.34613
381.56        64.73463
382.01        64.35452
382.46        64.24768
382.91        64.37615
383.36        64.56664
383.81        64.53587
384.26        64.22169
384.71        63.69652
385.15        63.13712
385.60        62.87201
386.05        62.91675
386.50        63.15381
386.95        63.37422
387.40        63.23543
387.85        62.69963
388.29        61.91778
388.74        61.15934
389.19          60.568
389.64        60.17363
390.09        59.87283
390.54        59.71201
390.98        59.77304
391.43        60.03654
391.88         60.4609
392.33        60.79631
392.78        60.66714
393.23        60.07086
393.67        59.14271
394.12        58.27474
394.57        57.83629
395.02        57.90394
395.47        58.32976
395.91        58.97663
396.36        59.50684
396.81         59.7966
397.26        59.90433
397.71        59.82995
398.15        59.53075
398.60        59.12322
399.05        58.63354
399.50        58.14256
399.95        57.62391
400.39         57.3645
400.84        57.10358
401.29        56.93445
401.74         57.0492
402.18        57.38114
402.63        57.49842
403.08        57.44328
403.53        57.59541
403.97        57.94574
404.42        58.24442
404.87        58.38066
405.32         58.2444
405.76        57.81216
406.21         57.2883
406.66        56.80172
407.11        56.32159
407.55        56.06219
408.00        56.34763
408.45        57.05484
408.90        57.59147
409.34        57.70984
409.79        57.33838
410.24        56.70907
410.68        56.41734
411.13        56.55194
411.58        56.77148
412.03        57.01503
412.47        57.33253
412.92        57.63803
413.37        57.93615
413.81        58.16434
414.26        58.26676
414.71        58.22149
415.15        58.03344
415.60        57.78347
416.05        57.62642
416.49        57.60947
416.94        57.71934
417.39        57.84401
417.83        57.77459
418.28        57.49227
418.73        57.07646
419.17        56.72659
419.62        56.75934
420.07        57.19739
420.51        57.92635
420.96         58.7085
421.41        59.09944
421.85        58.96819
422.30         58.6554
422.74        58.27855
423.19        57.83353
423.64        57.49159
424.08        57.83727
424.53        58.71125
424.98         59.2384
425.42        59.29047
425.87        59.48164
426.31        59.85173
426.76        59.71967
427.21        59.65472
427.65        60.02684
428.10        60.85838
428.54        61.62474
428.99        62.27505
429.44        62.60247
429.88         62.6341
430.33        63.41988
430.77        64.35337
431.22         63.2694
431.66        60.78321
432.11        59.60722
432.56        59.96933
433.00        60.98486
433.45        62.51159
433.89        64.09259
434.34        64.36517
434.78        66.77223
435.23        62.96993
435.67        61.17765
436.12        63.89059
436.57        64.91669
437.01        65.27594
437.46        65.50876
437.90        65.85009
438.35        65.45332
438.79        66.05029
439.24         66.0583
439.68        66.00555
440.13         65.8793
440.57        65.94991
441.02        66.75961
441.46        68.02687
441.91        69.12614
442.35        69.63618
442.80        68.91168
443.24        67.45221
443.69        67.79848
444.13         69.6531
444.58        69.79346
445.02        68.37329
445.47        68.20643
445.91        69.22158
446.36        69.60287
446.80        69.28454
447.24        69.16365
447.69        69.31771
448.13        69.52035
448.58        69.78821
449.02        70.12337
449.47        70.47906
449.91        70.79842
450.36        71.05658
450.80        71.24847
451.25        71.36195
451.69        71.34902
452.13        71.23755
452.58        71.05253
453.02        70.87672
453.47        70.88538
453.91        71.08527
454.36        71.41008
454.80        71.75597
455.24        71.88026
455.69        71.72402
456.13        71.46924
456.58        71.23663
457.02        70.71473
457.46        70.20574
457.91        70.61581
458.35        71.67349
458.79         72.1488
459.24        71.97237
459.68        71.72797
460.13        71.50026
460.57        71.27425
461.01        71.17805
461.46        70.66134
461.90        70.22294
462.34        70.87353
462.79         70.4848
463.23        70.76306
463.68        70.98595
464.12        71.41014
464.56        71.86407
465.01        71.90149
465.45         71.5045
465.89        71.34045
466.34        71.29048
466.78        70.40386
467.22        69.18156
467.67        68.47056
468.11        69.64308
468.55        70.30009
468.99        70.52699
469.44        70.30184
469.88        69.82313
470.32        69.94925
470.77        70.56406
471.21        70.66972
471.65         70.2066
472.10        69.87487
472.54        69.77434
472.98         69.7253
473.42        69.73924
473.87        70.02071
474.31        70.38705
474.75         70.2765
475.20        69.81102
475.64        69.70245
476.08         69.9819
476.52        70.05223
476.97        69.89481
477.41         70.0259
477.85        70.42427
478.29        70.24352
478.74        70.34971
479.18        70.48785
479.62        69.59172
480.06        70.24671
480.50         70.5421
480.95        71.02531
481.39         71.2165
481.83        70.23231
482.27        70.39896
482.72        70.01074
483.16        68.59912
483.60        68.82771
484.04        70.29974
484.48        70.99413
484.93        71.28455
485.37        72.39311
485.81        72.82152
486.25        71.79259
486.69        97.49467
487.14        79.14457
487.58        49.10382
488.02        59.94821
488.46        68.66538
488.90        68.22431
489.34         69.7571
489.79        68.42962
490.23        70.62997
490.67        71.40953
491.11        70.46412
491.55        70.59152
491.99        71.29144
492.43        71.20319
492.88        70.37912
493.32        70.15252
493.76        70.10724
494.20        70.23622
494.64        70.32219
495.08        70.63245
495.52        71.09517
495.96        71.02373
496.41        70.47087
496.85        70.87634
497.29        71.94566
497.73        70.86407
498.17        68.64725
498.61        68.88278
499.05        71.56204
499.49         72.1489
499.93        72.15642
500.37         71.9178
500.82        71.37256
501.26        71.41746
501.70        71.80386
502.14        72.11184
502.58        72.19866
503.02         71.7983
503.46        71.81811
503.90        71.34659
504.34         70.8226
504.78        70.56883
505.22        70.64233
505.66        70.96728
506.10        71.39593
506.54        71.54259
506.98        71.29742
507.42        71.19794
507.86        70.98509
508.30        70.43076
508.74          70.881
509.18        71.15024
509.62        71.52338
510.06        71.67644
510.50        71.60113
510.94         71.5234
511.38        71.49144
511.82        71.45786
512.26        71.44683
512.70        71.52206
513.14        71.64323
513.58        71.70293
514.02        71.67818
514.46        71.59818
514.90        71.51343
515.34        71.48338
515.78        71.51154
516.22        71.63857
516.66        71.79613
517.10        71.71336
517.54        71.37074
517.98        71.39774
518.42        71.06799
518.86        71.12228
519.30        71.33418
519.74        71.71386
520.18         72.1368
520.62        72.39402
521.06        72.44139
521.50        72.34177
521.93        72.16205
522.37        72.01151
522.81         71.9391
523.25        71.91028
523.69        71.93916
524.13        72.05042
524.57        72.23457
525.01        72.48479
525.45        72.73768
525.89        72.88525
526.32        72.89177
526.76         72.7804
527.20        72.60184
527.64        72.46123
528.08        72.40597
528.52        72.35266
528.96         72.2428
529.40        72.18712
529.83        72.21481
530.27        71.56911
530.71        71.72217
531.15        71.62213
531.59        71.70789
532.03        71.90291
532.46        72.18382
532.90        72.47779
533.34        72.73232
533.78        72.95984
534.22        73.11626
534.66        73.14733
535.09        73.04028
535.53        72.83694
535.97         72.5874
536.41         72.3959
536.85        72.29715
537.28        72.27952
537.72        72.30783
538.16        72.31963
538.60        72.29542
539.04        72.24866
539.47        72.11318
539.91         72.1995
540.35         72.4063
540.79        72.41824
541.22        72.23779
541.66        72.16536
542.10        72.20355
542.54        72.16965
542.97        72.09887
543.41        72.15947
543.85        72.34642
544.29        72.62802
544.72        72.87273
545.16        72.90051
545.60        72.67257
546.04        72.26608
546.47        71.86461
546.91        71.73184
547.35        71.94288
547.79        72.51986
548.22        73.17716
548.66        73.40249
549.10        73.08704
549.53        72.35788
549.97        71.55494
550.41        71.17864
550.84        71.34177
551.28        71.85583
551.72        72.48804
552.15        72.86404
552.59        72.86911
553.03        72.64362
553.46        72.33121
553.90        72.16389
554.34        72.18987
554.77        72.46258
555.21        72.50011
555.65        72.70102
556.08        72.95286
556.52        72.36691
556.96        72.66634
557.39        72.51936
557.83        72.47559
558.27        72.45415
558.70        72.49752
559.14        72.66089
559.57        72.90522
560.01        73.20712
560.45        73.46446
560.88        73.56527
561.32        73.48894
561.75        73.15585
562.19        72.72959
562.63        72.37455
563.06        72.18378
563.50        72.30796
563.93        72.62639
564.37        72.80084
564.80        72.76382
565.24        72.72944
565.68        72.70087
566.11        72.65578
566.55         72.6609
566.98        72.58466
567.42        72.47764
567.85        72.75532
568.29        73.36374
568.72        73.34109
569.16        72.86267
569.60        73.61301
570.03        73.89048
570.47        73.87328
570.90        73.46609
571.34        71.89262
571.77        72.88861
572.21        73.01556
572.64        72.44374
573.08        71.75535
573.51        68.56311
573.95        71.26376
574.38        75.74703
574.82        73.53974
575.25        73.04007
575.69         70.8924
576.12        69.87144
576.56        68.81198
576.99        70.23209
577.42        74.09373
577.86          73.662
578.29        73.03099
578.73        76.96596
579.16        70.76391
579.60        64.71622
580.03        67.62859
580.47        72.09206
580.90        73.70957
581.33        72.63647
581.77        71.72461
582.20        78.68051
582.64         78.7524
583.07        66.93313
583.51        65.61678
583.94        64.37548
584.37         67.5308
584.81        70.80877
585.24        74.49345
585.68        75.97546
586.11        75.17901
586.54        69.79017
586.98        67.67461
587.41        68.16151
587.85        71.99197
588.28         74.3535
588.71        71.03211
589.15        68.51707
589.58        70.11565
590.01        70.51305
590.45        71.46671
590.88        72.64182
591.31        71.78711
591.75        70.95007
592.18        70.96931
592.61        72.88228
593.05        72.98352
593.48        75.84598
593.91        76.93742
594.35        70.97281
594.78        69.45375
595.21        69.27843
595.65        72.09439
596.08        74.48319
596.51        71.67901
596.94        70.02097
597.38        70.85109
597.81        73.47575
598.24        75.22902
598.68        73.80898
599.11        72.53175
599.54        75.38374
599.97        77.37013
600.41        71.63879
600.84        71.82285
601.27        73.38283
601.70        72.34869
602.14        72.32571
602.57        71.23666
603.00        71.78293
603.43        73.40122
603.87         75.1344
604.30        74.74401
604.73        72.60905
605.16        71.24408
605.60        72.01803
606.03         73.0866
606.46        74.07308
606.89        73.99836
607.32        71.48802
607.76        71.64281
608.19         73.9227
608.62        73.07752
609.05        71.84985
609.48        72.41819
609.92        72.40939
610.35        71.73138
610.78         74.0769
611.21        74.87557
611.64        71.50104
612.07        72.31172
612.50        72.78907
612.94        73.29605
613.37        72.72835
613.80        72.76578
614.23        73.26542
614.66         73.1708
615.09        73.50112
615.52        73.58401
615.96        73.49279
616.39        73.90766
616.82        72.84244
617.25        72.40868
617.68        73.29861
618.11        73.77747
618.54        73.96386
618.97        73.46983
619.40        72.70144
619.84        72.45816
620.27        73.45677
620.70        74.10055
621.13        74.40512
621.56        73.79772
621.99        72.60574
622.42        73.36239
622.85        75.58749
623.28        74.75363
623.71        74.31664
624.14        74.08825
624.57        74.03554
625.00        73.63902
625.43        74.08427
625.86        73.57247
626.29        73.84943
626.72        74.41424
627.15        74.17328
627.58         74.1601
628.01        73.90447
628.44          74.521
628.87        74.32392
629.30        74.70963
629.73        75.00912
630.16        75.37727
630.59         74.9106
631.02        74.48193
631.45        74.00972
631.88        73.68069
632.31        73.55563
632.74        73.62342
633.17        73.76221
633.60        73.86292
634.03        73.86709
634.46        73.82502
634.89        73.77074
635.32         73.7575
635.75        73.80029
636.18        73.86282
636.61        73.93215
637.04        74.00073
637.47        74.05835
637.89        74.11974
638.32        74.14086
638.75        74.09943
639.18        73.99435
639.61        73.84198
640.04        73.67229
640.47        73.53259
640.90        73.44167
641.33          73.384
641.76         73.3345
642.18        73.35439
642.61        73.43628
643.04        73.40207
643.47        73.19868
643.90        73.69267
644.33        73.36015
644.76        73.42936
645.18          73.451
645.61        73.45226
646.04        73.41831
646.47        73.33859
646.90        73.27853
647.33        73.28696
647.75        73.39699
648.18        73.64341
648.61        73.85643
649.04        73.78116
649.47        73.38937
649.89        72.61193
650.32        71.86801
650.75        71.94026
651.18        72.76937
651.61        73.72765
652.03        74.36472
652.46        74.18455
652.89        73.60618
653.32        72.91716
653.74        72.52345
654.17        73.82978
654.60        74.28996
655.03        72.05653
655.46        72.90196
655.88        77.03356
656.31        81.93455
656.74        185.0981
657.16        120.0529
657.59        42.29546
658.02        31.95116
658.45        55.35251
658.87        70.73761
659.30        74.13483
659.73        73.57124
660.15         71.4485
660.58        73.43396
661.01        75.12365
661.44        72.78214
661.86        72.15578
662.29        72.33898
662.72        73.17081
663.14        74.38654
663.57        74.26992
664.00        73.10964
664.42        72.84016
664.85        73.54095
665.27        73.93781
665.70        73.83892
666.13        73.67442
666.55        73.43155
666.98        72.97818
667.41        72.48734
667.83        72.30465
668.26        72.49664
668.69        72.91745
669.11        73.33635
669.54         73.7466
669.96        73.39084
670.39        72.93375
670.82        72.38062
671.24        72.14143
671.67        72.32375
672.09        72.68257
672.52        72.99577
672.94        73.62572
673.37        73.19448
673.80        73.17054
674.22        73.19136
674.65        73.15891
675.07        73.05384
675.50        72.78021
675.92          72.462
676.35        72.39045
676.77        72.60065
677.20        72.93774
677.62         73.2914
678.05         73.4544
678.47        73.35271
678.90        73.18952
679.32        72.92308
679.75        72.65684
680.17        72.65504
680.60        73.00325
681.02        73.04275
681.45        73.06834
681.87        72.86581
682.30         72.5298
682.72        72.20644
683.15        72.10831
683.57        72.32444
684.00        72.77866
684.42        73.42178
684.85        73.71578
685.27        73.61184
685.70        73.29929
686.12        72.91595
686.54        72.66139
686.97        72.61224
687.39        72.79153
687.82        73.07434
688.24        73.25625
688.66        73.27061
689.09        73.12385
689.51        73.07822
689.94        73.08115
690.36        73.21888
690.78        73.43939
691.21         73.6696
691.63        73.80099
692.06         73.8073
692.48        73.73757
692.90        73.64776
693.33        73.60814
693.75        73.64107
694.17        73.72767
694.60        73.84946
695.02        73.94937
695.44        73.97163
695.87        74.13606
696.29        74.42213
696.71        74.15065
697.14        73.54963
697.56        74.03817
697.98        75.32803
698.41        75.17506
698.83        74.34705
699.25        73.83417
699.68         73.9351
700.10        73.88061
700.52        73.68946
700.94        73.77869
701.37        74.08724
701.79        74.40239
702.21        74.64001
702.64        74.86242
703.06        74.99998
703.48        74.93629
703.90        74.67693
704.33        74.25509
704.75        73.79115
705.17        73.57371
705.59        73.67689
706.01        73.90649
706.44        74.12299
706.86        74.73929
707.28        74.69933
707.70        74.81501
708.12        74.81982
708.55        74.76884
708.97        74.65945
709.39        74.49088
709.81        74.32024
710.23        74.23557
710.66        74.26363
711.08        74.41594
711.50        74.60098
711.92         74.6842
712.34        74.63338
712.76        74.47089
713.19         74.2984
713.61        74.31289
714.03        74.53501
714.45        74.90488
714.87        75.25468
715.29        75.32047
715.71          75.055
716.13         74.5504
716.56        73.99527
716.98        73.72373
717.40        73.81326
717.82        74.16625
718.24        74.62203
718.66        74.90482
719.08        74.93085
719.50        74.78193
719.92          74.549
720.34        74.39826
720.76        74.38277
721.19         74.3246
721.61        74.42673
722.03        74.50053
722.45        74.59142
722.87        74.70761
723.29        74.83617
723.71        74.94083
724.13        75.00922
724.55        75.04467
724.97        75.05235
725.39        75.05043
725.81        75.04419
726.23         75.0256
726.65        75.00594
727.07        74.99953
727.49         75.0145
727.91        75.06535
728.33        75.12404
728.75        75.14053
729.17        75.10712
729.59        75.02753
730.01        74.98143
730.43        75.10352
730.85        75.41631
731.27        75.87157
731.69         76.3036
732.10        76.58768
732.52        76.40046
732.94        76.07729
733.36        75.75415
733.78        75.64046
734.20        75.79082
734.62        76.46566
735.04        77.39049
735.46        77.31845
735.88        76.50421
736.30        76.76517
736.72        78.02008
737.13          78.444
737.55        77.79556
737.97        77.50735
738.39        77.68209
738.81        77.04504
739.23         76.0209
739.65        76.97948
740.06        79.36501
740.48        79.68136
740.90        78.01276
741.32        77.23111
741.74         77.6133
742.16        77.76214
742.57        77.74303
742.99        78.36237
743.41        79.38918
743.83        79.97792
744.25        79.98835
744.67        79.65054
745.08         79.2191
745.50        79.09673
745.92        79.40303
746.34        79.98627
746.75         80.6547
747.17        81.06666
747.59        81.14497
748.01        81.06451
748.42        80.99433
748.84        81.00559
749.26        81.24956
749.68        82.01299
750.09        83.05327
750.51        83.62308
750.93         83.6204
751.35        83.30771
751.76        82.87942
752.18        82.73896
752.60         82.8483
753.01        82.83755
753.43        82.76149
753.85        82.80516
754.27        82.92094
754.68        84.22546
755.10        84.27644
755.52        84.83948
755.93        85.14928
756.35        85.20991
756.77        85.16101
757.18        85.15645
757.60        85.25542
758.02        85.80424
758.43        86.41062
758.85           85.86
759.26        83.84357
759.68        83.74467
760.10        85.20186
760.51        85.82547
760.93         85.2989
761.34        84.23827
761.76        84.00755
762.18        83.27406
762.59        82.67245
763.01        82.93446
763.42        84.06127
763.84        84.87742
764.26        85.22672
764.67        85.73113
765.09        86.19302
765.50         85.9717
765.92        85.13689
766.33         83.8157
766.75        82.49792
767.16        82.10324
767.58        82.76671
768.00        84.10938
768.41        85.79154
768.83        87.21947
769.24        87.78855
769.66        86.95579
770.07        85.30469
770.49        83.71455
770.90        82.65626
771.32        83.71159
771.73        86.12705
772.15        85.65726
772.56        82.77974
772.97        82.16602
773.39        83.75629
773.80        84.29906
774.22        83.57448
774.63        83.49718
775.05         84.0299
775.46        84.35389
775.88        84.36391
776.29        84.26122
776.70        84.11416
777.12        84.09454
777.53        84.25347
777.95         84.4691
778.36        84.63551
778.77        84.57042
779.19        84.27963
779.60        83.82478
780.02        83.38096
780.43        83.29848
780.84         83.7181
781.26        84.05585
781.67        84.24599
782.09        85.27846
782.50        86.74701
782.91        85.27942
783.33        83.60658
783.74        82.87383
784.15        83.83363
784.57        84.51704
784.98        84.63155
785.39        84.65851
785.81        84.50073
786.22        83.87659
786.63        83.16135
787.04        83.07701
787.46        83.70259
787.87        84.81083
788.28        85.99333
788.70        86.55537
789.11        86.32727
789.52        85.54752
789.93        84.60287
790.35        84.03637
790.76        84.00399
791.17        84.40083
791.58        84.98469
792.00        85.30549
792.41        85.22736
792.82        84.86841
793.23        84.53162
793.65        84.35941
794.06        84.51996
794.47        85.73042
794.88        87.19782
795.29        86.58582
795.71        84.16273
796.12        81.85547
796.53        80.40352
796.94        80.06982
797.35        80.92599
797.76        82.43277
798.18        83.90855
798.59        84.88451
799.00         84.9823
799.41        83.99357
799.82         82.4745
800.23        81.63096
800.64        81.71615
801.06        82.28214
801.47        83.11575
801.88        83.74766
802.29        83.99545
802.70        84.05324
803.11         83.9818
803.52        83.84104
803.93        83.69249
804.34        83.46734
804.75         83.2757
805.17        83.38354
805.58        83.86261
805.99        84.42096
806.40         84.8444
806.81        85.31165
807.22        85.46711
807.63        84.18893
808.04        82.06743
808.45        81.07786
808.86        81.43892
809.27        82.23326
809.68        83.05597
810.09        83.52507
810.50        83.42604
810.91        82.90285
811.32        82.22491
811.73        81.82117
812.14        81.81205
812.55        82.02139
812.96        82.37261
813.37        82.72933
813.78        83.00934
814.19        83.30855
814.60        83.46788
815.01        83.22523
815.42        82.57357
815.83        81.55307
816.24        80.56186
816.65        80.30637
817.05        80.98754
817.46         82.3635
817.87        83.88909
818.28         84.5727
818.69        84.14175
819.10        82.83761
819.51        81.27316
819.92        80.49521
820.33        80.78384
820.74        81.82999
821.14        83.06849
821.55        83.47827
821.96        82.85326
822.37        81.56252
822.78        80.14013
823.19        79.36308
823.60        79.43599
824.00        80.15724
824.41        81.13913
824.82        81.84618
825.23        82.03579
825.64        81.89173
826.04        81.57258
826.45        81.30675
826.86        81.17049
827.27        81.05389
827.68        80.94832
828.08         80.8998
828.49        80.84386
828.90        80.85595
829.31        80.87678
829.72        80.77127
830.12        80.54542
830.53        80.22176
830.94        79.95679
831.35        79.95415
831.75        80.29034
832.16        80.83655
832.57        81.48831
832.97        81.99944
833.38        82.20264
833.79        82.15761
834.20        81.97586
834.60        81.82967
835.01        81.79544
835.42           81.82
835.82        81.80265
836.23        81.49519
836.64        80.91605
837.04        80.19048
837.45        79.54166
837.86        79.31947
838.26        79.60236
838.67        80.22598
839.08        81.01714
839.48        81.64657
839.89        81.94012
840.29        82.00084
840.70        81.82363
841.11        81.39035
841.51        80.76387
841.92        79.94217
842.33        79.16338
842.73        78.83622
843.14        79.01252
843.54        79.62774
843.95        80.37557
844.35        80.79004
844.76        80.71795
845.17        80.30408
845.57        79.74701
845.98        79.37094
846.38        79.26793
846.79         79.3062
847.19        79.42679
847.60        79.44381
848.00        79.34238
848.41        79.17072
848.81        78.99863
849.22        78.83635
849.62         78.7488
850.03        78.72894
850.43        78.81042
850.84         78.9644
851.24        79.22285
851.65        79.40318
852.05        79.68356
852.46        80.17095
852.86        80.86099
853.27        81.74535
853.67        82.27603
854.07        81.74155
854.48        80.17193
854.88        77.82102
855.29        75.58526
855.69        74.76794
856.10        75.61653
856.50        77.95911
856.90        80.96901
857.31        82.72591
857.71        82.61264
858.12         81.1273
858.52         79.1545
858.92        77.86306
859.33        77.51456
859.73        77.78239
860.13         78.4836
860.54        79.24063
860.94         79.9316
861.34        80.64971
861.75        81.28078
862.15        81.71694
862.55        81.89337
862.96        81.77134
863.36        81.48915
863.76        81.28201
864.17        81.24017
864.57        81.38486
864.97         81.6451
865.38        81.88727
865.78        82.12009
866.18        82.29581
866.58        82.52389
866.99        82.96722
867.39        83.70219
867.79        84.70669
868.19        85.58057
868.60        85.59421
869.00        84.60983
869.40        82.82893
869.80        81.13647
870.21        80.91615
870.61        82.54755
871.01        85.62463
871.41        89.06074
871.81        90.98705
872.22        90.89718
872.62        89.35429
873.02         87.3968
873.42        86.76186
873.82           87.72
874.22        89.55022
874.63        91.67628
875.03        92.81226
875.43        92.33299
875.83        91.26278
876.23        89.43422
876.63        88.82008
877.03        89.62347
877.44        92.06009
877.84        101.1586
878.24        98.99507
878.64        98.01972
879.04        95.93369
879.44        91.96786
879.84        89.85007
880.24        92.75231
880.64        94.81936
881.04        96.55965
881.44         97.7444
881.84        97.47891
882.24         96.1322
882.65        94.68977
883.05         94.2567
883.45        95.04733
883.85        96.85443
884.25         98.9667
884.65        100.0127
885.05        99.58543
885.45          98.204
885.85        96.65068
886.25        95.96815
886.65        96.38121
887.05        97.54218
887.45        99.02048
887.85        100.0495
888.25        100.3335
888.65        100.1283
889.04        99.64189
889.44        99.24169
889.84        99.03232
890.24        98.85368
890.64        98.70303
891.04        98.60971
891.44        98.55101
891.84        98.57026
892.24        98.54673
892.64        98.23067
893.04        97.64661
893.44        96.96229
893.83        96.39691
894.23        96.27961
894.63         96.6496
895.03        97.34666
895.43        98.35187
895.83        99.59722
896.23        100.9365
896.63        102.3458
897.02        103.3778
897.42        103.3388
897.82         102.182
898.22        100.1725
898.62        98.05456
899.01        96.91872
899.41        97.02453
899.81        98.02082
900.21        99.38228
900.61        100.2315
901.00        100.2967
901.40        99.86104
901.80        99.20648
902.20        98.77119
902.59        98.68896
902.99        98.77602
903.39        98.89971
903.79         98.8592
904.18        98.60644
904.58        98.30493
904.98        98.04696
905.38        97.95353
905.77        98.03757
906.17        98.21713
906.57        98.49954
906.96        98.95615
907.36        99.50237
907.76        100.1349
908.15        100.6358
908.55        100.5318
908.95        99.80803
909.34        98.57126
909.74        97.30408
910.14        96.60139
910.53        96.64358
910.93        97.31451
911.33        98.31313
911.72         99.0825
912.12         99.3597
912.52        99.27696
912.91        99.10178
913.31        99.19165
913.70        99.66149
914.10        100.4059
914.49        101.1187
914.89        100.9723
915.29        99.79422
915.68        97.89003
916.08         96.1966
916.47         95.5076
916.87         95.9006
917.26        97.11372
917.66        98.41239
918.05        98.63857
918.45        97.53516
918.84        95.55325
919.24        93.54656
919.64         92.7431
920.03        93.45935
920.42        95.30275
920.82        97.64859
921.21        99.52382
921.61        100.3623
922.00        100.4591
922.40        99.99271
922.79        99.20673
923.19        98.28105
923.58        97.12994
923.98        95.83104
924.37        94.75328
924.77        94.26922
925.16        93.14419
925.55        93.81783
925.95        94.72194
926.34        96.48625
926.74        98.68676
927.13        100.7815
927.52        101.6529
927.92        101.1731
928.31         99.6909
928.70        97.66325
929.10        95.89446
929.49        94.63981
929.89        93.72735
930.28        93.38696
930.67          93.996
931.07        95.39388
931.46        97.51016
931.85        99.51124
932.24        100.1362
932.64         99.1553
933.03          96.808
933.42        93.68185
933.82        91.21861
934.21        89.94832
934.60        89.58224
934.99        89.73502
935.39        89.99026
935.78        90.27398
936.17        90.55525
936.56        90.56755
936.96        91.46522
937.35        90.38602
937.74        89.65313
938.13        89.11825
938.53        89.57502
938.92        91.05752
939.31        93.50879
939.70        96.23063
940.09        97.27614
940.49         95.9923
940.88        93.19305
941.27        90.23867
941.66        88.72196
942.05        88.84913
942.44        90.08794
942.84          91.869
943.23        93.28309
943.62        93.86922
944.01        93.90927
944.40        93.54868
944.79        92.98895
945.18         92.3098
945.57        91.34492
945.97        90.16736
946.36        89.15045
946.75        88.57371
947.14        88.47755
947.53        88.68073
947.92        88.91544
948.31        89.13919
948.70        89.42088
949.09        89.83347
949.48         90.4758
949.87        91.29298
950.26        92.12303
950.65         92.8158
951.04        93.22999
951.43        93.31782
951.82        93.09772
952.21        92.54204
952.60        91.65751
952.99        90.52039
953.38        89.18996
953.77        87.88612
954.16        86.88167
954.55         86.2516
954.94        86.02702
955.33        85.96925
955.72        85.64443
956.11        84.98038
956.50        84.06619
956.89        83.40955
957.28        83.92024
957.66        85.82495
958.05        88.55198
958.44        91.26125
958.83        92.73133
959.22         92.6687
959.61        91.37299
960.00        89.44107
960.39        87.87165
960.78        87.00149
961.16        86.63203
961.55        86.37775
961.94        85.59486
962.33        84.20556
962.72        82.58688
963.11        81.22213
963.49        80.68067
963.88        81.03831
964.27        82.12948
964.66        83.59362
965.04         84.6588
965.43        84.86522
965.82        84.44698
966.21        83.80979
966.60        83.52145
966.98        83.72453
967.37        84.20832
967.76         84.7121
968.15        84.75661
968.53        84.21931
968.92        83.25843
969.31        82.26299
969.69        81.69417
970.08        81.64382
970.47        82.02271
970.86        82.44342
971.24        82.23046
971.63        81.20592
972.02        79.54224
972.40        77.91944
972.79        77.53043
973.17        78.82605
973.56        81.39453
973.95         84.3653
974.33        86.02468
974.72        85.74133
975.11        84.03439
975.49        81.91361
975.88        80.77717
976.26        80.86209
976.65        81.86073
977.04        83.00704
977.42        82.54826
977.81        80.02121
978.19        76.27744
978.58        73.20375
978.96        72.65921
979.35        74.87309
979.74        79.41201
980.12        85.28423
980.51        88.99744
980.89         89.3822
981.28        87.38992
981.66        84.37562
982.05        82.09073
982.43        80.93987
982.82        80.33142
983.20        80.40512
983.59        81.50968
983.97        83.69473
984.35        87.08677
984.74        90.68697
985.12         92.3682
985.51        90.90263
985.89        86.67937
986.28        81.11257
986.66        76.67958
987.04        74.49456
987.43        74.00733
987.81        74.34681
988.20        74.36619
988.58        73.67863
988.96        72.36247
989.35        70.82246
989.73        70.86124
990.12        73.28944
990.50        77.09454
990.88        79.98212
991.27        80.47176
991.65         79.0058
992.03        76.08862
992.42        73.03936
992.80         72.0007
993.18        73.57887
993.56        76.39912
993.95        79.37347
994.33         81.7886
994.71        83.31416
995.10        84.46272
995.48        84.85359
995.86         83.6652
996.24        80.76753
996.63        76.01572
997.01        70.59219
997.39        68.11478
997.77        70.22246
998.15         76.1314
998.54        82.80206
998.92        86.11243
999.30        84.79742
999.68        79.94699
1000.06         73.0844
1000.45        67.97655
1000.83        66.20867
1001.21        66.52869
1001.59        68.12839
1001.97        70.25754
1002.35         72.6228
1002.73        75.90814
1003.12        79.01019
1003.50        78.62189
1003.88        73.60913
1004.26        65.92391
1004.64        58.72391
1005.02        54.31992
1005.40        52.61537
1005.78        53.08691
1006.16        56.68742
1006.54        63.32188
1006.92        69.41505
1007.30        73.17618
1007.69          74.891
1008.07        75.76122
1008.45        76.28088
1008.83        76.28726
1009.21        73.54752
1009.59        56.89326
1009.97       -2.572289
1010.35       -102.3583
1010.73       -99.02752
1011.11       -38.39549
1011.49        9.613343
1011.86        44.24583
1012.24        63.94493
1012.62        71.62856
1013.00        71.72621
1013.38        66.26001
1013.76        57.69939
1014.14        55.61296
1014.52        68.51411
1014.90        98.68352
1015.28        137.9739
1015.66        159.9981
1016.04        148.4584
1016.41        108.7341
1016.79        63.69342
1017.17        38.50292
1017.55        33.14541
1017.93        35.86655
1018.31        40.86106
1018.69        45.46879
1019.06        49.65956
1019.44        54.44162
1019.82        61.27459
1020.20        70.61865
1020.58        82.16228
1020.95        96.11743
1021.33        104.0947
1021.71        207.7345
1022.09        137.6231
1022.46        139.5294
1022.84        144.2769
1023.22         154.119
1023.60        180.2269
1023.97        436.4809
1024.35        5.249177
1024.73        58.16192
