SpectraSmart Spectrum 2.9.0.0
--------- Device Information -----------
Spectrum Name :  反射率_0
Saving Time :  2024/04/26 01:30:13
Spectro-Module Model Name : SE2030-DUVN
Spectro-Module Serial Number : OS361AC55029948
Wavelength Start : 200
Wavelength End : 1025
Wavelength Unit : Wavelength(nm)
Spectrum Unit : Reflectance(%)
-----------Spectrum Setting ------------
Integration Time : 20ms
Average : 10
Boxcar : 0
Background removal :  enabled
linearity correction :  enabled
SC :  disabled
Intensity correction :  disabled
DWT denoise :  enabled
savitzky-golay :  disabled
FFT :  disabled
Running average :  disabled
Kalman :  disabled
High pass :  disabled
---------------BEGIN--------------------
Wavelength(nm)             Reflectance(%)
200.29               0
200.75        96.37291
201.21        86.90127
201.67        76.43064
202.13        70.59494
202.58        70.02887
203.04        73.43732
203.50        78.64397
203.96        81.77847
204.42        81.75658
204.88        79.99685
205.34        78.16117
205.80        77.99451
206.26        80.18904
206.72        85.83359
207.18        96.56005
207.64         103.679
208.10        93.25423
208.55        77.98203
209.01        69.27528
209.47        66.78093
209.93        67.81042
210.39        71.27322
210.85        75.37562
211.31        76.23295
211.77        72.72924
212.23        66.47151
212.69        60.42646
213.14        59.27109
213.60         63.5994
214.06        71.91302
214.52         81.5361
214.98        88.41149
215.44        91.12259
215.90        90.78761
216.36        88.32971
216.81        84.90993
217.27        81.60214
217.73        78.28364
218.19        74.68104
218.65        70.13615
219.11        63.99281
219.57        55.34447
220.02        44.98035
220.48        38.84002
220.94        40.24443
221.40        48.04783
221.86        55.87234
222.32        56.96622
222.77        51.91634
223.23          44.229
223.69        37.76567
224.15        36.55896
224.61        40.09467
225.06         46.3922
225.52        52.30362
225.98        53.88319
226.44         50.5749
226.90         44.2118
227.36        37.32677
227.81        33.29847
228.27        33.12442
228.73        35.45692
229.19         38.9241
229.65        41.48193
230.10        42.54539
230.56        42.82371
231.02        42.85072
231.48        43.19675
231.93        43.93393
232.39        44.77857
232.85        45.51239
233.31        45.91197
233.77         45.8963
234.22        45.55875
234.68        45.01554
235.14        44.41197
235.60        43.88965
236.05        43.52219
236.51        43.27705
236.97        43.02056
237.43         42.7732
237.88        42.65736
238.34        43.00565
238.80        44.62714
239.26        47.70618
239.71        51.95728
240.17        56.36913
240.63        59.75615
241.08        61.75702
241.54         62.4995
242.00        62.48111
242.46        62.50414
242.91        63.15702
243.37        64.59613
243.83          70.732
244.28        100.6756
244.74        153.2461
245.20        148.0697
245.66        132.3992
246.11        129.1525
246.57        135.8489
247.03        158.7583
247.48        224.4831
247.94        189.1603
248.40        118.7487
248.85        97.41575
249.31        91.39992
249.77         91.0356
250.22        93.87381
250.68        99.93145
251.14        109.0225
251.59        115.2319
252.05        112.5307
252.51         103.615
252.96        93.52541
253.42         87.3451
253.88        84.72347
254.33        83.99661
254.79        85.27597
255.25        88.10818
255.70         91.5198
256.16        95.30593
256.62        97.93858
257.07        97.86525
257.53        95.74875
257.99        91.90046
258.44         87.4281
258.90        84.70111
259.35        82.98485
259.81        81.80404
260.27        79.85458
260.72        75.83494
261.18        70.51206
261.63         64.4278
262.09        58.94636
262.55        54.94273
263.00        52.37984
263.46         50.9111
263.91        49.78181
264.37        48.49157
264.83        46.80162
265.28        44.76382
265.74        42.79422
266.19        41.26635
266.65        40.40131
267.11        39.96989
267.56        39.55858
268.02        38.66362
268.47        37.16655
268.93        35.23088
269.38        33.20596
269.84         31.9328
270.30        31.61485
270.75        32.01124
271.21        32.58136
271.66        32.50994
272.12        31.61065
272.57        30.15372
273.03        28.61976
273.48        27.64775
273.94        27.41084
274.39        27.64224
274.85        28.00679
275.31        28.01332
275.76        27.53662
276.22        26.77159
276.67        25.93884
277.13        25.43815
277.58        25.29195
278.04        25.38589
278.49        25.45457
278.95         25.1959
279.40        24.54525
279.86        23.68349
280.31        22.80289
280.77        22.29459
281.22        22.17843
281.68        22.32636
282.13        22.54037
282.59        22.57613
283.04        22.37409
283.50        22.06761
283.95        21.69731
284.41         21.3391
284.86        21.03113
285.32        20.75452
285.77        20.60316
286.22        20.78146
286.68        21.26744
287.13        21.96057
287.59        22.61658
288.04        22.86125
288.50        22.65338
288.95        22.09936
289.41        21.44355
289.86        20.95404
290.32        20.76495
290.77        20.78601
291.22        20.97282
291.68        21.21576
292.13        21.49132
292.59        21.85283
293.04        22.34254
293.50        23.01416
293.95        23.85833
294.40        24.81846
294.86        25.82673
295.31        26.79958
295.77        27.72556
296.22        28.63678
296.68        29.56444
297.13        30.52503
297.58        31.54408
298.04        32.62498
298.49        33.80149
298.95          35.179
299.40        36.75223
299.85        38.47706
300.31        40.24797
300.76        41.89394
301.21        43.34149
301.67        44.66494
302.12        45.85692
302.58        47.00548
303.03        48.12955
303.48        49.24397
303.94        50.47184
304.39        51.94204
304.84        53.67285
305.30        55.60619
305.75        57.53534
306.20         59.1642
306.66        60.44144
307.11         61.4059
307.57        62.24547
308.02        63.13386
308.47        64.18093
308.93        65.34363
309.38          66.542
309.83         67.7013
310.29        68.78075
310.74        69.77151
311.19        70.72292
311.65        71.70399
312.10        72.71316
312.55        73.74086
313.00        74.64908
313.46        75.22512
313.91        75.42796
314.36        75.34742
314.82        75.24933
315.27        75.49544
315.72        76.19135
316.18        77.22958
316.63        78.37828
317.08         79.2088
317.53        79.59551
317.99        79.64584
318.44        79.59521
318.89        79.83064
319.35        80.42725
319.80        81.28909
320.25        82.14053
320.70        82.53193
321.16        82.36657
321.61        81.80285
322.06        81.15431
322.51        80.90556
322.97        81.15225
323.42        81.77798
323.87        82.52178
324.32        82.93747
324.78         82.8891
325.23        82.55685
325.68        82.12383
326.13         81.9102
326.59        81.99618
327.04        82.30218
327.49        82.73631
327.94        83.17933
328.39        83.57167
328.85        83.93584
329.30        84.29214
329.75        84.51963
330.20        84.62157
330.66        84.61224
331.11        84.64365
331.56        84.89684
332.01        85.42953
332.46        86.17474
332.92        87.03466
333.37        87.98742
333.82        88.89613
334.27        89.76834
334.72        90.46458
335.17        90.77074
335.63        90.66679
336.08        90.26206
336.53        89.79347
336.98         89.6863
337.43         90.0571
337.88        90.79797
338.34         91.7375
338.79        92.66499
339.24        93.44698
339.69        94.16243
340.14        94.76791
340.59        95.18589
341.05        95.42056
341.50        95.45808
341.95        95.45445
342.40        95.68401
342.85        96.20304
343.30        96.94715
343.75        97.73747
344.20         98.2453
344.66        98.38907
345.11        98.25242
345.56        97.99479
346.01         97.8561
346.46        97.91167
346.91        98.09669
347.36        98.33673
347.81        98.51849
348.26        98.61853
348.72        98.70244
349.17        98.80305
349.62        99.01832
350.07        99.35235
350.52        99.73886
350.97         100.111
351.42         100.382
351.87        100.5237
352.32        100.5684
352.77        100.5068
353.22        100.3278
353.67        100.0504
354.13          99.696
354.58        99.32815
355.03        99.10284
355.48        99.04324
355.93        99.11019
356.38        99.18061
356.83        99.05218
357.28        98.67764
357.73        98.11592
358.18        97.47883
358.63        96.94704
359.08        96.56693
359.53        96.28129
359.98        96.00321
360.43        95.59855
360.88        95.03024
361.33        94.34046
361.78        93.60239
362.23        92.93204
362.68        92.36709
363.13        91.88271
363.58        91.40908
364.03        90.83276
364.48        90.13538
364.93        89.36158
365.38         88.6057
365.83        88.01633
366.28        87.61853
366.73        87.34551
367.18        87.10624
367.63        86.75944
368.08        86.26516
368.53        85.68055
368.98        85.03032
369.43        84.34234
369.88        83.64172
370.33         82.9241
370.78        82.25034
371.23        81.72747
371.68        81.37809
372.13        81.17475
372.58        81.05466
373.03        80.90021
373.48        80.67421
373.93        80.41336
374.38        80.12428
374.83        79.81912
375.28        79.50346
375.72        79.14351
376.17        78.79731
376.62         78.5425
377.07        78.37804
377.52        78.26559
377.97        78.10677
378.42        77.74393
378.87        77.16316
379.32        76.45189
379.77        75.69377
380.22        74.99841
380.67        74.39462
381.11        73.84032
381.56        73.36532
382.01        73.02548
382.46        72.82555
382.91        72.77329
383.36        72.73125
383.81        72.47575
384.26        71.97527
384.71        71.28555
385.15         70.6035
385.60        70.29512
386.05        70.36835
386.50        70.69521
386.95        71.01714
387.40        70.90244
387.85        70.29496
388.29        69.37348
388.74        68.46523
389.19         67.7597
389.64        67.30109
390.09        66.97437
390.54        66.81638
390.98        66.89487
391.43        67.17406
391.88        67.60123
392.33        67.93831
392.78        67.79865
393.23        67.17057
393.67        66.26656
394.12         65.4207
394.57        64.72345
395.02        64.33286
395.47        64.52707
395.91        65.19582
396.36        65.67239
396.81        65.83428
397.26        65.95992
397.71        66.01139
398.15        65.75559
398.60         65.2873
399.05        64.71876
399.50        64.15137
399.95        63.45463
400.39        62.99211
400.84        62.75675
401.29          62.773
401.74        62.74734
402.18        62.65713
402.63        62.60079
403.08        62.65826
403.53        62.87351
403.97        63.23275
404.42        63.67975
404.87        64.02849
405.32        63.95566
405.76        63.40638
406.21        62.61308
406.66        61.79751
407.11        61.16161
407.55        60.86707
408.00        61.06575
408.45        61.61218
408.90        62.00219
409.34        62.03998
409.79        61.75562
410.24        61.32328
410.68         61.1281
411.13        61.24049
411.58        61.42727
412.03        61.64919
412.47        61.94362
412.92        62.23139
413.37        62.52441
413.81        62.74389
414.26        62.80931
414.71         62.6973
415.15        62.42632
415.60        62.10123
416.05        61.91317
416.49        61.91735
416.94          62.085
417.39        62.28566
417.83        62.27643
418.28        62.02578
418.73        61.62422
419.17        61.26685
419.62        61.26891
420.07        61.64808
420.51        62.28259
420.96        62.96192
421.41        63.26188
421.85        63.05609
422.30        62.77257
422.74        62.45676
423.19        61.82023
423.64         61.1071
424.08        61.34339
424.53        62.36915
424.98        62.91843
425.42        62.84391
425.87        63.03641
426.31        63.48748
426.76        63.37588
427.21        62.95348
427.65        63.36506
428.10        64.48047
428.54        65.36346
428.99        65.93174
429.44        66.17177
429.88        66.15536
430.33        66.94991
430.77        67.92381
431.22        66.82795
431.66        64.23684
432.11        62.89566
432.56        63.12142
433.00         63.9227
433.45        65.17171
433.89        67.13806
434.34          68.366
434.78        69.78816
435.23        65.93665
435.67        64.04133
436.12        65.75208
436.57        67.24873
437.01        68.11951
437.46        68.79364
437.90        69.25319
438.35        67.85098
438.79        68.98798
439.24        68.75396
439.68        68.49505
440.13        68.11669
440.57        67.96493
441.02        68.86706
441.46        70.42449
441.91        71.46295
442.35        71.64525
442.80        70.90993
443.24        69.70928
443.69        70.20297
444.13        72.03299
444.58        72.00243
445.02        70.34804
445.47        70.14409
445.91        71.31428
446.36        71.75032
446.80        71.36935
447.24        71.31219
447.69        71.60613
448.13        71.72408
448.58        71.72546
449.02        71.93926
449.47        72.31327
449.91        72.54005
450.36        72.59747
450.80        72.63485
451.25        72.65764
451.69        72.57181
452.13        72.40733
452.58        72.20412
453.02        72.03238
453.47        72.04078
453.91        72.22962
454.36        72.55303
454.80         72.9195
455.24        73.04393
455.69        72.87535
456.13        72.71033
456.58         72.6606
457.02        72.02972
457.46        71.62882
457.91        71.93558
458.35        72.71254
458.79        73.00209
459.24        72.70666
459.68        72.32514
460.13        71.99187
460.57        71.77839
461.01        71.47771
461.46        71.34159
461.90        71.24683
462.34        71.25391
462.79        71.35452
463.23         71.2733
463.68        71.41595
464.12        71.70608
464.56        72.12778
465.01        72.19703
465.45        71.86935
465.89         71.6873
466.34        71.51968
466.78        70.72495
467.22        69.82346
467.67        68.64226
468.11        70.06325
468.55        70.60178
468.99         70.7962
469.44        70.48222
469.88        69.87583
470.32        69.88923
470.77        70.40828
471.21        70.45892
471.65        69.98097
472.10        69.65948
472.54        69.60483
472.98        69.61964
473.42        69.69699
473.87        70.13255
474.31         70.6664
474.75        70.39101
475.20        69.55881
475.64          69.373
476.08        70.06547
476.52        70.16401
476.97        69.68681
477.41        69.65621
477.85        69.97903
478.29        69.55859
478.74        69.99607
479.18        70.25382
479.62        68.96582
480.06         69.3875
480.50        69.86642
480.95        70.28981
481.39        70.33914
481.83        69.56081
482.27        69.61471
482.72        69.72052
483.16        68.76542
483.60         68.5113
484.04        70.33385
484.48        70.52377
484.93        70.21239
485.37        71.53059
485.81        72.82893
486.25        71.32269
486.69        98.02465
487.14        79.25611
487.58        48.90554
488.02        60.11903
488.46         67.9439
488.90        67.16683
489.34        68.64772
489.79        67.57032
490.23         69.8028
490.67        70.65921
491.11        69.68788
491.55          69.729
491.99        70.32986
492.43        70.19503
492.88        69.40232
493.32        69.25556
493.76        69.31176
494.20        69.49789
494.64        69.57847
495.08         69.8549
495.52        70.28221
495.96        70.15339
496.41        69.53799
496.85        70.01678
497.29        71.23968
497.73         70.0475
498.17        67.50197
498.61         67.7276
499.05        70.52742
499.49        71.03224
499.93        70.71477
500.37        70.45213
500.82        70.13491
501.26        70.17501
501.70        70.38322
502.14        70.70016
502.58        70.91467
503.02        70.89168
503.46        70.60008
503.90        70.06104
504.34        69.47668
504.78        69.17417
505.22        69.21499
505.66        69.53423
506.10         69.9781
506.54        70.13097
506.98        69.87791
507.42        69.81712
507.86        69.45778
508.30        69.01558
508.74        69.26783
509.18         69.4168
509.62        69.64289
510.06        69.78971
510.50        69.82654
510.94        69.80032
511.38         69.7509
511.82        69.69805
512.26        69.75377
512.70        69.81298
513.14        69.88589
513.58        69.96404
514.02        70.03747
514.46          70.081
514.90        70.08467
515.34        70.15913
515.78        70.06799
516.22        70.05769
516.66        70.06902
517.10        69.94937
517.54         69.7023
517.98        69.95332
518.42         69.8357
518.86         69.9662
519.30        70.07672
519.74        70.23124
520.18         70.3955
520.62        70.50423
521.06        70.55067
521.50        70.54923
521.93        70.50257
522.37        70.41519
522.81        70.30654
523.25        70.18477
523.69        70.09676
524.13        70.11301
524.57        70.24182
525.01        70.45636
525.45        70.70014
525.89        70.88068
526.32        70.95667
526.76        70.94464
527.20        70.86107
527.64        70.75457
528.08        70.66083
528.52        70.51463
528.96        70.28887
529.40        70.14073
529.83        70.11462
530.27        69.46427
530.71        69.60983
531.15        69.51419
531.59        69.59832
532.03        69.79664
532.46        70.08595
532.90        70.39214
533.34         70.6625
533.78        70.90417
534.22        71.07816
534.66        71.14127
535.09        71.07927
535.53        70.92631
535.97        70.71751
536.41        70.53413
536.85        70.40775
537.28        70.33204
537.72          70.283
538.16        70.23057
538.60        70.16679
539.04        70.04752
539.47        69.90384
539.91          69.966
540.35        70.16179
540.79        70.18555
541.22        70.02695
541.66        69.95438
542.10        69.96526
542.54        69.88634
542.97        69.77303
543.41        69.82242
543.85        70.03371
544.29        70.36674
544.72        70.66212
545.16        70.68707
545.60        70.39393
546.04         69.9004
546.47        69.42268
546.91        69.21673
547.35        69.39734
547.79         70.0976
548.22        70.96383
548.66        71.26557
549.10        70.86774
549.53        69.99557
549.97        69.05065
550.41        68.58678
550.84        68.71809
551.28        69.30506
551.72        70.14537
552.15        70.49739
552.59        70.45787
553.03        70.74136
553.46         70.4912
553.90        69.94729
554.34        70.17555
554.77        70.09346
555.21        70.11225
555.65        69.90257
556.08        70.42174
556.52        70.04002
556.96        70.57336
557.39        70.44956
557.83        70.21815
558.27        70.07681
558.70        70.08594
559.14        70.17297
559.57         70.3135
560.01        70.54436
560.45        70.79327
560.88        70.97618
561.32        71.02178
561.75         70.8076
562.19        70.44833
562.63        69.93091
563.06        69.46097
563.50        69.64837
563.93        70.31329
564.37        70.60388
564.80        70.43046
565.24         70.3162
565.68        70.28149
566.11         70.1923
566.55        70.12518
566.98        69.98534
567.42        69.86652
567.85        70.19562
568.29        70.88943
568.72          71.068
569.16        70.94448
569.60        71.47705
570.03        72.01355
570.47         72.1612
570.90        72.15896
571.34        69.91737
571.77        71.22343
572.21        71.25848
572.64        70.54204
573.08        69.66451
573.51        66.58469
573.95        69.23919
574.38        73.68806
574.82        71.62223
575.25        71.19372
575.69         69.2398
576.12         67.9095
576.56        67.21637
576.99        68.36736
577.42        71.96329
577.86        72.09173
578.29        71.29124
578.73        75.16018
579.16        69.04859
579.60        63.27074
580.03        65.71932
580.47         70.0871
580.90         71.7054
581.33         70.6726
581.77        69.28932
582.20        77.02873
582.64        76.80703
583.07        65.66521
583.51        64.23412
583.94        62.68769
584.37        65.21075
584.81        68.51044
585.24         72.3297
585.68        74.24847
586.11        73.21052
586.54        68.08109
586.98          65.956
587.41        66.07856
587.85        69.89905
588.28        72.59419
588.71        68.85423
589.15         66.5507
589.58        67.99973
590.01        68.02354
590.45        69.27157
590.88         69.7468
591.31        69.28905
591.75        68.68062
592.18        68.72293
592.61        70.27441
593.05        70.72458
593.48        73.90662
593.91        74.88267
594.35        69.29198
594.78        67.01868
595.21        66.72816
595.65        69.60075
596.08        72.61201
596.51        69.69427
596.94        67.68237
597.38        68.23505
597.81         70.8532
598.24        73.00062
598.68        71.40825
599.11        70.04944
599.54         72.8777
599.97        74.66373
600.41        69.27363
600.84        69.53635
601.27        71.23719
601.70        69.80875
602.14        70.14914
602.57        69.00213
603.00        69.45613
603.43        70.95856
603.87        72.51044
604.30        72.50549
604.73        70.05963
605.16        68.51299
605.60        69.53677
606.03        70.63533
606.46        71.59295
606.89        71.56784
607.32        69.46186
607.76        69.09481
608.19        71.65846
608.62        70.72487
609.05        69.31583
609.48        69.83472
609.92        69.98505
610.35        69.07294
610.78        71.35495
611.21        72.19091
611.64        68.79797
612.07        69.54927
612.50        69.99368
612.94        70.46077
613.37        69.85503
613.80        70.18187
614.23         70.6412
614.66        70.51617
615.09          70.626
615.52        70.66578
615.96        70.71847
616.39        70.86893
616.82        69.93324
617.25        69.42624
617.68         70.1131
618.11        70.84091
618.54        71.52501
618.97        70.96601
619.40        69.64589
619.84        69.21868
620.27         70.4995
620.70        71.16637
621.13        71.22069
621.56        70.52327
621.99        69.43909
622.42        70.16071
622.85        72.16492
623.28        71.95871
623.71        71.19424
624.14        71.23556
624.57        70.85493
625.00        70.63232
625.43        70.94009
625.86        70.44134
626.29        70.67637
626.72        71.18516
627.15        70.96599
627.58        71.02902
628.01        70.89643
628.44        71.24577
628.87        71.26537
629.30         70.9856
629.73        71.67388
630.16        71.90059
630.59        71.38831
631.02        70.98971
631.45        70.64466
631.88        70.35089
632.31        70.11562
632.74        70.35844
633.17        70.29934
633.60        70.41315
634.03        70.44894
634.46        70.46104
634.89        70.44518
635.32        70.40908
635.75        70.36885
636.18        70.30328
636.61        70.25085
637.04         70.2826
637.47        70.40344
637.89        70.59786
638.32        70.78065
638.75        70.85563
639.18        70.79516
639.61        70.63818
640.04        70.42544
640.47        70.22131
640.90        70.05934
641.33         69.9217
641.76        69.80781
642.18        69.81721
642.61        69.94725
643.04        70.01188
643.47        69.93473
643.90        70.49839
644.33        70.23151
644.76        70.32762
645.18        70.34341
645.61        70.28806
646.04        70.15225
646.47         69.9233
646.90        69.73164
647.33        69.73488
647.75        69.97767
648.18         70.4631
648.61        70.91489
649.04        70.89751
649.47        70.35995
649.89        69.30904
650.32        68.25836
650.75        68.16909
651.18        69.01195
651.61        69.98029
652.03        70.61019
652.46        70.64922
652.89        70.42952
653.32        69.78267
653.74        69.12749
654.17        70.64779
654.60        71.01274
655.03        68.98418
655.46        69.40731
655.88         73.7999
656.31        79.73291
656.74        183.4365
657.16        119.4731
657.59        41.80917
658.02        30.98023
658.45        53.20928
658.87        67.89072
659.30        71.16949
659.73        69.77287
660.15        67.26092
660.58        70.14979
661.01        72.05439
661.44        69.68821
661.86        68.74775
662.29        68.53677
662.72        69.43337
663.14        71.10073
663.57        71.03349
664.00        69.52297
664.42        69.17294
664.85         70.0672
665.27        70.56299
665.70        70.44449
666.13        70.28335
666.55        70.06372
666.98        69.60841
667.41        69.10258
667.83        68.91384
668.26         69.1124
668.69        69.55834
669.11        70.00371
669.54         70.3902
669.96        69.98686
670.39        69.44553
670.82        68.81356
671.24         68.5483
671.67        68.76519
672.09        69.20149
672.52        69.60027
672.94        70.23179
673.37        69.81674
673.80        69.64204
674.22        69.44521
674.65        69.31551
675.07        69.26637
675.50        69.12132
675.92        68.94898
676.35         68.9755
676.77        69.21586
677.20        69.53642
677.62        69.84411
678.05        69.98885
678.47        69.92155
678.90        69.70261
679.32        69.45759
679.75        69.24214
680.17        69.36997
680.60        69.60549
681.02         69.8817
681.45        69.84554
681.87        69.50407
682.30        69.14175
682.72        68.89705
683.15        68.82504
683.57        68.98322
684.00        69.31039
684.42        69.81714
684.85        70.07035
685.27        70.04275
685.70        69.83852
686.12        69.55228
686.54         69.3845
686.97        69.37631
687.39        69.46854
687.82        69.58691
688.24        69.71704
688.66         69.7335
689.09        69.73011
689.51        69.72446
689.94        69.75106
690.36        69.82829
690.78        69.93461
691.21        70.03893
691.63        70.09986
692.06        70.11005
692.48        70.08939
692.90        70.07318
693.33        70.10038
693.75        70.17944
694.17        70.30396
694.60        70.43866
695.02        70.50024
695.44        70.43483
695.87         70.4567
696.29        70.59303
696.71        70.27882
697.14        69.74574
697.56        70.31829
697.98        71.66628
698.41        71.56567
698.83        70.72903
699.25        70.12755
699.68        70.09336
700.10         69.9784
700.52        69.82365
700.94        69.99207
701.37        70.39346
701.79        70.77454
702.21          71.034
702.64        71.24937
703.06        71.35485
703.48        71.23792
703.90        70.91354
704.33        70.41793
704.75        69.89208
705.17        69.65463
705.59        69.78552
706.01        70.08782
706.44        70.40958
706.86        71.10442
707.28        71.15038
707.70        71.32982
708.12        71.37988
708.55        71.33826
708.97        71.20553
709.39        70.98762
709.81        70.76325
710.23        70.64996
710.66        70.68177
711.08         70.8704
711.50        71.08331
711.92        71.11132
712.34        70.91551
712.76        70.55152
713.19        70.18339
713.61          70.108
714.03        70.37095
714.45        70.87252
714.87        71.40409
715.29        71.63701
715.71        71.49567
716.13        71.08884
716.56         70.5861
716.98        70.29574
717.40        70.29836
717.82         70.4877
718.24        70.76102
718.66        70.97346
719.08        71.05424
719.50         71.0003
719.92        70.85489
720.34        70.75967
720.76        70.74838
721.19        70.63458
721.61        70.65614
722.03        70.72738
722.45         70.9074
722.87        71.17075
723.29         71.4482
723.71        71.61435
724.13        71.63581
724.55        71.54886
724.97        71.41164
725.39         71.3261
725.81        71.32317
726.23        71.36959
726.65         71.4472
727.07        71.52337
727.49        71.59017
727.91        71.67677
728.33        71.76048
728.75        71.80011
729.17        71.78625
729.59        71.70753
730.01        71.64809
730.43         71.7383
730.85        72.00108
731.27         72.4259
731.69        72.82279
732.10         72.9136
732.52        72.65174
732.94        72.06992
733.36        71.42495
733.78        71.52219
734.20           71.62
734.62        72.56102
735.04        73.72362
735.46        73.84261
735.88        73.13528
736.30        73.05887
736.72        74.13868
737.13        74.48853
737.55        74.02736
737.97        73.72063
738.39        73.69875
738.81        73.15688
739.23        72.45183
739.65        73.44522
740.06        75.59339
740.48        75.83361
740.90        74.25548
741.32        73.44794
741.74        73.69164
742.16        73.75941
742.57        73.72925
742.99        74.34418
743.41        75.37172
743.83        75.96946
744.25        75.99624
744.67        75.71053
745.08        75.33541
745.50        75.19163
745.92        75.39551
746.34        75.83836
746.75        76.36438
747.17        76.70632
747.59          76.809
748.01        76.75011
748.42        76.69912
748.84        76.90492
749.26        77.42126
749.68        78.13482
750.09        78.84562
750.51        79.24236
750.93        79.25877
751.35        78.91659
751.76        78.40165
752.18        78.21902
752.60        78.36315
753.01        78.36152
753.43        78.23306
753.85        78.40224
754.27        78.88526
754.68        79.48826
755.10         80.0475
755.52        80.45525
755.93         80.6297
756.35        80.52905
756.77        80.36352
757.18        80.31712
757.60        80.45183
758.02        81.14222
758.43         81.9434
758.85        81.29263
759.26        79.78519
759.68        79.10037
760.10        80.66159
760.51        81.39589
760.93        81.29601
761.34        79.97297
761.76        79.44486
762.18        78.88075
762.59        78.94546
763.01        79.33875
763.42         79.9875
763.84        80.55106
764.26        80.93354
764.67        81.06783
765.09        80.94637
765.50        80.92323
765.92        80.84448
766.33        79.60844
766.75        77.73769
767.16        77.13822
767.58         77.9705
768.00        79.26569
768.41        80.72501
768.83        82.06396
769.24         82.7457
769.66        82.42939
770.07        81.44118
770.49        79.86478
770.90         78.2746
771.32        79.06255
771.73          81.549
772.15        81.07027
772.56        78.08863
772.97        77.43214
773.39        79.03992
773.80        79.59019
774.22        78.87308
774.63        78.87025
775.05        79.49409
775.46        79.77601
775.88         79.6009
776.29        79.24187
776.70         78.8455
777.12        78.68703
777.53        78.84628
777.95        79.17339
778.36        79.50983
778.77        79.58238
779.19        79.36886
779.60        78.96562
780.02        78.55352
780.43        78.51321
780.84        78.98268
781.26        79.32969
781.67        79.54182
782.09        80.73511
782.50        82.35816
782.91        81.28709
783.33        79.00555
783.74        78.15094
784.15        79.12586
784.57        79.75571
784.98        79.74921
785.39        79.73093
785.81        79.62576
786.22        79.11137
786.63        78.53047
787.04        78.54533
787.46        79.21784
787.87        80.33588
788.28        81.50415
788.70        82.04781
789.11        81.80574
789.52         81.0144
789.93        80.04523
790.35         79.4175
790.76        79.28133
791.17         79.5418
791.58        79.99553
792.00        80.22031
792.41        80.08817
792.82        79.82147
793.23        79.65921
793.65        79.40403
794.06        79.33811
794.47        80.71946
794.88        82.65593
795.29        82.41563
795.71        79.83653
796.12        77.42611
796.53        75.87023
796.94         75.4666
797.35         76.3122
797.76        77.82485
798.18        79.32227
798.59        80.35188
799.00        80.53024
799.41         79.6366
799.82        78.19382
800.23        77.36555
800.64        77.39598
801.06        77.83949
801.47         78.5254
801.88         79.0725
802.29        79.31643
802.70         79.4242
803.11         79.3979
803.52        79.19743
803.93        78.86958
804.34        78.39443
804.75        77.93385
805.17        77.85937
805.58        78.27869
805.99        78.79769
806.40        79.22637
806.81        79.95907
807.22        80.54092
807.63        79.43443
808.04        77.23748
808.45        76.29008
808.86        76.82192
809.27        77.67582
809.68        78.47889
810.09        79.03121
810.50        79.13302
810.91        78.87779
811.32        78.43548
811.73        78.07787
812.14        77.89159
812.55        77.74416
812.96        77.68829
813.37        77.81917
813.78        78.12897
814.19        78.65636
814.60        79.10003
815.01        78.97932
815.42        78.23325
815.83        76.95612
816.24         75.6716
816.65        75.30251
817.05        76.10517
817.46        77.77783
817.87        79.61764
818.28        80.37378
818.69        79.71768
819.10         77.9863
819.51        75.97682
819.92        75.03711
820.33        75.52824
820.74        77.03484
821.14        78.85352
821.55        79.73563
821.96        79.37981
822.37        78.21047
822.78        76.78822
823.19        75.93266
823.60        75.87592
824.00        76.39618
824.41        77.13647
824.82        77.62842
825.23        77.66713
825.64        77.44141
826.04        77.11476
826.45          76.901
826.86        76.86018
827.27        76.87969
827.68        76.90507
828.08        76.90244
828.49        76.79032
828.90        76.65726
829.31        76.48591
829.72        76.23211
830.12        75.93745
830.53        75.60056
830.94        75.36725
831.35        75.41952
831.75        75.82491
832.16        76.47938
832.57        77.24435
832.97        77.80541
833.38        77.98193
833.79        77.83176
834.20        77.55434
834.60        77.46391
835.01        77.65379
835.42        78.03185
835.82         78.3528
836.23        78.12392
836.64        77.31039
837.04        76.12143
837.45        74.96478
837.86        74.47498
838.26        74.80824
838.67        75.73645
839.08        76.94442
839.48        77.84628
839.89        78.18509
840.29         78.1291
840.70        77.79747
841.11        77.36919
841.51         76.9368
841.92        76.41004
842.33        75.89246
842.73        75.58204
843.14        75.48901
843.54        75.64709
843.95        75.86352
844.35        75.85297
844.76        75.54243
845.17        75.03021
845.57        74.52505
845.98        74.35949
846.38         74.5996
846.79         75.1089
847.19        75.71206
847.60        76.01456
848.00        75.93303
848.41        75.55482
848.81        75.07317
849.22        74.69749
849.62        74.55181
850.03        74.60167
850.43        74.80282
850.84        74.98869
851.24        75.15356
851.65        75.17223
852.05        75.34091
852.46        75.95851
852.86        77.03297
853.27         78.4445
853.67        79.47951
854.07        79.18833
854.48        77.54814
854.88        74.90744
855.29        72.24546
855.69        70.97816
856.10        71.40356
856.50        73.31222
856.90        75.94589
857.31        77.54406
857.71        77.52716
858.12        76.34418
858.52        74.75548
858.92        73.75087
859.33        73.55713
859.73        73.89375
860.13        74.56129
860.54        75.17131
860.94         75.6175
861.34        75.99281
861.75        76.33389
862.15        76.77133
862.55        77.28762
862.96        77.80276
863.36        78.22301
863.76        78.37891
864.17        78.24082
864.57        77.92056
864.97        77.60192
865.38        77.55019
865.78         77.8677
866.18        78.41043
866.58        79.02195
866.99        79.41907
867.39        79.56597
867.79        79.56531
868.19        79.38887
868.60        78.98158
869.00        78.39907
869.40        77.66115
869.80        77.18985
870.21        77.61909
870.61        79.12532
871.01        81.51382
871.41        84.07743
871.81        85.59619
872.22         85.7506
872.62        84.86068
873.02        83.64662
873.42        83.43686
873.82        84.34544
874.22        85.68416
874.63        87.05563
875.03        87.61833
875.43        86.97791
875.83        86.31933
876.23         84.4875
876.63        83.60188
877.03        83.62247
877.44        84.69324
877.84        103.8746
878.24        91.66577
878.64        92.44284
879.04        92.73199
879.44        89.46923
879.84        87.88255
880.24        91.23141
880.64        92.95654
881.04        93.69206
881.44        93.87122
881.84        93.05345
882.24        91.50838
882.65        90.07887
883.05        89.52042
883.45        89.95589
883.85        91.38942
884.25        93.24049
884.65        94.24659
885.05        94.02801
885.45        93.00138
885.85        91.80979
886.25        91.34105
886.65        91.78451
887.05        92.83883
887.45        94.11782
887.85        94.94292
888.25        95.06671
888.65        94.72513
889.04        94.15562
889.44        93.76403
889.84        93.65504
890.24        93.66528
890.64        93.72576
891.04        93.76187
891.44         93.7224
891.84        93.65944
892.24        93.51785
892.64        93.16534
893.04        92.65954
893.44        92.14776
893.83        91.74191
894.23        91.61383
894.63        91.77898
895.03        92.09489
895.43        92.71478
895.83        93.88499
896.23         95.5257
896.63        97.52299
897.02        99.11467
897.42        99.08425
897.82        97.30127
898.22        94.25545
898.62        91.06899
899.01         89.3839
899.41         89.5721
899.81        91.07961
900.21        93.19234
900.61        94.72987
901.00        95.29179
901.40        95.25224
901.80        94.84805
902.20        94.44227
902.59        94.18473
902.99        93.89046
903.39        93.59657
903.79        93.42417
904.18        93.39718
904.58        93.58559
904.98        93.88042
905.38        94.07535
905.77        94.09946
906.17        93.97386
906.57        93.82116
906.96         93.8802
907.36        94.12357
907.76         94.5041
908.15         94.7804
908.55        94.45442
908.95        93.50365
909.34        92.05464
909.74        90.62372
910.14        89.83692
910.53        89.87461
910.93        90.61933
911.33        91.69353
911.72          92.421
912.12        92.51987
912.52        92.16131
912.91        91.74055
913.31        91.75502
913.70        92.34301
914.10        93.39622
914.49        94.47462
914.89        94.46483
915.29        93.08479
915.68        90.77785
916.08        88.71357
916.47        87.97898
916.87        88.66559
917.26        90.42078
917.66        92.36413
918.05        93.07497
918.45        92.19566
918.84        90.23824
919.24        88.15547
919.64        87.33769
920.03        88.13688
920.42        90.09824
920.82        92.50093
921.21        94.20519
921.61        94.63821
922.00        94.21923
922.40        93.24046
922.79        92.09737
923.19        91.02415
923.58        89.77804
923.98        88.41924
924.37        87.62092
924.77        87.77199
925.16        86.31637
925.55        87.83051
925.95        88.69641
926.34        90.18211
926.74        91.89172
927.13        93.48887
927.52        94.13463
927.92        93.74435
928.31        92.59388
928.70        91.02738
929.10        89.66813
929.49        88.69084
929.89        87.97213
930.28        87.72117
930.67        88.27819
931.07        89.51125
931.46         91.3889
931.85        93.14944
932.24        93.65352
932.64        92.70782
933.03        90.48576
933.42        87.64604
933.82        85.70121
934.21         85.1072
934.60        85.50312
934.99         86.2094
935.39        86.53225
935.78        86.36724
936.17        85.51665
936.56        83.83537
936.96        84.74411
937.35        83.68515
937.74        84.23856
938.13        84.82615
938.53        85.62032
938.92        86.65958
939.31        88.07243
939.70        89.50936
940.09        89.89096
940.49        88.93425
940.88        87.09117
941.27         85.2322
941.66        84.39617
942.05        84.69686
942.44        85.79677
942.84        87.25806
943.23        88.37762
943.62        88.80112
944.01        88.74007
944.40        88.32734
944.79        87.76374
945.18        87.11926
945.57        86.24652
945.97        85.23988
946.36        84.42651
946.75        84.03568
947.14        84.07812
947.53        84.30341
947.92        84.37402
948.31        84.24686
948.70        83.99405
949.09        83.77621
949.48        83.94765
949.87         84.5841
950.26         85.4771
950.65        86.36474
951.04        86.89865
951.43        86.98779
951.82        86.75255
952.21        86.19566
952.60         85.3727
952.99        84.37061
953.38        83.16004
953.77        82.06252
954.16        81.52913
954.55        81.62188
954.94        82.32655
955.33        83.07793
955.72        82.88968
956.11        81.57761
956.50        79.37582
956.89        77.26792
957.28        77.07022
957.66        79.29141
958.05         83.0877
958.44         87.1424
958.83        89.50726
959.22        89.68914
959.61        88.21144
960.00        85.86285
960.39        83.95045
960.78        82.93525
961.16        82.50246
961.55        82.25335
961.94        81.54312
962.33        80.26742
962.72        78.81239
963.11        77.62755
963.49        77.21873
963.88        77.64009
964.27        78.72889
964.66        80.07704
965.04        80.85066
965.43        80.62814
965.82          79.716
966.21        78.63223
966.60        78.05814
966.98         78.1406
967.37        78.62792
967.76        79.25033
968.15        79.49149
968.53        79.18598
968.92         78.4931
969.31        77.70417
969.69        77.14948
970.08        76.91987
970.47        76.96015
970.86        77.04012
971.24        76.77676
971.63        76.07697
972.02         75.0175
972.40        74.10072
972.79        74.19405
973.17         75.6114
973.56        78.04279
973.95        80.64126
974.33         81.7857
974.72        80.96139
975.11        78.69814
975.49        76.17778
975.88        74.99178
976.26         75.3881
976.65        77.05949
977.04        79.04265
977.42        79.04747
977.81        76.37041
978.19        71.99351
978.58        68.13491
978.96        67.06317
979.35        69.08221
979.74        73.68964
980.12        79.69622
980.51        83.23957
980.89         83.0712
981.28        80.32849
981.66         76.7743
982.05        74.62618
982.43        74.27847
982.82        74.89372
983.20        76.20602
983.59        77.96095
983.97        80.07857
984.35        82.84681
984.74        85.54465
985.12        86.71179
985.51        85.48112
985.89         82.0027
986.28        77.54349
986.66        74.25388
987.04        73.02818
987.43        73.39156
987.81        74.29398
988.20        74.38294
988.58          73.236
988.96        70.71323
989.35         67.3743
989.73        66.34792
990.12         69.4781
990.50        75.26331
990.88        79.85844
991.27        80.38705
991.65        77.33347
992.03        71.64525
992.42        65.49847
992.80        62.81699
993.18        64.72066
993.56        68.98038
993.95        73.64811
994.33        77.12375
994.71        78.93317
995.10        79.95767
995.48        80.01685
995.86        78.54543
996.24        75.51691
996.63        70.64031
997.01        65.13159
997.39        62.81473
997.77          65.336
998.15         71.8401
998.54        78.98804
998.92        82.19225
999.30        80.07738
999.68        73.85169
1000.06        65.21684
1000.45        58.48333
1000.83        55.67904
1001.21        55.57281
1001.59        57.29207
1001.97        60.00603
1002.35        63.41629
1002.73        68.31832
1003.12        73.82315
1003.50        76.27671
1003.88        73.80839
1004.26        67.97734
1004.64        61.77236
1005.02         57.7773
1005.40        56.09317
1005.78        55.96456
1006.16        58.47748
1006.54        64.60085
1006.92        71.33267
1007.30        76.39336
1007.69        79.09946
1008.07         79.9903
1008.45        79.42707
1008.83        76.36144
1009.21        66.58899
1009.59        37.53833
1009.97       -32.50612
1010.35         -115.84
1010.73       -88.49286
1011.11       -31.26786
1011.49        5.980289
1011.86        31.93631
1012.24        46.55776
1012.62        53.03552
1013.00        54.78629
1013.38        53.00082
1013.76        49.86421
1014.14         52.6372
1014.52        67.15765
1014.90        94.93433
1015.28        128.2426
1015.66        144.7053
1016.04         131.043
1016.41        92.23642
1016.79        49.81256
1017.17        26.75212
1017.55        22.46185
1017.93        25.83461
1018.31        31.40906
1018.69        36.83927
1019.06        42.22063
1019.44        48.70662
1019.82        57.87613
1020.20        69.40202
1020.58        81.56024
1020.95        92.70413
1021.33        89.55927
1021.71        340.9523
1022.09        149.2066
1022.46         144.206
1022.84        146.5474
1023.22        155.1346
1023.60        180.0941
1023.97        428.6663
1024.35        8.910606
1024.73        58.06369
