SpectraSmart Spectrum 2.9.0.0
--------- Device Information -----------
Spectrum Name :  反射率_0
Saving Time :  2024/04/26 01:52:22
Spectro-Module Model Name : SE2030-DUVN
Spectro-Module Serial Number : OS361AC55029948
Wavelength Start : 200
Wavelength End : 1025
Wavelength Unit : Wavelength(nm)
Spectrum Unit : Reflectance(%)
-----------Spectrum Setting ------------
Integration Time : 20ms
Average : 10
Boxcar : 0
Background removal :  enabled
linearity correction :  enabled
SC :  disabled
Intensity correction :  disabled
DWT denoise :  enabled
savitzky-golay :  disabled
FFT :  disabled
Running average :  disabled
Kalman :  disabled
High pass :  disabled
---------------BEGIN--------------------
Wavelength(nm)             Reflectance(%)
200.29               0
200.75        86.96302
201.21        79.45045
201.67        70.74068
202.13        66.22962
202.58         66.5042
203.04        70.34372
203.50        75.16257
203.96        76.53372
204.42        73.81826
204.88        69.16207
205.34        64.85568
205.80        62.95612
206.26        64.02306
206.72        68.98669
207.18        80.46665
207.64        92.92697
208.10        89.89112
208.55        78.00087
209.01        69.81105
209.47        67.22702
209.93        68.05303
210.39        71.17445
210.85        74.12487
211.31        72.00319
211.77        63.92039
212.23        52.04591
212.69         41.4465
213.14        39.84112
213.60        48.21696
214.06        64.15482
214.52        81.87086
214.98        92.39857
215.44        93.42234
215.90        87.92599
216.36        79.38707
216.81        72.67601
217.27        69.60023
217.73        68.62543
218.19        68.19994
218.65        66.30772
219.11        62.01603
219.57        54.87471
220.02        46.06825
220.48        41.92862
220.94        45.40675
221.40        54.68615
221.86        62.23423
222.32        60.52938
222.77         51.1649
223.23        38.87034
223.69        29.02493
224.15        27.14085
224.61         32.4057
225.06         41.9142
225.52        51.48343
225.98        55.66793
226.44        53.51697
226.90        47.35598
227.36        40.11248
227.81        35.76096
228.27         35.4773
228.73        37.63696
229.19        40.88354
229.65        43.25755
230.10        44.17512
230.56        44.42118
231.02        44.37035
231.48        44.34637
231.93        44.44081
232.39        44.47343
232.85        44.46144
233.31        44.55274
233.77        44.75623
234.22        45.07626
234.68        45.43031
235.14        45.54058
235.60        45.36853
236.05        45.06364
236.51        44.79875
236.97        44.78822
237.43        45.17228
237.88        46.04454
238.34        47.54773
238.80        49.92362
239.26        53.01563
239.71        56.65963
240.17        60.17617
240.63        63.05668
241.08        65.18101
241.54        66.46901
242.00        67.23698
242.46        68.12547
242.91        69.85489
243.37        73.22469
243.83        83.81951
244.28         122.747
244.74         175.234
245.20        157.0516
245.66        135.1454
246.11        128.7457
246.57        131.8526
247.03        147.1766
247.48        190.0908
247.94        154.8035
248.40        105.4907
248.85        91.79844
249.31        88.61237
249.77        89.35162
250.22         92.5342
250.68        98.52367
251.14        106.7919
251.59        110.7088
252.05        104.7673
252.51        92.86416
252.96        81.04079
253.42        74.65278
253.88        73.06819
254.33         74.2467
254.79        78.19165
255.25        84.13251
255.70        90.48454
256.16        96.84923
256.62        100.9699
257.07        100.5949
257.53        96.86362
257.99        90.76163
258.44        84.46002
258.90        81.48264
259.35        80.90984
259.81        81.48974
260.27        81.22598
260.72        78.20374
261.18        73.24262
261.63        67.17886
262.09         61.6058
262.55        57.61501
263.00        55.17428
263.46        53.83853
263.91         52.7879
264.37        51.48715
264.83        49.69638
265.28        47.51183
265.74        45.36665
266.19        43.65158
266.65        42.61678
267.11        42.02217
267.56        41.48237
268.02        40.52956
268.47        39.03339
268.93        37.15823
269.38        35.18612
269.84        33.83922
270.30        33.30828
270.75        33.39457
271.21        33.68539
271.66        33.55806
272.12         32.8492
272.57        31.74785
273.03        30.59385
273.48        29.81279
273.94        29.52866
274.39        29.54575
274.85        29.61459
275.31        29.36709
275.76        28.72083
276.22        27.83915
276.67        26.92606
277.13        26.36247
277.58        26.16107
278.04        26.21899
278.49         26.2737
278.95        26.02274
279.40        25.39598
279.86        24.57135
280.31        23.71851
280.77         23.2002
281.22        23.03613
281.68        23.11211
282.13        23.26504
282.59        23.30335
283.04        23.17112
283.50        22.97976
283.95        22.73273
284.41        22.45116
284.86        22.15709
285.32         21.8482
285.77        21.63522
286.22         21.7513
286.68        22.18299
287.13        22.81873
287.59        23.41286
288.04        23.58745
288.50         23.3046
288.95         22.6824
289.41        21.96369
289.86        21.40913
290.32        21.15678
290.77        21.11862
291.22        21.27211
291.68         21.5408
292.13        21.90099
292.59        22.38963
293.04        23.01068
293.50        23.75891
293.95        24.60812
294.40        25.51529
294.86         26.4405
295.31        27.34555
295.77        28.23129
296.22        29.11639
296.68        30.01119
297.13        30.90113
297.58        31.80392
298.04        32.73328
298.49        33.74849
298.95        34.99009
299.40        36.46221
299.85        38.11905
300.31        39.82626
300.76        41.36494
301.21        42.66593
301.67        43.83278
302.12        44.91533
302.58        46.08284
303.03        47.36071
303.48         48.7197
303.94        50.23547
304.39        51.96539
304.84        53.90478
305.30        56.02515
305.75        58.11039
306.20        59.84911
306.66        61.20645
307.11        62.23148
307.57         63.1851
308.02        64.35249
308.47        65.85616
308.93        67.61309
309.38         69.4565
309.83        71.16845
310.29        72.66813
310.74        73.98542
311.19        75.21958
311.65        76.52486
312.10        77.92519
312.55        79.37772
313.00        80.72847
313.46        81.73908
313.91        82.34581
314.36        82.64317
314.82        82.88058
315.27        83.38997
315.72        84.28581
316.18        85.47763
316.63        86.76458
317.08        87.76553
317.53        88.37009
317.99        88.67216
318.44        88.90663
318.89        89.46117
319.35        90.39874
319.80        91.61975
320.25        92.80583
320.70        93.43426
321.16        93.38906
321.61        92.84821
322.06        92.16742
322.51        91.90379
322.97        92.17788
323.42        92.86603
323.87        93.70067
324.32        94.21867
324.78        94.27444
325.23        94.06037
325.68         93.7541
326.13        93.66846
326.59        93.87512
327.04        94.29153
327.49        94.81986
327.94        95.33986
328.39        95.79357
328.85        96.20658
329.30        96.60483
329.75        96.85506
330.20        96.96674
330.66        96.95985
331.11        97.02652
331.56         97.4042
332.01        98.16274
332.46        99.21941
332.92        100.4149
333.37        101.6435
333.82        102.7193
334.27        103.6647
334.72        104.3774
335.17         104.715
335.63        104.6859
336.08        104.3933
336.53        104.0461
336.98        104.0333
337.43        104.4613
337.88        105.2239
338.34        106.1965
338.79         107.254
339.24        108.2648
339.69        109.2819
340.14        110.1335
340.59        110.5281
341.05        110.4423
341.50        109.9489
341.95        109.3886
342.40        109.2991
342.85        109.7942
343.30        110.7327
343.75        111.8217
344.20        112.5292
344.66         112.706
345.11        112.4965
345.56        112.1112
346.01        111.8702
346.46        111.8706
346.91        112.0023
347.36        112.1856
347.81        112.3092
348.26        112.3452
348.72        112.3752
349.17        112.4028
349.62        112.4657
350.07        112.5735
350.52        112.6899
350.97        112.8259
351.42        113.0148
351.87        113.2382
352.32        113.4668
352.77        113.6177
353.22        113.5613
353.67        113.2778
354.13        112.8343
354.58        112.2789
355.03        111.7529
355.48         111.301
355.93        110.8861
356.38        110.5063
356.83        110.1533
357.28         109.805
357.73        109.4638
358.18        109.0663
358.63        108.5063
359.08        107.7775
359.53        106.9273
359.98        106.0343
360.43        105.2243
360.88        104.5287
361.33        103.8993
361.78          103.33
362.23          102.81
362.68        102.3233
363.13        101.8892
363.58        101.4207
364.03         100.771
364.48        99.92906
364.93        98.94009
365.38        97.96216
365.83        97.26168
366.28        96.88169
366.73        96.71154
367.18         96.5985
367.63        96.29096
368.08        95.72179
368.53        95.00513
368.98        94.16597
369.43        93.23051
369.88        92.24346
370.33        91.18908
370.78        90.24464
371.23        89.71159
371.68        89.64014
372.13        89.95295
372.58        90.36696
373.03        90.38978
373.48        89.89447
373.93        89.02229
374.38        88.03582
374.83        87.34402
375.28        87.04449
375.72        86.99316
376.17        87.02861
376.62        86.87084
377.07        86.43353
377.52        85.80172
377.97        85.09596
378.42        84.49834
378.87        84.06693
379.32        83.75756
379.77        83.45226
380.22        82.97803
380.67        82.30197
381.11        81.47769
381.56        80.67295
382.01        80.16375
382.46        80.02049
382.91        80.17968
383.36         80.3981
383.81        80.29092
384.26        79.77872
384.71         78.9626
385.15        78.12591
385.60        77.76627
386.05         77.9089
386.50        78.38151
386.95        78.81769
387.40        78.61254
387.85        77.70048
388.29        76.35522
388.74        75.05529
389.19        74.14484
389.64        73.69036
390.09        73.51897
390.54         73.6026
390.98        73.89298
391.43        74.30193
391.88        74.80742
392.33        75.17992
392.78        75.01812
393.23         74.3186
393.67        73.37019
394.12         72.5256
394.57        71.70105
395.02        71.15191
395.47        71.57931
395.91        72.76707
396.36        73.44435
396.81        73.41562
397.26        73.26833
397.71        73.08598
398.15        72.67922
398.60        72.19225
399.05        71.76102
399.50        71.39163
399.95        70.73686
400.39        70.22013
400.84        69.96778
401.29        70.05988
401.74        70.27847
402.18        70.50983
402.63        70.49207
403.08        70.31307
403.53        70.38242
403.97        70.69737
404.42        70.95427
404.87        71.04565
405.32        70.85647
405.76        70.35251
406.21        69.85548
406.66        69.41521
407.11        68.68866
407.55        67.97382
408.00        68.12461
408.45        69.01335
408.90        69.76469
409.34        69.96717
409.79        69.27979
410.24        68.09666
410.68        67.60444
411.13        67.92595
411.58        68.35805
412.03        68.75128
412.47        69.17619
412.92        69.49664
413.37        69.71725
413.81        69.79245
414.26         69.7048
414.71        69.45102
415.15        69.02618
415.60        68.56223
416.05        68.29362
416.49        68.28168
416.94        68.49902
417.39        68.75163
417.83        68.68106
418.28        68.23904
418.73         67.5561
419.17        66.92626
419.62        66.81608
420.07        67.26603
420.51        68.10273
420.96        69.02143
421.41        69.44338
421.85        69.20031
422.30        68.77071
422.74        68.26448
423.19        67.52374
423.64        66.79513
424.08        66.99513
424.53        67.96745
424.98        68.52988
425.42        68.53438
425.87        68.83904
426.31        69.37578
426.76        69.22467
427.21        68.62683
427.65        68.78529
428.10        69.65717
428.54        70.40266
428.99        70.96948
429.44        71.36492
429.88        71.54557
430.33         72.3247
430.77        73.08014
431.22        71.78352
431.66        69.06667
432.11         67.6605
432.56        67.88219
433.00        68.71783
433.45        69.97612
433.89        71.95213
434.34        73.20956
434.78        74.48617
435.23        70.31393
435.67        68.82686
436.12        70.39029
436.57        71.60464
437.01        72.47109
437.46        72.91157
437.90        73.09682
438.35        72.37031
438.79        73.20048
439.24        73.17324
439.68         73.0369
440.13        72.68243
440.57        72.47576
441.02        73.42075
441.46        75.05291
441.91        75.97083
442.35        75.86343
442.80        74.64098
443.24        72.93084
443.69        73.52615
444.13        75.96544
444.58        76.18015
445.02        74.35098
445.47        74.15269
445.91        75.49889
446.36        75.89867
446.80        75.26204
447.24        75.16846
447.69        75.10464
448.13        75.28814
448.58        75.55721
449.02        75.90723
449.47        76.28582
449.91        76.66679
450.36        76.98283
450.80        77.18427
451.25        77.23167
451.69        76.93279
452.13        76.43244
452.58         76.1848
453.02        76.21579
453.47        76.23717
453.91        76.22581
454.36        76.39565
454.80        76.68171
455.24        76.70193
455.69         76.4167
456.13        76.20874
456.58        76.10919
457.02         75.3875
457.46        74.43806
457.91        74.70632
458.35        75.90788
458.79        76.38561
459.24         76.0634
459.68        75.76899
460.13         75.5864
460.57        75.30936
461.01        75.05135
461.46        74.37357
461.90          74.077
462.34        74.11185
462.79         74.0079
463.23        74.15453
463.68         74.3091
464.12        74.74123
464.56        75.26785
465.01        75.36874
465.45        74.94549
465.89        74.75037
466.34        74.58219
466.78         73.5833
467.22         72.2135
467.67        72.00005
468.11        73.12973
468.55        73.83082
468.99        73.85059
469.44        73.46044
469.88        72.88143
470.32        72.85755
470.77        73.30931
471.21        73.32629
471.65        72.86237
472.10         72.5964
472.54        72.60046
472.98         72.6271
473.42        72.65528
473.87        72.94658
474.31        73.30396
474.75        73.02481
475.20         72.3148
475.64        72.17738
476.08        72.55411
476.52         72.6078
476.97        72.34106
477.41        72.09254
477.85        71.96058
478.29        72.38869
478.74        73.10921
479.18        73.13433
479.62        71.72218
480.06        72.18372
480.50        72.71068
480.95        73.25336
481.39        73.35829
481.83        72.36745
482.27        72.09866
482.72        72.55285
483.16        70.83678
483.60        70.76175
484.04        72.59212
484.48        72.78932
484.93        72.26236
485.37         74.2039
485.81        75.11568
486.25        73.68373
486.69        99.23059
487.14        80.16816
487.58        50.34383
488.02        61.61337
488.46        70.18839
488.90        69.83539
489.34        71.39165
489.79        70.69297
490.23        72.55183
490.67         73.3707
491.11        72.38103
491.55        72.40012
491.99        72.96022
492.43        72.79347
492.88        71.99554
493.32        71.89143
493.76         71.9886
494.20        72.18852
494.64        72.24792
495.08        72.40096
495.52        72.66908
495.96        72.66108
496.41        72.37937
496.85          72.882
497.29         73.8499
497.73        72.68861
498.17        70.43047
498.61          70.599
499.05        73.20344
499.49        73.62324
499.93        73.46584
500.37        73.32535
500.82         73.0224
501.26        72.96791
501.70        72.99112
502.14          73.191
502.58        73.39026
503.02        73.36255
503.46         73.0848
503.90        72.65576
504.34        72.24187
504.78        72.06281
505.22        72.16283
505.66        72.50529
506.10        72.93311
506.54        73.08949
506.98        72.88196
507.42        72.76854
507.86        72.27481
508.30        72.16498
508.74        72.30944
509.18        72.63959
509.62        73.01881
510.06        73.24406
510.50        73.26132
510.94        73.12981
511.38        72.95246
511.82        72.88412
512.26        72.96452
512.70        73.14124
513.14        73.32819
513.58         73.3925
514.02        73.29849
514.46        73.09127
514.90        72.86031
515.34        72.72561
515.78        72.70901
516.22        72.83189
516.66        73.01585
517.10        72.97749
517.54        72.68727
517.98        72.75562
518.42        72.47868
518.86         72.5435
519.30        72.73248
519.74        73.05437
520.18        73.41364
520.62         73.6526
521.06        73.73457
521.50         73.7055
521.93        73.59581
522.37        73.45377
522.81        73.31654
523.25        73.17617
523.69        73.07758
524.13        73.09087
524.57        73.22217
525.01        73.45046
525.45        73.71235
525.89        73.89915
526.32        73.96835
526.76        73.94324
527.20        73.85086
527.64        73.75836
528.08        73.70591
528.52        73.61643
528.96        73.45773
529.40        73.38862
529.83        73.44837
530.27        72.85181
530.71        73.07164
531.15        72.99815
531.59        73.06875
532.03        73.21864
532.46        73.44285
532.90         73.6973
533.34        73.93864
533.78        74.17117
534.22        74.33784
534.66        74.36482
535.09        74.23563
535.53        74.00098
535.97        73.72337
536.41        73.52591
536.85        73.44939
537.28        73.47185
537.72        73.54427
538.16        73.59746
538.60        73.60701
539.04        73.53054
539.47        73.40762
539.91        73.49458
540.35        73.71848
540.79        73.75162
541.22        73.57541
541.66        73.46109
542.10        73.40863
542.54        73.24922
542.97        73.05585
543.41        73.05124
543.85        73.23033
544.29        73.56808
544.72        73.90977
545.16        73.93832
545.60         73.5845
546.04        73.34146
546.47        72.76405
546.91        72.58287
547.35         72.7225
547.79        73.30693
548.22        74.04537
548.66        74.38799
549.10        74.18618
549.53        73.47678
549.97        72.59495
550.41        72.13476
550.84        72.21201
551.28        72.56605
551.72        73.03103
552.15        73.35812
552.59        73.44932
553.03        73.50572
553.46         73.4017
553.90        73.29623
554.34        73.32906
554.77        73.32427
555.21        73.12763
555.65        73.26688
556.08        73.75233
556.52        73.13639
556.96        73.23705
557.39        73.07954
557.83        73.22125
558.27        73.43058
558.70        73.64446
559.14        73.75146
559.57         73.7414
560.01        73.79896
560.45        73.93592
560.88        74.06855
561.32        74.12281
561.75        74.01248
562.19        73.78003
562.63        73.16398
563.06        72.43713
563.50        72.59291
563.93        73.42799
564.37        73.75643
564.80        73.47437
565.24        73.28939
565.68        73.26911
566.11        73.22636
566.55        73.22628
566.98        73.29108
567.42        73.40218
567.85        73.52444
568.29        73.69128
568.72         73.7016
569.16        73.73006
569.60        74.12241
570.03        74.53362
570.47        74.40683
570.90        74.07356
571.34        72.27153
571.77        73.41651
572.21        73.29588
572.64        72.81156
573.08        71.88445
573.51        68.95958
573.95        71.56831
574.38        75.74789
574.82        73.88722
575.25        73.12434
575.69        71.16566
576.12        70.14211
576.56        69.37424
576.99        70.21517
577.42        74.10774
577.86        73.73065
578.29        73.21561
578.73         77.1253
579.16        70.95569
579.60        64.84612
580.03        67.71479
580.47        72.08592
580.90        74.03229
581.33         72.5453
581.77        71.79389
582.20        78.62228
582.64        78.15564
583.07        66.83867
583.51        65.73931
583.94        64.77487
584.37        67.69449
584.81        70.86564
585.24        74.58425
585.68        76.48228
586.11         75.2436
586.54        69.90844
586.98        67.70956
587.41        68.57016
587.85        72.18266
588.28        74.81388
588.71        70.75491
589.15        68.76027
589.58        70.25063
590.01        70.48629
590.45        71.66219
590.88        72.35608
591.31        71.67854
591.75         71.2232
592.18        71.26209
592.61         72.8821
593.05        73.10313
593.48        76.26237
593.91        77.63065
594.35        71.14868
594.78        69.46904
595.21        69.26964
595.65        72.35141
596.08        75.21947
596.51        71.81229
596.94        70.15728
597.38         70.7468
597.81        73.37649
598.24        75.42191
598.68        73.75871
599.11        72.53697
599.54        75.49319
599.97        77.05893
600.41        71.51707
600.84        71.71665
601.27        73.51733
601.70        71.97289
602.14        72.42898
602.57        71.22321
603.00        71.63412
603.43        73.17642
603.87        74.84443
604.30        74.75961
604.73        72.47038
605.16        70.73294
605.60        71.98351
606.03        73.03889
606.46        73.87006
606.89        73.79142
607.32         71.6869
607.76         71.1539
608.19        73.94375
608.62         73.0621
609.05         71.9269
609.48         72.4123
609.92        72.12064
610.35        71.79987
610.78        73.90827
611.21        74.57622
611.64        71.25275
612.07        72.03041
612.50        72.52202
612.94          73.042
613.37        72.49489
613.80        72.52148
614.23        73.09424
614.66        72.89362
615.09        72.97654
615.52        73.01735
615.96        73.11802
616.39        73.16915
616.82        71.93714
617.25        71.80556
617.68        72.57694
618.11         73.2137
618.54        73.47225
618.97        72.99664
619.40        72.17777
619.84        71.98091
620.27         72.9667
620.70        73.63526
621.13        73.92989
621.56        73.45683
621.99        72.48238
622.42        73.14986
622.85         75.0051
623.28        74.65761
623.71        73.58399
624.14        74.25883
624.57        73.79443
625.00        73.23396
625.43        73.82017
625.86        73.13702
626.29        73.22501
626.72         73.7652
627.15         73.4902
627.58        73.74209
628.01        73.89497
628.44        74.04144
628.87        74.13551
629.30        73.79278
629.73        74.47868
630.16        74.87322
630.59        74.28233
631.02        73.95856
631.45        73.66993
631.88        73.42585
632.31        73.24496
632.74        73.16283
633.17        73.17345
633.60        73.22893
634.03          73.314
634.46        73.43957
634.89         73.5722
635.32        73.65896
635.75        73.68643
636.18        73.65373
636.61        73.60728
637.04         73.6268
637.47        73.71748
637.89        73.89435
638.32         74.0815
638.75        74.10171
639.18        73.90854
639.61        73.95168
640.04        73.57837
640.47        73.44817
640.90        73.38255
641.33        73.37455
641.76        73.36773
642.18        73.38908
642.61        73.43049
643.04        73.31624
643.47        73.04206
643.90        73.54747
644.33        73.32149
644.76         73.5647
645.18        73.75531
645.61        73.80253
646.04        73.66815
646.47        73.37972
646.90        73.08203
647.33        72.96514
647.75        73.09756
648.18        73.43671
648.61        73.76148
649.04        73.81108
649.47        73.50205
649.89        72.62273
650.32        71.64341
650.75        71.62846
651.18        72.52372
651.61        73.40046
652.03        73.83607
652.46        73.77549
652.89        73.54279
653.32        72.98098
653.74        71.93927
654.17        73.68009
654.60        74.05245
655.03        72.10165
655.46        72.14335
655.88        76.98041
656.31        81.01272
656.74        181.5115
657.16        117.9086
657.59        41.75856
658.02        31.60583
658.45        55.18614
658.87        70.73772
659.30        74.10307
659.73         72.8223
660.15        70.17971
660.58         73.2151
661.01        75.03889
661.44        72.35137
661.86        71.55007
662.29        71.78426
662.72        72.61868
663.14        73.78487
663.57         73.6908
664.00        72.60366
664.42         72.3894
664.85        73.12232
665.27        73.55237
665.70         73.4787
666.13        73.31001
666.55        73.03515
666.98        72.53092
667.41         71.9892
667.83        71.78401
668.26        71.98598
668.69        72.44237
669.11        72.91061
669.54          73.332
669.96        72.93239
670.39        72.46671
670.82        71.93925
671.24        71.52287
671.67        71.42828
672.09        71.95214
672.52        72.73589
672.94        73.36011
673.37        72.53299
673.80         72.2119
674.22        72.15633
674.65        72.09822
675.07        72.04542
675.50        72.01634
675.92        72.01247
676.35        72.07006
676.77        72.17878
677.20        72.25867
677.62        72.32278
678.05        72.36096
678.47        72.35567
678.90        72.47575
679.32        72.44019
679.75        72.35591
680.17        72.42552
680.60         72.4305
681.02        72.41546
681.45        72.29748
681.87         72.0876
682.30        71.80379
682.72        71.55193
683.15        71.51886
683.57        71.74645
684.00        72.08505
684.42         72.5446
684.85        72.77534
685.27        72.75528
685.70        72.56219
686.12        72.27962
686.54        72.10159
686.97        72.06441
687.39        72.10433
687.82        72.16295
688.24        72.24235
688.66        72.28832
689.09        72.24316
689.51        72.14499
689.94        72.13072
690.36        72.23296
690.78        72.28349
691.21        72.29035
691.63        72.52554
692.06        72.87622
692.48         72.8309
692.90        72.48873
693.33        72.41432
693.75        72.64034
694.17        72.90466
694.60        73.11835
695.02        73.14497
695.44        72.96488
695.87        73.01675
696.29         73.3119
696.71        73.04065
697.14        72.42389
697.56        72.93739
697.98        74.26775
698.41         74.1253
698.83        73.25696
699.25        72.65417
699.68        72.64223
700.10        72.52715
700.52        72.34514
700.94        72.48062
701.37        72.85606
701.79        73.23734
702.21        73.52522
702.64        73.78378
703.06        73.93867
703.48        73.86453
703.90        73.57079
704.33        73.10155
704.75        72.58142
705.17         72.3059
705.59         72.3559
706.01        72.53524
706.44        72.73953
706.86        73.42239
707.28        73.54398
707.70        73.88401
708.12        74.09956
708.55        74.11815
708.97        73.91998
709.39        73.55303
709.81        73.15298
710.23         72.9285
710.66        72.94603
711.08        73.19337
711.50        73.49841
711.92        73.58768
712.34        73.40099
712.76        73.01196
713.19        72.60482
713.61        72.50764
714.03        72.77526
714.45        73.29913
714.87        73.84792
715.29        74.05924
715.71        73.85474
716.13        73.35867
716.56         72.7817
716.98        72.49327
717.40        72.58514
717.82        72.94033
718.24        73.40636
718.66        73.72592
719.08        73.81322
719.50        73.74822
719.92        73.58963
720.34        73.44881
720.76        73.37156
721.19        73.20052
721.61        73.17545
722.03         73.1783
722.45        73.27213
722.87        73.44326
723.29        73.65274
723.71        73.82008
724.13        73.91537
724.55        73.95571
724.97        73.94664
725.39        73.90572
725.81        73.84588
726.23        73.76253
726.65        73.68337
727.07        73.65128
727.49        73.67951
727.91        73.77025
728.33         73.8888
728.75        73.97202
729.17        73.99931
729.59        73.97182
730.01        73.93913
730.43        74.00391
730.85        74.18964
731.27        74.43906
731.69        74.62587
732.10         74.8235
732.52        74.52098
732.94        74.20868
733.36        73.93505
733.78         73.8737
734.20        74.06469
734.62        74.77028
735.04        75.72504
735.46        75.72756
735.88        75.00877
736.30        75.28686
736.72        76.50307
737.13        76.92767
737.55        76.32305
737.97        76.13123
738.39        76.38879
738.81        75.58973
739.23        74.21803
739.65        75.00124
740.06        77.41418
740.48         77.7246
740.90        76.01344
741.32        75.29085
741.74        75.81461
742.16        76.08607
742.57        76.14855
742.99        76.82511
743.41         77.8987
743.83        78.56023
744.25        78.67088
744.67        78.42744
745.08         78.0742
745.50        78.00608
745.92        78.34025
746.34         78.9404
746.75        79.58487
747.17         79.9007
747.59        79.81759
748.01        79.46825
748.42        79.12202
748.84        79.14291
749.26        79.64746
749.68        80.58292
750.09        81.63766
750.51        82.20827
750.93        82.17767
751.35        81.70361
751.76        81.04554
752.18        80.77513
752.60        80.91357
753.01        80.97398
753.43         80.9493
753.85         81.1515
754.27        81.56358
754.68           82.16
755.10        82.87199
755.52        82.94567
755.93        83.57633
756.35        83.65887
756.77        83.69387
757.18         83.6795
757.60        83.64732
758.02        84.10479
758.43         84.6888
758.85         83.7705
759.26        81.93113
759.68        81.69434
760.10         82.9741
760.51        83.88517
760.93        83.93067
761.34        82.96606
761.76        82.25584
762.18        81.41644
762.59        81.04906
763.01        81.39533
763.42        82.41167
763.84        83.14006
764.26        83.43239
764.67        83.84043
765.09        84.21208
765.50        83.95116
765.92        83.11343
766.33        81.91818
766.75        80.79691
767.16        80.28057
767.58        80.51523
768.00        82.07323
768.41        84.47963
768.83        85.79486
769.24        85.52914
769.66        84.62204
770.07        83.58681
770.49        82.23035
770.90        81.00356
771.32        81.96938
771.73        84.39013
772.15        83.94821
772.56        81.11992
772.97        80.38136
773.39        81.73775
773.80        82.46092
774.22        82.21629
774.63        82.12486
775.05        82.19291
775.46        82.33155
775.88        82.48077
776.29        82.42174
776.70        82.18102
777.12        82.06295
777.53        82.11374
777.95        82.17715
778.36        82.19537
778.77        82.06752
779.19        81.82338
779.60        81.51369
780.02        81.24352
780.43         81.2879
780.84        81.74699
781.26        81.98646
781.67        82.06038
782.09        83.24905
782.50        84.92635
782.91        84.02753
783.33        81.28374
783.74        80.41994
784.15        81.61292
784.57        82.45795
784.98        82.59969
785.39        82.68703
785.81        82.62822
786.22         82.0844
786.63        81.42141
787.04        81.34319
787.46        81.92704
787.87        82.95184
788.28        84.05272
788.70         84.5929
789.11        84.41275
789.52         83.7687
789.93        82.97462
790.35        82.38364
790.76         82.1664
791.17         82.4227
791.58        82.95452
792.00        83.22057
792.41        83.10633
792.82        82.82997
793.23        82.61573
793.65        82.50417
794.06        82.68219
794.47        83.76591
794.88        84.96262
795.29        84.97899
795.71        82.26083
796.12        80.26017
796.53        79.09367
796.94        78.74152
797.35         79.3011
797.76        80.69273
798.18        82.30418
798.59        83.33049
799.00        83.39465
799.41        82.50968
799.82        81.15976
800.23        80.31788
800.64        80.21472
801.06        80.47989
801.47        80.98722
801.88         81.4183
802.29        81.64116
802.70        81.79907
803.11        81.89922
803.52        81.91454
803.93        81.86286
804.34        81.69194
804.75        81.50515
805.17        81.55021
805.58         81.9011
805.99        82.29887
806.40        82.54871
806.81        82.80154
807.22        82.76109
807.63        81.46455
808.04        79.47762
808.45        78.59591
808.86         79.0191
809.27        79.92254
809.68        80.89964
810.09          81.513
810.50        81.53635
810.91        81.12158
811.32        80.52743
811.73        80.17778
812.14        80.19441
812.55        80.39123
812.96         80.7254
813.37        81.12222
813.78        81.50596
814.19        81.95439
814.60        82.23244
815.01        81.96203
815.42        81.11768
815.83        79.77457
816.24        78.42558
816.65        77.94211
817.05        78.58029
817.46         80.0694
817.87        81.77589
818.28        82.55379
818.69        82.08679
819.10        80.65647
819.51        78.97165
819.92        78.23767
820.33        78.76587
820.74        80.18504
821.14        81.80304
821.55        82.39816
821.96        81.71275
822.37        80.18033
822.78        78.45576
823.19        77.49632
823.60        77.55852
824.00        78.39978
824.41        79.55665
824.82        80.34106
825.23        80.46416
825.64        80.16166
826.04        79.68742
826.45        79.40977
826.86        79.42877
827.27        79.57649
827.68        79.74802
828.08        79.83088
828.49        79.71265
828.90         79.5195
829.31        79.25577
829.72        78.90766
830.12        78.54133
830.53        78.15231
830.94        77.89365
831.35        77.96196
831.75        78.41894
832.16        79.14191
832.57        79.99274
832.97        80.64745
833.38        80.91303
833.79        80.86701
834.20        80.64017
834.60         80.4461
835.01        80.37665
835.42        80.35622
835.82        80.31818
836.23        80.07394
836.64        79.63925
837.04         79.1218
837.45        78.64702
837.86          78.406
838.26        78.45057
838.67        78.66893
839.08         79.0097
839.48        79.36236
839.89        79.62919
840.29        79.85432
840.70        79.94383
841.11        79.74346
841.51        79.26317
841.92        78.52254
842.33        77.78239
842.73        77.48936
843.14        77.70072
843.54        78.33257
843.95        79.02789
844.35        79.24709
844.76        78.84824
845.17        78.03502
845.57        77.11721
845.98        76.57091
846.38        76.52234
846.79        76.79586
847.19        77.26585
847.60        77.61834
848.00        77.77161
848.41        77.79247
848.81        77.74492
849.22        77.64375
849.62        77.56178
850.03        77.47559
850.43        77.44538
850.84        77.50822
851.24         77.7151
851.65         77.8808
852.05        78.14628
852.46        78.54977
852.86        79.07349
853.27         79.7352
853.67        80.03693
854.07        79.33616
854.48        77.67856
854.88        75.30583
855.29        73.06281
855.69        72.17153
856.10        72.86627
856.50        74.99231
856.90        77.80658
857.31        79.56419
857.71        79.68548
858.12        78.58141
858.52        77.01746
858.92        76.02302
859.33        75.83492
859.73        76.17043
860.13        76.84866
860.54        77.49937
860.94        78.02612
861.34        78.53186
861.75        78.98598
862.15        79.41167
862.55        79.76974
862.96        79.98724
863.36        80.11111
863.76        80.21104
864.17        80.30347
864.57        80.43388
864.97         80.5578
865.38         80.5877
865.78        80.56474
866.18        80.45103
866.58        80.35741
866.99        80.45558
867.39        80.83716
867.79        81.48331
868.19          82.104
868.60        82.14815
869.00        81.50523
869.40         80.3381
869.80        79.28679
870.21        79.34298
870.61        80.79667
871.01        83.32914
871.41        86.14205
871.81        87.86916
872.22         88.1254
872.62        87.29945
873.02        86.10894
873.42        85.83692
873.82        86.63397
874.22        87.86681
874.63        89.16396
875.03        89.76286
875.43        89.28686
875.83        88.75066
876.23        87.28242
876.63        86.73949
877.03         87.1584
877.44        88.70131
877.84        102.5135
878.24        95.42843
878.64         95.8409
879.04        95.40855
879.44        92.58548
879.84         90.9743
880.24        93.26572
880.64        94.48162
881.04        94.99126
881.44        95.11784
881.84        94.53483
882.24        93.44611
882.65        92.58457
883.05        92.66501
883.45        93.81879
883.85        96.00214
884.25        98.46349
884.65         99.7119
885.05        99.31609
885.45        97.78255
885.85        96.00983
886.25        95.24311
886.65        95.73377
887.05        97.06873
887.45        98.72108
887.85         99.7439
888.25        99.78725
888.65        99.18808
889.04        98.20291
889.44        97.26174
889.84        96.53065
890.24        95.87021
890.64        95.35252
891.04        95.11023
891.44         95.1347
891.84        95.43604
892.24        95.84882
892.64        96.01563
893.04        95.89262
893.44        95.65295
893.83        95.46014
894.23         95.5928
894.63        96.09637
895.03        96.79198
895.43        97.76844
895.83        99.16733
896.23        100.8651
896.63        102.7605
897.02        104.1918
897.42        104.0992
897.82        102.3937
898.22        99.54153
898.62        96.50058
899.01        94.66423
899.41        94.38334
899.81        95.17955
900.21        96.60228
900.61        97.88904
901.00        98.70898
901.40        99.30086
901.80        99.56694
902.20        99.34691
902.59        98.68509
902.99        97.56506
903.39        96.35339
903.79        95.73985
904.18        95.91634
904.58        96.75869
904.98        97.90007
905.38        98.73785
905.77        99.06345
906.17        99.01009
906.57        98.77747
906.96        98.72034
907.36        98.85234
907.76        99.06991
908.15        99.11993
908.55        98.50041
908.95        97.21237
909.34        95.44824
909.74        93.75143
910.14        92.76011
910.53        92.67777
910.93        93.38137
911.33        94.57706
911.72        95.71051
912.12        96.45078
912.52        96.84441
912.91        97.09921
913.31        97.54012
913.70        98.28772
914.10        99.26067
914.49        100.0666
914.89         99.7141
915.29        98.04305
915.68        95.50036
916.08        93.26396
916.47        92.37883
916.87        92.92301
917.26        94.55267
917.66        96.40725
918.05        97.08979
918.45        96.24274
918.84        94.37112
919.24        92.35945
919.64        91.49265
920.03        92.11681
920.42        93.81275
920.82        95.97997
921.21        97.70995
921.61         98.4598
922.00         98.5181
922.40        98.05183
922.79        97.28043
923.19        96.37911
923.58        95.25311
923.98        93.92475
924.37        92.75391
924.77        92.13634
925.16        90.38459
925.55        90.92504
925.95        91.65473
926.34        93.52499
926.74        96.04504
927.13        98.48607
927.52        99.42133
927.92        98.66186
928.31        96.64587
928.70        94.06795
929.10        92.12215
929.49         91.1459
929.89        90.85098
930.28        91.19052
930.67        92.07643
931.07          93.245
931.46        94.79814
931.85        96.18169
932.24        96.56284
932.64          95.829
933.03        94.07098
933.42        91.73995
933.82        89.97062
934.21        89.11127
934.60        88.93961
934.99        89.09285
935.39        89.19155
935.78        89.18998
936.17        88.97433
936.56         88.2518
936.96        88.90421
937.35        87.49078
937.74        86.92355
938.13        86.65002
938.53        87.34619
938.92        89.03472
939.31        91.71396
939.70        94.65162
940.09        95.77516
940.49        94.39193
940.88        91.35622
941.27        88.15491
941.66        86.53741
942.05        86.73727
942.44        88.19386
942.84        90.27004
943.23        91.92397
943.62        92.63045
944.01        92.66603
944.40        92.26189
944.79        91.75835
945.18        91.26962
945.57        90.63416
945.97        89.67853
946.36        88.29903
946.75        86.76455
947.14        85.40694
947.53          84.569
947.92        84.45494
948.31        85.00243
948.70        86.17509
949.09        87.64797
949.48        88.62269
949.87        88.71883
950.26        88.04031
950.65        87.12229
951.04        86.85072
951.43         87.4107
951.82        88.53696
952.21        89.61432
952.60        89.65514
952.99        88.46663
953.38        86.43633
953.77        84.29156
954.16        83.05401
954.55        82.95977
954.94        83.76339
955.33        84.84571
955.72        85.16901
956.11        84.46905
956.50        83.01997
956.89        81.58364
957.28        81.53551
957.66        83.28968
958.05         86.1377
958.44        89.08451
958.83        90.67876
959.22        90.56607
959.61        89.15007
960.00        87.11061
960.39        85.55642
960.78        84.85802
961.16        84.75874
961.55         84.8228
961.94        84.32552
962.33        83.13948
962.72        81.64551
963.11        80.34323
963.49        79.83375
963.88        80.20103
964.27         81.2668
964.66        82.63879
965.04        83.50061
965.43        83.41319
965.82         82.6681
966.21        81.73659
966.60        81.24171
966.98        81.32568
967.37        81.75717
967.76        82.27259
968.15        82.37865
968.53        81.94007
968.92        81.12166
969.31        80.26054
969.69        79.75193
970.08        79.68233
970.47        79.96442
970.86        80.30917
971.24        80.21764
971.63        79.55834
972.02         78.4663
972.40         77.4403
972.79        77.34794
973.17        78.52474
973.56        80.60461
973.95        82.94522
974.33        84.26928
974.72        84.07934
975.11        82.78254
975.49        81.09708
975.88        80.04422
976.26        79.79403
976.65        80.09067
977.04         80.4616
977.42        79.85609
977.81        78.02518
978.19        75.51243
978.58        73.59898
978.96        73.42801
979.35        75.13881
979.74        78.50347
980.12        82.89839
980.51        85.76884
980.89        86.35658
981.28        85.22701
981.66        83.43413
982.05        82.37665
982.43        82.31542
982.82        82.78249
983.20        83.71266
983.59         85.1235
983.97        87.03662
984.35        89.58442
984.74        92.12287
985.12        93.48071
985.51         92.7927
985.89        90.16138
986.28        86.38551
986.66          82.844
987.04        80.39657
987.43        79.02703
987.81         78.1178
988.20         76.6776
988.58        74.23842
988.96        70.35124
989.35        65.73739
989.73        64.52317
990.12        69.16628
990.50        77.60554
990.88         84.6235
991.27        86.44601
991.65        83.66753
992.03        77.44995
992.42        70.34402
992.80        67.07717
993.18        68.99509
993.56        73.58494
993.95        78.54998
994.33        81.83494
994.71        82.96042
995.10        83.03674
995.48        82.11075
995.86         79.9419
996.24        76.61088
996.63        71.73248
997.01        66.49459
997.39        64.60716
997.77        67.60632
998.15        74.64095
998.54        82.28267
998.92        85.85981
999.30        83.98705
999.68        77.83269
1000.06        69.07883
1000.45        62.09567
1000.83        58.94176
1001.21        58.37441
1001.59        59.59114
1001.97        61.74959
1002.35        64.51205
1002.73         68.7228
1003.12        73.31469
1003.50        74.48262
1003.88        70.61854
1004.26        63.51329
1004.64        56.66368
1005.02        53.06703
1005.40        52.93169
1005.78        55.95902
1006.16        62.92665
1006.54        71.26473
1006.92        75.99497
1007.30        77.10652
1007.69        76.61933
1008.07        76.46938
1008.45        77.00433
1008.83        78.04832
1009.21        78.34664
1009.59        68.39594
1009.97        18.79146
1010.35       -77.75231
1010.73       -86.86433
1011.11       -35.88361
1011.49        7.493247
1011.86        39.72503
1012.24        58.14795
1012.62        65.16666
1013.00         64.8257
1013.38        58.94159
1013.76        49.65397
1014.14        45.87396
1014.52          55.723
1014.90        81.53541
1015.28         115.986
1015.66        134.6373
1016.04        122.6912
1016.41        85.54489
1016.79        45.61641
1017.17        26.34524
1017.55        25.75638
1017.93        32.00236
1018.31        38.94208
1018.69        43.58492
1019.06        46.10774
1019.44        47.14477
1019.82        47.94238
1020.20        51.31627
1020.58        60.75135
1020.95        81.95648
1021.33        115.8917
1021.71       -30.22203
1022.09        114.9185
1022.46        132.5925
1022.84        144.2441
1023.22        158.4928
1023.60        190.5181
1023.97        495.1634
1024.35       -18.74637
1024.73        39.99622
