SpectraSmart Spectrum 2.9.0.0
--------- Device Information -----------
Spectrum Name :  反射率_0
Saving Time :  2024/04/26 01:22:10
Spectro-Module Model Name : SE2030-DUVN
Spectro-Module Serial Number : OS361AC55029948
Wavelength Start : 200
Wavelength End : 1025
Wavelength Unit : Wavelength(nm)
Spectrum Unit : Reflectance(%)
-----------Spectrum Setting ------------
Integration Time : 20ms
Average : 10
Boxcar : 0
Background removal :  enabled
linearity correction :  enabled
SC :  disabled
Intensity correction :  disabled
DWT denoise :  enabled
savitzky-golay :  disabled
FFT :  disabled
Running average :  disabled
Kalman :  disabled
High pass :  disabled
---------------BEGIN--------------------
Wavelength(nm)             Reflectance(%)
200.29               0
200.75         99.4989
201.21        90.33553
201.67        80.30168
202.13        75.10832
202.58        75.40337
203.04        79.88163
203.50        85.76408
203.96        88.31896
204.42        86.60426
204.88        82.53629
205.34        78.86028
205.80         78.4401
206.26         82.4297
206.72        93.32806
207.18        115.0976
207.64         132.382
208.10        116.4676
208.55        88.81024
209.01        72.51792
209.47         68.3364
209.93        71.40567
210.39        79.34257
210.85        88.92034
211.31        92.84573
211.77        88.50285
212.23        78.67062
212.69        68.25995
213.14        64.79699
213.60        69.59225
214.06        80.29816
214.52        92.52859
214.98        99.65025
215.44        99.86504
215.90        95.40092
216.36        88.99088
216.81        84.29004
217.27        82.55477
217.73        82.49755
218.19        82.24001
218.65        79.20284
219.11        72.26365
219.57        60.65883
220.02        45.81216
220.48        36.57763
220.94        38.25088
221.40        48.68056
221.86         59.3552
222.32        61.25059
222.77        55.09625
223.23         45.6604
223.69         37.5418
224.15        35.42904
224.61        38.80915
225.06        45.26456
225.52        51.61182
225.98        53.91664
226.44        51.53259
226.90        46.33267
227.36        40.43376
227.81         36.6055
228.27        35.80642
228.73         36.8462
229.19        39.03548
229.65        41.35592
230.10        43.24265
230.56         44.9187
231.02        46.16785
231.48        46.69165
231.93        46.55302
232.39        45.85687
232.85        44.92939
233.31        44.36617
233.77        44.30418
234.22        44.60217
234.68        45.03314
235.14        45.07016
235.60        44.57999
236.05         43.8107
236.51        43.02974
236.97        42.52474
237.43        42.43603
237.88        42.82738
238.34        43.73972
238.80        45.25565
239.26        47.27024
239.71        49.72102
240.17        52.41908
240.63        55.59318
241.08        59.19656
241.54        62.82471
242.00        66.15076
242.46        69.15882
242.91        72.67996
243.37         78.3142
243.83        93.20399
244.28        140.8367
244.74        195.3918
245.20        165.8616
245.66        138.9694
246.11        132.7415
246.57        139.7605
247.03        167.2779
247.48        251.7946
247.94        220.3849
248.40        132.7781
248.85        104.5853
249.31        95.57157
249.77         93.2313
250.22        94.03632
250.68        97.23553
251.14        102.2862
251.59        104.8219
252.05        101.1639
252.51        93.71446
252.96        86.03986
253.42        81.61921
253.88        79.83566
254.33        79.37539
254.79        80.23226
255.25        81.83994
255.70        83.56623
256.16        85.51505
256.62        86.45173
257.07        85.10429
257.53        82.08308
257.99        77.61042
258.44        72.97678
258.90        70.62334
259.35        69.71944
259.81        69.52033
260.27        68.39121
260.72        64.72871
261.18        59.34009
261.63        53.01887
262.09        47.38779
262.55        43.68744
263.00        41.84464
263.46        41.25833
263.91         40.9786
264.37        40.24733
264.83        38.87567
265.28        37.03594
265.74        35.27402
266.19        34.16197
266.65        33.87409
267.11        34.05291
267.56        34.19135
268.02        33.68795
268.47        32.44493
268.93        30.67926
269.38        28.74881
269.84        27.49522
270.30        27.13769
270.75        27.44198
271.21        27.93715
271.66        27.91555
272.12        27.20385
272.57        26.04334
273.03        24.82214
273.48        24.04367
273.94        23.84068
274.39          23.978
274.85         24.1927
275.31        24.10726
275.76        23.62493
276.22        22.91507
276.67        22.11545
277.13        21.49819
277.58         21.0874
278.04        20.81478
278.49        20.56421
278.95        20.22188
279.40         19.7404
279.86        19.21883
280.31         18.6791
280.77         18.2455
281.22        17.90973
281.68          17.649
282.13        17.44032
282.59        17.27404
283.04        17.13491
283.50        17.05004
283.95        16.95663
284.41        16.77012
284.86        16.47779
285.32        16.10671
285.77        15.77496
286.22        15.71308
286.68        15.92299
287.13        16.31116
287.59         16.6583
288.04        16.64007
288.50        16.22905
288.95         15.5373
289.41        14.80259
289.86        14.28956
290.32        14.10943
290.77        14.15674
291.22        14.35871
291.68         14.5697
292.13        14.74757
292.59        14.93605
293.04        15.15535
293.50        15.43317
293.95        15.76149
294.40        16.08842
294.86        16.38453
295.31        16.62737
295.77        16.81454
296.22        16.96913
296.68        17.08609
297.13        17.12449
297.58        17.11694
298.04        17.10801
298.49        17.19173
298.95        17.53901
299.40        18.16607
299.85        19.00788
300.31        19.94518
300.76        20.79862
301.21        21.48904
301.67         22.0794
302.12        22.56493
302.58        22.98752
303.03         23.3695
303.48        23.71833
303.94        24.14814
304.39         24.8033
304.84        25.71317
305.30        26.83726
305.75        28.02586
306.20        29.04256
306.66        29.85614
307.11        30.52589
307.57        31.20791
308.02        32.07261
308.47        33.19782
308.93        34.52588
309.38        35.98502
309.83        37.48812
310.29        38.97836
310.74        40.45663
311.19        41.92445
311.65        43.39579
312.10        44.87775
312.55        46.37005
313.00        47.82283
313.46        49.15367
313.91        50.32698
314.36        51.37107
314.82         52.4119
315.27        53.63357
315.72        55.09898
316.18        56.75255
316.63         58.4628
317.08        59.96716
317.53        61.17351
317.99        62.12663
318.44        62.96568
318.89        63.93639
319.35        65.08527
319.80        66.35818
320.25         67.5519
320.70        68.32603
321.16        68.61053
321.61        68.52804
322.06        68.33879
322.51        68.45148
322.97        68.95712
323.42          69.771
323.87        70.69112
324.32        71.35965
324.78        71.65919
325.23        71.72889
325.68        71.69798
326.13        71.79893
326.59        72.08923
327.04        72.51408
327.49        73.00917
327.94        73.49901
328.39        73.94715
328.85        74.36917
329.30        74.79511
329.75        75.13556
330.20        75.39381
330.66        75.57761
331.11        75.80349
331.56        76.19812
332.01        76.80396
332.46        77.56757
332.92        78.41548
333.37        79.35125
333.82        80.26398
334.27         81.1606
334.72        81.90347
335.17         82.2799
335.63        82.26701
336.08        81.96349
336.53        81.61855
336.98        81.67123
337.43        82.23363
337.88        83.19471
338.34         84.3241
338.79        85.31197
339.24        86.00862
339.69        86.51173
340.14        86.88476
340.59        87.23792
341.05        87.61342
341.50        87.93948
341.95        88.23413
342.40        88.56426
342.85        88.95054
343.30        89.40414
343.75        89.86372
344.20        90.20242
344.66        90.39854
345.11        90.46237
345.56        90.48367
346.01         90.5995
346.46        90.84425
346.91        91.18507
347.36        91.53153
347.81        91.74404
348.26        91.80204
348.72        91.76989
349.17        91.73616
349.62        91.89761
350.07        92.28645
350.52        92.82506
350.97        93.37752
351.42        93.74596
351.87         93.8802
352.32        93.83734
352.77        93.70269
353.22        93.61214
353.67        93.60811
354.13        93.66648
354.58        93.70849
355.03        93.66753
355.48        93.52537
355.93        93.30927
356.38        93.07478
356.83        92.90385
357.28         92.8054
357.73        92.74373
358.18        92.64244
358.63         92.3836
359.08        91.95203
359.53        91.40379
359.98        90.81138
360.43         90.2868
360.88        89.85716
361.33        89.47177
361.78        89.12618
362.23        88.81264
362.68        88.51692
363.13        88.26169
363.58         87.9561
364.03        87.44959
364.48        86.73453
364.93        85.85764
365.38        85.00361
365.83        84.47771
366.28        84.33129
366.73         84.4513
367.18        84.63412
367.63        84.54239
368.08        84.09084
368.53        83.41143
368.98        82.61182
369.43        81.85049
369.88        81.19614
370.33        80.59463
370.78        80.11297
371.23        79.86995
371.68        79.86756
372.13        80.07605
372.58        80.33301
373.03        80.34908
373.48        80.05327
373.93        79.53101
374.38        78.92264
374.83        78.45232
375.28         78.1818
375.72        78.02738
376.17        77.95802
376.62        77.89725
377.07        77.80067
377.52        77.68024
377.97        77.50635
378.42        77.22578
378.87        76.84274
379.32        76.39311
379.77        75.89626
380.22        75.37974
380.67        74.85665
381.11        74.31661
381.56        73.83221
382.01        73.52489
382.46        73.41905
382.91        73.50182
383.36        73.60677
383.81        73.46523
384.26        73.03151
384.71        72.37403
385.15        71.71259
385.60        71.44839
386.05        71.59677
386.50        72.02046
386.95        72.43234
387.40        72.35195
387.85        71.71771
388.29        70.73287
388.74        69.77071
389.19         69.0727
389.64        68.69492
390.09        68.51168
390.54        68.52982
390.98         68.7589
391.43        69.13985
391.88        69.63407
392.33        70.03414
392.78        69.97437
393.23        69.44228
393.67        68.70235
394.12        68.05025
394.57         67.3583
395.02        66.86003
395.47        67.22668
395.91         68.2873
396.36        68.90464
396.81        68.91593
397.26        68.86061
397.71        68.77592
398.15        68.43763
398.60         67.9692
399.05        67.46783
399.50         66.9992
399.95        66.39658
400.39        66.01775
400.84        65.80881
401.29         65.8171
401.74        65.85286
402.18        65.88451
402.63        65.88341
403.08        65.93506
403.53        66.18219
403.97        66.61088
404.42        67.11671
404.87        67.49666
405.32        67.39217
405.76        66.74554
406.21        65.88843
406.66        65.06474
407.11        64.33273
407.55        63.94881
408.00        64.44585
408.45        65.57695
408.90         66.2804
409.34        66.24157
409.79        65.68569
410.24        64.91066
410.68        64.46628
411.13        64.46952
411.58        64.60251
412.03        64.81131
412.47        65.14462
412.92        65.50667
413.37        65.90704
413.81        66.24255
414.26         66.3951
414.71        66.32777
415.15        66.05695
415.60        65.69738
416.05        65.46489
416.49        65.42288
416.94        65.53605
417.39          65.669
417.83        65.57175
418.28         65.2151
418.73        64.69881
419.17        64.23194
419.62        64.14765
420.07        64.46565
420.51        65.05861
420.96        65.70248
421.41        65.96468
421.85        65.71947
422.30        65.37006
422.74        64.97477
423.19        64.35065
423.64        63.70265
424.08        63.85704
424.53        64.69808
424.98        65.22784
425.42        65.32628
425.87        65.72993
426.31        66.35043
426.76        66.33115
427.21        65.87758
427.65         66.0731
428.10         66.8847
428.54        67.58044
428.99        68.11092
429.44        68.46741
429.88        68.62543
430.33         69.2967
430.77        69.91956
431.22        68.81671
431.66         66.4881
432.11        65.02306
432.56        64.79525
433.00         65.5441
433.45        67.12341
433.89        69.01231
434.34        69.79391
434.78        71.07291
435.23        67.54077
435.67        65.52756
436.12        67.68618
436.57        68.89812
437.01        69.86162
437.46        70.21054
437.90        70.04381
438.35        69.88996
438.79        70.00249
439.24          69.996
439.68        69.97126
440.13        69.87379
440.57        69.91209
441.02        70.83319
441.46        72.24236
441.91        72.87121
442.35        72.56145
442.80        71.65672
443.24        70.59637
443.69        71.08889
444.13         72.7578
444.58        73.06486
445.02        71.69317
445.47        71.45536
445.91         72.2151
446.36        72.45236
446.80        72.12859
447.24        72.07043
447.69        72.31829
448.13        72.48732
448.58        72.63594
449.02        73.05819
449.47        73.65161
449.91        74.01475
450.36        74.10046
450.80        74.08814
451.25         74.0127
451.69        73.82803
452.13        73.58109
452.58        73.29417
453.02        73.04263
453.47        72.98385
453.91        73.12366
454.36        73.42385
454.80        73.75306
455.24        73.82851
455.69        73.61179
456.13        73.23431
456.58        72.87109
457.02        72.50774
457.46        72.30516
457.91        72.55829
458.35        73.06826
458.79        73.24346
459.24        73.03925
459.68        72.70236
460.13        72.34696
460.57        72.01286
461.01        71.79162
461.46        71.55653
461.90        71.22799
462.34        71.54109
462.79        70.95555
463.23        71.16228
463.68        71.59687
464.12        71.86427
464.56        71.89319
465.01        71.88185
465.45        71.74479
465.89        71.69316
466.34        71.55859
466.78        70.47852
467.22        69.07954
467.67        68.29417
468.11        69.90165
468.55        70.73747
468.99        70.91928
469.44        70.61057
469.88        69.99972
470.32        69.79641
470.77        69.99362
471.21        69.88407
471.65        69.47089
472.10        69.36951
472.54        69.55566
472.98        69.69745
473.42        69.76059
473.87        69.86589
474.31        69.95628
474.75        69.96089
475.20        69.88077
475.64         69.7156
476.08        69.55908
476.52         69.3903
476.97        69.18488
477.41        69.36303
477.85        69.68788
478.29         69.1534
478.74        69.59898
479.18        69.90909
479.62        68.59758
480.06        69.14296
480.50        69.43765
480.95        69.92529
481.39        70.15148
481.83        68.84897
482.27         69.4398
482.72        68.82781
483.16        67.65897
483.60        67.86369
484.04        69.32203
484.48        69.78288
484.93        69.66728
485.37        71.06645
485.81        71.50559
486.25        70.10434
486.69         95.5285
487.14         77.0327
487.58        47.74771
488.02        58.90529
488.46        66.79971
488.90           66.43
489.34        67.80663
489.79         67.4943
490.23         69.2172
490.67        70.04492
491.11        68.99886
491.55        68.93072
491.99        69.42101
492.43        69.23981
492.88        68.49805
493.32        68.47839
493.76        68.70423
494.20         69.0021
494.64         69.1105
495.08        69.37769
495.52        69.78085
495.96        69.60104
496.41         68.9606
496.85        69.53114
497.29        70.91088
497.73         69.8559
498.17        67.38924
498.61        67.40404
499.05        69.93355
499.49        70.47704
499.93          70.491
500.37        70.12267
500.82        69.34718
501.26        69.42122
501.70        70.05697
502.14        70.30551
502.58        70.02299
503.02        69.83085
503.46         69.7386
503.90        69.38553
504.34        68.89701
504.78        68.67493
505.22        68.77886
505.66        69.00303
506.10        69.24377
506.54        69.56914
506.98        69.80337
507.42         69.4571
507.86        68.74725
508.30        68.47605
508.74        68.74699
509.18        69.13859
509.62        69.49016
510.06         69.6848
510.50        69.66004
510.94        69.46715
511.38        69.22973
511.82        69.13573
512.26        69.23464
512.70        69.46462
513.14        69.74229
513.58        69.93372
514.02        69.99079
514.46        69.95274
514.90        69.87031
515.34        69.80186
515.78        69.76077
516.22        69.79551
516.66        69.87006
517.10        69.75612
517.54        69.44108
517.98         69.5749
518.42        69.34607
518.86        69.46487
519.30        69.66958
519.74        70.04198
520.18        70.44864
520.62         70.5536
521.06        70.37362
521.50        70.22916
521.93        70.16863
522.37        70.03941
522.81        69.87773
523.25         69.8113
523.69        69.84516
524.13        69.91684
524.57        70.01704
525.01        70.16097
525.45        70.32742
525.89        70.47849
526.32        70.58736
526.76        70.64744
527.20        70.64795
527.64         70.5982
528.08        70.52454
528.52        70.37888
528.96        70.14957
529.40        70.01706
529.83        70.03069
530.27        69.42825
530.71        69.62803
531.15        69.59603
531.59        69.74574
532.03         70.0087
532.46        70.33224
532.90        70.59417
533.34        70.73918
533.78        70.79865
534.22        70.78016
534.66        70.70758
535.09        70.58705
535.53        70.43983
535.97        70.27966
536.41        70.15131
536.85        70.07153
537.28        70.03777
537.72        70.03743
538.16        70.05765
538.60        70.08868
539.04        70.07584
539.47        70.01518
539.91        70.09006
540.35         70.2243
540.79        70.12783
541.22        69.84594
541.66        69.73372
542.10        69.80376
542.54        69.85462
542.97        69.88074
543.41        69.98148
543.85        70.13698
544.29        70.34477
544.72        70.49181
545.16        70.42194
545.60        70.10771
546.04        69.62333
546.47        69.17507
546.91        69.02817
547.35        69.26461
547.79        69.98441
548.22         70.8284
548.66        71.03298
549.10         70.5142
549.53        69.66264
549.97        68.84511
550.41          68.418
550.84         68.4899
551.28        69.01261
551.72         69.7596
552.15        70.15005
552.59        70.02757
553.03         70.1881
553.46         69.6483
553.90         69.5259
554.34        69.56532
554.77        69.65923
555.21        69.75302
555.65        69.78459
556.08        70.12915
556.52         69.6154
556.96        69.97612
557.39        69.86496
557.83        69.79824
558.27        69.71916
558.70        69.68904
559.14        69.79489
559.57        70.00049
560.01        70.28831
560.45        70.55368
560.88        70.58868
561.32        70.39231
561.75         70.1314
562.19        69.89142
562.63        69.39098
563.06         68.8271
563.50        68.93123
563.93        69.55119
564.37        69.87885
564.80         69.7989
565.24        69.70277
565.68        69.63908
566.11         69.5844
566.55        69.60114
566.98        69.61971
567.42         69.6424
567.85        69.73567
568.29        69.92146
568.72        69.91259
569.16        69.88512
569.60        70.24252
570.03         70.6352
570.47        70.54256
570.90        70.28841
571.34         68.5472
571.77        69.47662
572.21        69.82331
572.64        69.02583
573.08        68.37436
573.51        65.26144
573.95        67.81627
574.38        72.04671
574.82        70.20294
575.25         69.8088
575.69        67.63373
576.12        66.37282
576.56        65.56091
576.99        67.15987
577.42        70.29233
577.86        70.22998
578.29        69.38453
578.73         73.4127
579.16        67.58542
579.60        61.71674
580.03        64.45248
580.47        68.70188
580.90        70.22051
581.33        69.00674
581.77        68.08869
582.20        74.68164
582.64        74.42374
583.07        63.69085
583.51        62.28211
583.94        61.18385
584.37        64.00613
584.81        67.55123
585.24         71.1207
585.68        72.53394
586.11        71.08808
586.54        66.36535
586.98        64.34162
587.41        65.08972
587.85         68.4995
588.28        70.79373
588.71        67.51673
589.15        65.06858
589.58        66.92066
590.01        67.12935
590.45        67.99848
590.88        68.77275
591.31        68.07936
591.75        67.76005
592.18        67.72546
592.61        68.93193
593.05        69.52882
593.48        72.61253
593.91        73.17258
594.35        67.32938
594.78        65.92853
595.21        65.47643
595.65          68.403
596.08        71.14151
596.51        67.98638
596.94        66.27406
597.38        66.87305
597.81        69.58777
598.24        71.16035
598.68         69.8321
599.11        68.67001
599.54        71.57941
599.97        72.87172
600.41        67.99771
600.84        68.08747
601.27        69.42995
601.70        68.35947
602.14        68.34897
602.57        67.38271
603.00        67.95859
603.43        69.51169
603.87        70.83292
604.30        70.61824
604.73        68.68495
605.16        67.52425
605.60        67.90162
606.03        68.98251
606.46        70.32483
606.89        69.66299
607.32        67.81533
607.76        67.39365
608.19        69.81931
608.62        68.96626
609.05        67.85192
609.48        68.31711
609.92        68.08455
610.35        67.84581
610.78        69.99789
611.21        70.65096
611.64        67.53895
612.07        68.21782
612.50         68.5911
612.94        69.02402
613.37        68.50325
613.80        68.48286
614.23        69.00974
614.66         68.8777
615.09        69.08346
615.52        69.10461
615.96        69.04717
616.39        69.12894
616.82          68.178
617.25         67.8123
617.68        68.45291
618.11        69.03997
618.54        69.47984
618.97         69.0397
619.40        68.13503
619.84        67.79253
620.27        69.04417
620.70        69.60979
621.13         69.6514
621.56        69.07366
621.99        68.19194
622.42        69.07815
622.85        71.20053
623.28        70.74009
623.71        69.98285
624.14        70.12485
624.57        69.57222
625.00        69.36975
625.43        69.61591
625.86        69.05157
626.29        69.11708
626.72        69.95049
627.15         69.4083
627.58        69.54397
628.01        69.62113
628.44        69.72337
628.87        69.85658
629.30        70.07598
629.73        70.27437
630.16        70.52839
630.59        70.12486
631.02        69.76696
631.45        69.37202
631.88        69.10562
632.31        69.01398
632.74        69.06205
633.17        69.19828
633.60        69.31157
634.03        69.36354
634.46        69.38688
634.89         69.3821
635.32        69.35201
635.75        69.30555
636.18        69.22221
636.61        69.15067
637.04         69.1273
637.47        69.16802
637.89        69.26971
638.32        69.37891
638.75           69.45
639.18        69.46378
639.61        69.43463
640.04        69.37621
640.47        69.31198
640.90        69.25646
641.33        69.20052
641.76         69.1257
642.18        69.10343
642.61        69.13564
643.04        69.05164
643.47        68.82427
643.90        69.30134
644.33        69.05253
644.76        69.22603
645.18        69.35328
645.61        69.38332
646.04        69.28645
646.47        69.07388
646.90        68.86099
647.33        68.78575
647.75        68.89464
648.18        69.18406
648.61        69.45478
649.04        69.38651
649.47        68.94979
649.89        68.16265
650.32        67.40005
650.75        67.35152
651.18        67.99202
651.61         68.6767
652.03         69.0867
652.46        69.18468
652.89         69.2233
653.32        68.70023
653.74        67.97227
654.17          69.067
654.60        69.76505
655.03        67.33045
655.46        68.33996
655.88         72.5014
656.31        76.62209
656.74        171.8556
657.16        111.5718
657.59        39.35896
658.02        29.76972
658.45        51.60171
658.87        65.88302
659.30        69.33545
659.73        68.58548
660.15        66.18552
660.58        68.45858
661.01        70.10793
661.44        67.96435
661.86        67.23813
662.29        67.15893
662.72        67.83688
663.14        69.03574
663.57         68.9604
664.00        67.87691
664.42        67.71005
664.85        68.52779
665.27        69.08762
665.70        69.15332
666.13        69.05558
666.55        68.76874
666.98        68.19894
667.41        67.56104
667.83        67.26166
668.26        67.38744
668.69        67.78189
669.11        68.21568
669.54        68.62086
669.96        68.26667
670.39        67.88141
670.82        67.44965
671.24        67.06912
671.67        66.94566
672.09        67.42734
672.52        68.19012
672.94        68.80515
673.37        68.06251
673.80        67.82972
674.22        67.85249
674.65        67.81173
675.07        67.70575
675.50        67.57337
675.92        67.46214
676.35        67.47949
676.77        67.63361
677.20        67.81355
677.62        67.98077
678.05        68.08128
678.47        68.08505
678.90        68.02035
679.32        67.92645
679.75        67.74226
680.17        67.75439
680.60        67.73528
681.02        67.71778
681.45        67.60435
681.87        67.39829
682.30        67.12962
682.72         66.8984
683.15        66.88245
683.57        67.12284
684.00        67.45892
684.42         67.9343
684.85        68.20737
685.27        68.26206
685.70        68.16182
686.12        67.97068
686.54        67.84354
686.97        67.81054
687.39        67.83903
687.82        67.87746
688.24        67.89693
688.66        67.86458
689.09        67.80425
689.51        67.75051
689.94        67.72968
690.36        67.76017
690.78        67.81355
691.21         67.8628
691.63        67.91248
692.06         67.9379
692.48        67.86466
692.90        67.75888
693.33        67.78773
693.75        67.97095
694.17        68.23779
694.60        68.50451
695.02        68.65872
695.44        68.63536
695.87        68.57618
696.29        68.56411
696.71        68.33075
697.14        68.03265
697.56        68.51654
697.98        69.51569
698.41        69.31682
698.83        68.62942
699.25        68.15293
699.68         68.1684
700.10        68.08153
700.52        67.91855
700.94        68.02511
701.37         68.3411
701.79        68.66905
702.21        68.92434
702.64          69.169
703.06        69.32561
703.48        69.26086
703.90        68.97936
704.33        68.52347
704.75         68.0251
705.17        67.78592
705.59        67.88168
706.01        68.11806
706.44        68.35736
706.86        68.96324
707.28        68.95233
707.70        69.08369
708.12        69.09003
708.55        68.98949
708.97        68.77958
709.39         68.4649
709.81        68.15397
710.23        68.02643
710.66        68.12639
711.08        68.43471
711.50        68.78579
711.92        68.92389
712.34         68.7901
712.76         68.4475
713.19         68.0637
713.61        67.94278
714.03        68.14116
714.45        68.56508
714.87         69.0161
715.29        69.18152
715.71        68.99352
716.13        68.55936
716.56        68.06384
716.98        67.83075
717.40         67.9362
717.82        68.27593
718.24        68.70117
718.66        68.96194
719.08        68.98234
719.50        68.84453
719.92        68.62342
720.34        68.45499
720.76        68.38857
721.19        68.26598
721.61        68.30235
722.03        68.37103
722.45        68.52174
722.87        68.74768
723.29        68.99298
723.71        69.15253
724.13        69.19485
724.55        69.13905
724.97        69.03405
725.39        68.96949
725.81        68.97091
726.23         69.0148
726.65        69.06586
727.07        69.06547
727.49        69.00539
727.91        68.91761
728.33        68.83762
728.75        68.82034
729.17        68.87791
729.59        68.98135
730.01        69.11935
730.43        69.26653
730.85        69.41289
731.27        69.59128
731.69         69.7481
732.10         69.7746
732.52        69.65417
732.94        69.45625
733.36        69.31348
733.78        69.29102
734.20        69.40645
734.62        69.97881
735.04        70.78365
735.46        70.62914
735.88         69.8083
736.30        70.17318
736.72        71.60433
737.13        72.13044
737.55        71.48163
737.97        71.17673
738.39        71.31727
738.81        70.57211
739.23         69.3939
739.65        70.21597
740.06        72.50893
740.48        72.81451
740.90        71.19741
741.32        70.43762
741.74        70.80895
742.16        71.00014
742.57        71.07009
742.99        71.75187
743.41         72.8158
743.83        73.46244
744.25        73.54592
744.67        73.27037
745.08        72.85943
745.50        72.67544
745.92        72.83542
746.34        73.21239
746.75        73.64646
747.17        73.86645
747.59        73.82384
748.01        73.62126
748.42        73.43915
748.84        73.52702
749.26        73.95732
749.68         74.6384
750.09        75.38515
750.51        75.90235
750.93        76.09287
751.35        75.91202
751.76        75.50277
752.18        75.35294
752.60        75.45552
753.01        75.33956
753.43        75.06866
753.85        75.15426
754.27        75.63484
754.68        76.28179
755.10        76.93449
755.52        77.48055
755.93        77.82938
756.35        77.95356
756.77        77.96567
757.18        77.93044
757.60        77.89038
758.02        78.16075
758.43        78.50611
758.85        77.85872
759.26        76.67199
759.68        76.40206
760.10        77.79981
760.51        78.31305
760.93        77.88134
761.34        77.04219
761.76        76.19398
762.18        75.78452
762.59        75.97451
763.01        76.23013
763.42        76.89236
763.84        77.42362
764.26        77.87158
764.67        78.15353
765.09        78.18411
765.50        78.04472
765.92        77.66075
766.33        76.37862
766.75        74.74278
767.16        74.30374
767.58        75.21251
768.00        76.81075
768.41        78.67912
768.83        80.00649
769.24        80.29074
769.66        79.63229
770.07        78.47105
770.49        76.94398
770.90        75.53386
771.32        76.21229
771.73          78.363
772.15        77.89713
772.56        75.26279
772.97        74.85712
773.39        76.55257
773.80        77.12257
774.22        76.33741
774.63        76.11185
775.05        76.46011
775.46        76.62929
775.88        76.55294
776.29          76.439
776.70        76.33216
777.12        76.34005
777.53         76.4903
777.95        76.68234
778.36        76.81623
778.77        76.71892
779.19        76.41269
779.60        75.97215
780.02        75.54431
780.43        75.48924
780.84         75.9275
781.26        76.17334
781.67        76.28785
782.09         77.6267
782.50        79.51486
782.91        78.75189
783.33        76.02767
783.74        75.11185
784.15         76.1823
784.57        76.81729
784.98        76.71761
785.39        76.64326
785.81        76.53535
786.22        76.04183
786.63        75.48025
787.04        75.46429
787.46        76.05215
787.87        77.05453
788.28        78.12346
788.70        78.65862
789.11        78.51191
789.52        77.88877
789.93        77.10547
790.35        76.60194
790.76        76.50647
791.17        76.74278
791.58        77.13479
792.00        77.31457
792.41        77.17657
792.82        76.91815
793.23        76.76542
793.65        76.53796
794.06        76.47678
794.47        77.74884
794.88         79.5583
795.29        79.20284
795.71          76.891
796.12        74.73479
796.53        73.40984
796.94         72.9221
797.35        73.39137
797.76           74.61
798.18        75.98911
798.59          76.912
799.00        77.02642
799.41        76.27105
799.82        75.09602
800.23        74.44037
800.64        74.50939
801.06        74.93431
801.47        75.55694
801.88        76.01781
802.29        76.17734
802.70        76.18619
803.11        76.10168
803.52        75.98452
803.93        75.88628
804.34        75.74842
804.75        75.63531
805.17        75.73994
805.58        76.11838
805.99        76.47572
806.40        76.67166
806.81        77.06995
807.22        77.32488
807.63        76.16079
808.04        74.12271
808.45        73.21741
808.86        73.64712
809.27        74.45131
809.68        75.25831
810.09        75.77898
810.50        75.81159
810.91        75.45647
811.32        74.93852
811.73        74.62581
812.14        74.61721
812.55        74.75398
812.96        74.97353
813.37        75.16594
813.78        75.27695
814.19        75.41572
814.60        75.43591
815.01        75.08853
815.42        74.36738
815.83        73.30282
816.24        72.31462
816.65        72.13998
817.05        72.97257
817.46        74.56915
817.87        76.29258
818.28        77.00477
818.69         76.4095
819.10        74.79163
819.51        72.90734
819.92        72.04614
820.33         72.5465
820.74        74.02129
821.14        75.76523
821.55        76.52416
821.96        76.00908
822.37        74.64892
822.78        73.05106
823.19         72.1053
823.60        72.05599
824.00        72.66731
824.41        73.53436
824.82        74.07774
825.23        74.06227
825.64        73.71146
826.04        73.25155
826.45         72.9939
826.86        73.01997
827.27        73.17811
827.68        73.37973
828.08        73.53008
828.49        73.52977
828.90        73.49702
829.31        73.39555
829.72        73.14761
830.12        72.79629
830.53        72.33422
830.94        71.99863
831.35        72.11385
831.75        72.76206
832.16        73.81025
832.57         74.9677
832.97        75.62759
833.38        75.54243
833.79        74.87918
834.20        74.04409
834.60        73.65882
835.01        73.89168
835.42        74.55526
835.82        75.29388
836.23        75.42424
836.64        74.82234
837.04        73.73884
837.45        72.59211
837.86        72.03413
838.26        72.23554
838.67        72.95899
839.08        73.89846
839.48        74.50433
839.89        74.55905
840.29        74.25533
840.70        73.76269
841.11        73.31738
841.51        73.01443
841.92        72.74293
842.33        72.53963
842.73        72.48971
843.14        72.56311
843.54        72.80393
843.95        73.04679
844.35        73.06551
844.76        72.79562
845.17          72.299
845.57        71.76721
845.98        71.50706
846.38        71.58465
846.79        71.90309
847.19          72.283
847.60        72.32246
848.00        71.97214
848.41         71.3449
848.81        70.72266
849.22        70.44694
849.62        70.64307
850.03        71.20904
850.43         71.9798
850.84        72.57327
851.24        72.88011
851.65        72.82802
852.05        72.69995
852.46        72.80225
852.86        73.21864
853.27        73.87811
853.67        74.26794
854.07        73.72773
854.48        72.27122
854.88        70.15406
855.29        68.16585
855.69        67.43473
856.10        68.17989
856.50        70.25864
856.90        72.95337
857.31        74.59411
857.71        74.63728
858.12        73.47752
858.52        71.90875
858.92        70.98895
859.33        70.95483
859.73        71.52125
860.13        72.43909
860.54        73.18733
860.94        73.60551
861.34        73.83588
861.75        73.95064
862.15        74.14127
862.55        74.42267
862.96        74.69449
863.36        74.93639
863.76         75.1011
864.17        75.17587
864.57        75.25394
864.97        75.35424
865.38        75.48608
865.78        75.70024
866.18        75.89474
866.58        76.12393
866.99        76.47589
867.39        76.99754
867.79        77.69918
868.19        78.25063
868.60        78.04147
869.00        76.97096
869.40        75.23605
869.80        73.63768
870.21         73.4155
870.61        74.91832
871.01        77.78606
871.41         81.0569
871.81        83.06868
872.22        83.35447
872.62        82.36723
873.02          80.963
873.42        80.69469
873.82        81.70368
874.22        83.14511
874.63        84.58896
875.03        85.14586
875.43         84.3948
875.83        83.69971
876.23        81.56864
876.63        80.36809
877.03        79.95384
877.44        80.41229
877.84        105.4205
878.24        86.96291
878.64        87.70407
879.04        88.59706
879.44        84.17454
879.84        81.99709
880.24        86.73217
880.64        88.85347
881.04        89.32117
881.44        89.32024
881.84        88.49429
882.24        86.97914
882.65        85.65777
883.05        85.27539
883.45         85.9604
883.85         87.8133
884.25        90.10323
884.65        91.22829
885.05        90.74809
885.45         89.1956
885.85        87.48907
886.25        86.90114
886.65        87.67467
887.05        89.38051
887.45        91.38638
887.85        92.56387
888.25        92.52565
888.65        91.66206
889.04        90.40428
889.44        89.46233
889.84        89.04553
890.24        88.89692
890.64        88.91862
891.04        88.98973
891.44        89.03429
891.84        89.15336
892.24         89.2278
892.64         88.9918
893.04        88.47675
893.44        87.84386
893.83        87.34103
894.23        87.35149
894.63        87.92279
895.03        88.85009
895.43        90.10816
895.83        91.61134
896.23        93.17286
896.63         94.7674
897.02        95.82095
897.42        95.44528
897.82        93.60503
898.22        90.68857
898.62        87.69289
899.01        86.06812
899.41        86.14247
899.81        87.45643
900.21        89.34612
900.61        90.70096
901.00        91.15197
901.40        91.02624
901.80        90.59811
902.20        90.30174
902.59        90.27483
902.99        90.30927
903.39        90.31233
903.79         90.1759
904.18        89.88632
904.58        89.61555
904.98        89.41016
905.38        89.30462
905.77        89.30589
906.17        89.35339
906.57        89.53554
906.96        90.04745
907.36        90.79562
907.76        91.70368
908.15        92.43967
908.55        92.34761
908.95        91.37223
909.34        89.71516
909.74        87.91161
910.14        86.62815
910.53         86.1039
910.93        86.21568
911.33        86.84118
911.72        87.73376
912.12         88.6227
912.52        89.46729
912.91        90.20553
913.31        90.78572
913.70        91.25787
914.10        91.59757
914.49        91.59866
914.89        90.84635
915.29        89.39349
915.68        87.48494
916.08        85.90881
916.47        85.29125
916.87        85.65894
917.26        86.83379
917.66        88.16581
918.05        88.61291
918.45        87.92192
918.84        86.45744
919.24        84.94781
919.64        84.45811
920.03         85.2555
920.42        86.98491
920.82        89.07616
921.21        90.66207
921.61        91.24023
922.00        91.09739
922.40         90.4159
922.79        89.46907
923.19        88.47306
923.58        87.23565
923.98        85.76957
924.37        84.77373
924.77        84.71932
925.16        82.40644
925.55        83.86046
925.95         84.7941
926.34        86.90136
926.74         89.5966
927.13        92.19313
927.52        93.29884
927.92        92.71129
928.31        90.90018
928.70        88.43721
929.10        86.32174
929.49         84.8827
929.89        83.90247
930.28        83.60324
930.67        84.34421
931.07        85.94925
931.46        88.37081
931.85        90.70346
932.24        91.57578
932.64        90.72852
933.03        88.36276
933.42        85.17118
933.82         82.7934
934.21        81.78997
934.60        81.81259
934.99        82.20763
935.39        82.33924
935.78        82.10397
936.17        81.16987
936.56        79.35577
936.96        80.86153
937.35        79.78339
937.74        80.66948
938.13        81.48997
938.53        82.42921
938.92        83.54944
939.31         84.9608
939.70        86.39486
940.09        86.90857
940.49        86.23008
940.88        84.76485
941.27        83.17409
941.66        82.23865
942.05        82.06712
942.44        82.38979
942.84        83.04174
943.23        83.82202
943.62        84.50939
944.01        85.15985
944.40        85.54561
944.79        85.29777
945.18        84.32642
945.57        82.61123
945.97        80.51054
946.36        79.02075
946.75         78.6668
947.14        79.16048
947.53        79.97954
947.92        80.54836
948.31        80.78466
948.70         80.8724
949.09        80.89204
949.48        80.98727
949.87        81.18873
950.26        81.33802
950.65        81.42822
951.04        81.50615
951.43        81.56507
951.82        81.64021
952.21        81.54942
952.60        81.00132
952.99        79.99234
953.38         78.6275
953.77        77.33357
954.16          76.719
954.55        76.89217
954.94        77.74943
955.33        78.75346
955.72        78.98216
956.11        78.23582
956.50        76.74798
956.89        75.30111
957.28        75.32912
957.66        77.25504
958.05        80.35295
958.44        83.61578
958.83        85.57514
959.22        85.83591
959.61        84.76388
960.00        82.93922
960.39        81.31536
960.78        80.23695
961.16        79.51534
961.55        78.79904
961.94        77.53467
962.33        75.71175
962.72        73.70691
963.11        72.09543
963.49        71.54447
963.88        72.13013
964.27        73.70436
964.66        75.71978
965.04        76.97685
965.43        76.91428
965.82        75.90673
966.21        74.71429
966.60        74.38837
966.98        75.12521
967.37        76.53216
967.76        78.09558
968.15        78.82223
968.53        78.39256
968.92        77.17011
969.31        75.63641
969.69        74.36263
970.08        73.51804
970.47        72.96119
970.86        72.55285
971.24         72.0724
971.63        71.47659
972.02        70.87424
972.40        70.51364
972.79        70.77625
973.17         71.8263
973.56        73.42075
973.95        75.14426
974.33        76.19672
974.72        76.19794
975.11        75.31783
975.49        74.12834
975.88         73.4889
976.26        73.53123
976.65        74.12559
977.04        74.64425
977.42        73.68421
977.81        71.01543
978.19        67.37994
978.58        64.52785
978.96        64.16998
979.35        66.52662
979.74        71.26596
980.12        77.45361
980.51        81.68961
980.89        82.72006
981.28        81.31869
981.66        78.81963
982.05        76.99373
982.43         76.2552
982.82        76.03767
983.20        76.30099
983.59        77.09433
983.97         78.4085
984.35         80.3518
984.74        82.35944
985.12         83.3261
985.51        82.51282
985.89        80.09895
986.28        76.66283
986.66        73.14845
987.04        70.37909
987.43        68.41532
987.81        67.14709
988.20         66.2577
988.58        65.50307
988.96          64.715
989.35        64.43447
989.73        66.07453
990.12        69.70972
990.50        74.21708
990.88        77.05972
991.27        76.60925
991.65         73.4782
992.03        68.22734
992.42        62.84091
992.80        60.88451
993.18        63.29276
993.56        67.97344
993.95        73.10217
994.33        77.22594
994.71        79.85886
995.10         81.7531
995.48        82.57961
995.86        81.56751
996.24        78.62579
996.63        73.52419
997.01        67.46527
997.39        64.30695
997.77        65.82249
998.15         71.2256
998.54          77.494
998.92        80.37983
999.30        78.57012
999.68        73.30689
1000.06        65.92309
1000.45        59.87946
1000.83        56.85598
1001.21         55.7487
1001.59        56.35391
1001.97        58.63039
1002.35        62.38707
1002.73        68.43144
1003.12        75.08928
1003.50        76.60395
1003.88        70.64839
1004.26        60.13585
1004.64        50.22243
1005.02        45.23417
1005.40        45.44889
1005.78        50.34962
1006.16        61.02561
1006.54         73.3287
1006.92        79.83158
1007.30        81.03925
1007.69         79.7104
1008.07        78.10661
1008.45        76.22807
1008.83        72.09286
1009.21        60.66921
1009.59        26.53798
1009.97        -57.4831
1010.35       -156.8011
1010.73       -121.9516
1011.11       -51.32112
1011.49       -5.227947
1011.86        26.25758
1012.24        43.99648
1012.62         52.2257
1013.00         55.0935
1013.38        54.22066
1013.76        52.17153
1014.14        56.66849
1014.52        73.82022
1014.90        105.2563
1015.28         142.303
1015.66        160.6543
1016.04        145.6656
1016.41         101.971
1016.79        54.17067
1017.17        28.82097
1017.55        24.81024
1017.93        29.63092
1018.31        36.09728
1018.69        40.40022
1019.06        42.46719
1019.44        42.83221
1019.82        42.95744
1020.20        46.84558
1020.58        60.21507
1020.95        93.53652
1021.33        160.5521
1021.71       -444.4286
1022.09        73.90995
1022.46        113.4422
1022.84        131.0436
1023.22         142.439
1023.60        157.5564
1023.97         274.741
1024.35        82.67297
1024.73        106.2741
