SpectraSmart Spectrum 2.9.0.0
--------- Device Information -----------
Spectrum Name :  反射率_0
Saving Time :  2024/04/26 01:36:37
Spectro-Module Model Name : SE2030-DUVN
Spectro-Module Serial Number : OS361AC55029948
Wavelength Start : 200
Wavelength End : 1025
Wavelength Unit : Wavelength(nm)
Spectrum Unit : Reflectance(%)
-----------Spectrum Setting ------------
Integration Time : 20ms
Average : 10
Boxcar : 0
Background removal :  enabled
linearity correction :  enabled
SC :  disabled
Intensity correction :  disabled
DWT denoise :  enabled
savitzky-golay :  disabled
FFT :  disabled
Running average :  disabled
Kalman :  disabled
High pass :  disabled
---------------BEGIN--------------------
Wavelength(nm)             Reflectance(%)
200.29               0
200.75        102.5378
201.21        94.03989
201.67        83.54465
202.13        76.02863
202.58         72.2517
203.04        71.13628
203.50        71.55997
203.96         71.8278
204.42        71.38444
204.88        70.81669
205.34        70.55343
205.80        71.00751
206.26        72.60105
206.72        76.40971
207.18        83.80338
207.64        90.22132
208.10        85.88502
208.55        76.44847
209.01        71.29433
209.47        71.90069
209.93        76.45026
210.39        84.30322
210.85        92.44996
211.31        93.77614
211.77        86.28187
212.23        72.88976
212.69         59.5373
213.14         55.3215
213.60        61.76387
214.06        76.08685
214.52        92.80991
214.98        103.3597
215.44        105.3458
215.90         101.673
216.36        95.06406
216.81         89.2085
217.27        85.78271
217.73        83.55078
218.19        81.68799
218.65        79.12614
219.11        75.10809
219.57        69.09164
220.02        61.58551
220.48        56.76591
220.94        56.80907
221.40        61.07373
221.86        64.43959
222.32        61.42129
222.77        53.13153
223.23        43.14791
223.69        35.32776
224.15        33.70779
224.61        37.53941
225.06        44.50353
225.52        51.46408
225.98        54.48228
226.44        52.84449
226.90        48.36649
227.36        42.81763
227.81         38.5357
228.27        36.50029
228.73        35.70397
229.19        36.17688
229.65        37.94737
230.10        40.50197
230.56        43.58158
231.02        46.19913
231.48        47.15528
231.93        46.49549
232.39        44.69742
232.85        42.63356
233.31        41.73374
233.77        42.33397
234.22        44.02742
234.68        46.20277
235.14        47.53469
235.60        47.56332
236.05        46.77885
236.51        45.72722
236.97         45.1299
237.43        45.28669
237.88        46.12539
238.34         47.7215
238.80        50.17495
239.26        53.29557
239.71        57.12491
240.17        61.04997
240.63        64.60803
241.08        67.60927
241.54        69.67036
242.00        71.34724
242.46         73.9276
242.91        78.96779
243.37        89.96384
243.83          119.16
244.28        192.4131
244.74         235.813
245.20        162.6747
245.66          120.43
246.11        112.0224
246.57        123.3125
247.03        168.7289
247.48        320.0002
247.94        306.2893
248.40        160.0855
248.85        107.9529
249.31        90.17775
249.77        86.64612
250.22        90.81026
250.68        101.3718
251.14        118.0581
251.59         130.749
252.05        128.4129
252.51        115.5953
252.96        100.4743
253.42        91.00814
253.88        87.00024
254.33        85.44034
254.79        86.77067
255.25        91.07939
255.70        96.80291
256.16        103.3388
256.62        107.6949
257.07        106.8083
257.53        101.9025
257.99        94.27009
258.44        86.59097
258.90        83.00085
259.35        82.45678
259.81        83.32599
260.27          83.211
260.72        79.82822
261.18        74.09427
261.63        67.09466
262.09        60.65993
262.55        56.14745
263.00        53.53693
263.46         52.2354
263.91        51.30557
264.37        50.08531
264.83        48.32348
265.28        46.16099
265.74         44.0709
266.19         42.4959
266.65         41.6706
267.11        41.30852
267.56        40.98209
268.02        40.19182
268.47        38.80753
268.93        36.99634
269.38        35.05663
269.84        33.73799
270.30        33.22731
270.75        33.31223
271.21           33.54
271.66        33.22519
272.12        32.21401
272.57        30.75211
273.03        29.24628
273.48        28.21694
273.94        27.81705
274.39        27.81893
274.85        27.97559
275.31        27.92131
275.76        27.54726
276.22        26.99962
276.67        26.39009
277.13        25.96726
277.58        25.72695
278.04         25.6007
278.49        25.43702
278.95        25.09323
279.40        24.52282
279.86        23.85348
280.31        23.15225
280.77        22.62272
281.22        22.27239
281.68        22.06582
282.13        21.95045
282.59        21.88285
283.04        21.83388
283.50        21.85056
283.95        21.87325
284.41        21.82747
284.86        21.69926
285.32        21.51183
285.77        21.37621
286.22         21.5254
286.68        21.95561
287.13        22.55478
287.59        23.10393
288.04        23.27075
288.50        23.02631
288.95        22.47773
289.41        21.84974
289.86        21.37269
290.32         21.1751
290.77        21.17807
291.22        21.36209
291.68        21.65448
292.13        22.03664
292.59        22.54749
293.04        23.19562
293.50        23.98458
293.95        24.89097
294.40        25.86862
294.86        26.88542
295.31        27.91368
295.77         28.9551
296.22        30.02941
296.68        31.12411
297.13        32.18471
297.58        33.22512
298.04        34.27536
298.49        35.43663
298.95         36.9164
299.40        38.73351
299.85        40.82058
300.31        42.99939
300.76         44.9775
301.21        46.65431
301.67         48.1418
302.12        49.51259
302.58        50.98392
303.03        52.58891
303.48        54.28987
303.94        56.12607
304.39        58.09641
304.84        60.19257
305.30        62.40648
305.75        64.58447
306.20        66.51299
306.66        68.16999
307.11        69.56365
307.57         70.8707
308.02        72.24139
308.47        73.78124
308.93        75.45297
309.38        77.17453
309.83        78.86684
310.29        80.48042
310.74        81.99422
311.19        83.43469
311.65        84.84464
312.10        86.21778
312.55        87.55064
313.00        88.73944
313.46        89.62641
313.91        90.17705
314.36        90.46651
314.82         90.7126
315.27        91.19521
315.72        92.01701
316.18         93.0963
316.63        94.27452
317.08        95.23559
317.53         95.8768
317.99        96.26981
318.44        96.57056
318.89        97.04456
319.35        97.73333
319.80          98.581
320.25        99.37331
320.70        99.76739
321.16        99.69706
321.61        99.28508
322.06        98.79389
322.51        98.63273
322.97         98.8791
323.42        99.45918
323.87         100.147
324.32        100.5526
324.78        100.5575
325.23        100.3227
325.68        100.0233
326.13        99.97646
326.59        100.2434
327.04        100.7494
327.49        101.3571
327.94        101.8766
328.39        102.2387
328.85        102.4875
329.30        102.7104
329.75        102.8732
330.20        103.0166
330.66        103.1317
331.11        103.3723
331.56         103.909
332.01        104.7867
332.46        105.9372
332.92        107.1966
333.37        108.4699
333.82        109.5637
334.27        110.4826
334.72        111.1283
335.17         111.376
335.63        111.2413
336.08        110.8403
336.53         110.367
336.98        110.1802
337.43        110.3922
337.88        110.9192
338.34        111.6893
338.79        112.6629
339.24        113.7294
339.69        114.9187
340.14        116.0075
340.59        116.6102
341.05        116.6617
341.50        116.2403
341.95        115.7095
342.40        115.6522
342.85        116.1913
343.30        117.1671
343.75        118.2538
344.20        118.8716
344.66        118.8717
345.11        118.4312
345.56         117.817
346.01        117.4226
346.46        117.3674
346.91        117.5275
347.36        117.7863
347.81        117.9742
348.26        118.0389
348.72        118.0583
349.17        118.0671
349.62        118.1556
350.07        118.3327
350.52        118.5405
350.97        118.7078
351.42        118.7422
351.87        118.6253
352.32        118.3955
352.77        118.0963
353.22        117.7971
353.67        117.5215
354.13        117.2568
354.58         116.978
355.03        116.7062
355.48        116.4318
355.93         116.156
356.38        115.8191
356.83        115.3252
357.28        114.6594
357.73        113.8455
358.18        112.9788
358.63        112.2112
359.08        111.5814
359.53        111.0613
359.98        110.5456
360.43        109.8619
360.88        108.9763
361.33        107.9389
361.78        106.8941
362.23        106.0758
362.68        105.5376
363.13        105.2106
363.58        104.9182
364.03         104.381
364.48        103.5359
364.93        102.4651
365.38        101.3451
365.83        100.4656
366.28        99.88657
366.73        99.49669
367.18        99.13866
367.63        98.56179
368.08        97.71727
368.53        96.73597
368.98         95.7037
369.43        94.72937
369.88        93.86173
370.33         93.0517
370.78        92.37956
371.23         91.9886
371.68        91.87803
372.13        91.99796
372.58        92.14403
373.03        91.96573
373.48        91.38645
373.93        90.52339
374.38        89.56609
374.83        88.80866
375.28        88.32877
375.72        88.01689
376.17        87.82582
376.62          87.655
377.07        87.44366
377.52        87.20936
377.97        86.89597
378.42        86.40952
378.87        85.75759
379.32         84.9977
379.77         84.1946
380.22        83.43828
380.67        82.75434
381.11        82.11586
381.56        81.57116
382.01        81.20121
382.46        81.01671
382.91        81.01264
383.36        81.03142
383.81        80.82137
384.26        80.33384
384.71        79.61864
385.15        78.87625
385.60        78.48826
386.05        78.46104
386.50        78.67101
386.95        78.83868
387.40        78.50452
387.85        77.63828
388.29        76.45123
388.74        75.34306
389.19        74.56509
389.64        74.15719
390.09          73.964
390.54        73.98055
390.98        74.19684
391.43        74.54095
391.88         74.9962
392.33        75.32262
392.78        75.03078
393.23        74.11753
393.67        73.01472
394.12        72.18539
394.57        71.01022
395.02        71.03614
395.47        71.51945
395.91        72.63316
396.36        73.35635
396.81        73.49416
397.26        73.42795
397.71        73.20505
398.15        72.70449
398.60        72.07024
399.05        71.45991
399.50        70.91872
399.95        70.05816
400.39        69.33774
400.84         69.1172
401.29        69.40816
401.74        69.53322
402.18        69.43072
402.63        69.40354
403.08        69.53354
403.53        69.76878
403.97        70.10164
404.42        70.51084
404.87        70.80302
405.32        70.66718
405.76        70.06487
406.21        69.16412
406.66        68.25228
407.11        67.79404
407.55        67.89415
408.00        68.28192
408.45        68.76161
408.90        69.20271
409.34        69.33237
409.79          68.689
410.24        67.60224
410.68        67.04434
411.13          67.135
411.58        67.38023
412.03        67.68834
412.47        68.09374
412.92        68.47322
413.37        68.84612
413.81        69.11396
414.26        69.16612
414.71         68.9761
415.15        68.56226
415.60        68.07117
416.05        67.76643
416.49        67.72432
416.94        67.90559
417.39        68.13548
417.83        68.09224
418.28        67.72734
418.73        67.15522
419.17        66.63529
419.62        66.58024
420.07        67.02295
420.51        67.81267
420.96        68.65524
421.41        69.00754
421.85        68.72112
422.30         68.2237
422.74        67.66077
423.19        67.01795
423.64        66.49597
424.08        66.78503
424.53        67.71471
424.98        68.27151
425.42        68.30278
425.87        68.56229
426.31        69.00617
426.76        68.75571
427.21        68.10375
427.65        68.38609
428.10        69.47375
428.54        70.29814
428.99        70.79818
429.44        70.95026
429.88        70.84451
430.33        71.85333
430.77        73.19196
431.22        71.85968
431.66        68.62246
432.11        67.27695
432.56        68.02894
433.00        68.87582
433.45        69.71251
433.89        71.40327
434.34        72.46314
434.78        74.46947
435.23        70.64246
435.67        67.88301
436.12        70.65585
436.57        71.81918
437.01        72.65325
437.46        73.08976
437.90        73.36259
438.35        72.23424
438.79        73.05596
439.24        72.85973
439.68        72.67267
440.13        72.30292
440.57        72.10786
441.02        73.15768
441.46        74.94533
441.91        75.83812
442.35        75.59178
442.80        74.51301
443.24        73.15068
443.69         73.7935
444.13        75.99373
444.58        76.13202
445.02         74.3986
445.47        74.17525
445.91         75.3944
446.36        75.76823
446.80        75.21601
447.24        75.14597
447.69        75.18184
448.13        75.33948
448.58        75.50182
449.02        75.72009
449.47        75.96634
449.91        76.21319
450.36        76.44484
450.80        76.64178
451.25        76.75029
451.69        76.65557
452.13        76.37684
452.58          75.964
453.02        75.55734
453.47        75.41953
453.91        75.57616
454.36        75.94717
454.80        76.37477
455.24         76.5063
455.69         76.2796
456.13        75.92462
456.58        75.58535
457.02          75.037
457.46        74.52977
457.91        74.71194
458.35        75.35652
458.79         75.6218
459.24        75.48962
459.68        75.16437
460.13        74.68658
460.57        74.78479
461.01        74.57291
461.46        73.67075
461.90        73.85217
462.34        73.81068
462.79        73.26913
463.23        73.47419
463.68        74.07285
464.12        74.54033
464.56        74.70752
465.01         74.8194
465.45        74.72891
465.89        74.39845
466.34        73.80529
466.78        72.70057
467.22        71.63187
467.67         70.8077
468.11        72.04654
468.55        72.77718
468.99        73.15055
469.44        72.92738
469.88         72.2917
470.32        72.16618
470.77        72.52258
471.21        72.51026
471.65        72.10713
472.10        71.98295
472.54        72.12155
472.98         72.1493
473.42        72.03899
473.87        72.09367
474.31        72.09441
474.75        71.95515
475.20        71.71056
475.64        71.70011
476.08        71.94394
476.52         71.9714
476.97         71.7072
477.41        71.82226
477.85        72.38921
478.29        71.42801
478.74        71.55929
479.18        72.05325
479.62        70.78857
480.06        71.49531
480.50        71.78039
480.95        72.24345
481.39        72.39086
481.83        71.38647
482.27        71.73241
482.72        71.22971
483.16        70.02757
483.60         70.1501
484.04        71.71611
484.48        72.07001
484.93        71.77564
485.37        73.61034
485.81        74.15338
486.25        72.93782
486.69        99.97938
487.14        80.58195
487.58         49.9636
488.02        61.73046
488.46        69.54984
488.90        68.63691
489.34        70.01119
489.79        69.71988
490.23        71.50926
490.67        72.40052
491.11           71.28
491.55        71.16607
491.99         71.6376
492.43        71.44064
492.88        70.69674
493.32        70.71214
493.76        70.97595
494.20        71.29859
494.64        71.41585
495.08        71.65781
495.52        72.01053
495.96        71.88503
496.41        71.35807
496.85        71.80373
497.29        72.91715
497.73        71.89684
498.17        69.72881
498.61        69.97623
499.05        72.60415
499.49        72.99075
499.93        72.75287
500.37        72.37302
500.82        71.79521
501.26        71.93443
501.70        72.47605
502.14        72.66917
502.58        72.38206
503.02        72.18633
503.46        72.08723
503.90        71.70767
504.34        71.21377
504.78        71.04406
505.22        71.23051
505.66        71.71143
506.10        72.31721
506.54         72.4406
506.98        71.92586
507.42        71.92255
507.86        71.37337
508.30        70.54767
508.74        71.10771
509.18        71.39069
509.62         71.8055
510.06        72.04161
510.50        72.04632
510.94        71.87933
511.38        71.63472
511.82        71.50438
512.26        71.53478
512.70        71.66158
513.14        71.82642
513.58        71.94337
514.02        71.97845
514.46        71.96022
514.90         71.9211
515.34        71.89051
515.78        71.87127
516.22        71.91122
516.66        71.98421
517.10        71.89153
517.54        71.62528
517.98        71.78222
518.42        71.59264
518.86         71.7069
519.30        71.88319
519.74        72.16016
520.18        72.44233
520.62        72.56844
521.06        72.51334
521.50        72.32363
521.93        72.07716
522.37        71.90131
522.81        71.84311
523.25        71.86758
523.69        71.95048
524.13        72.05283
524.57        72.15611
525.01         72.2726
525.45        72.38886
525.89        72.48024
526.32        72.53094
526.76        72.53712
527.20        72.50472
527.64        72.46796
528.08         72.4532
528.52        72.39675
528.96        72.26499
529.40        72.20804
529.83        72.26487
530.27        71.66129
530.71        71.85295
531.15        71.76244
531.59        71.82279
532.03        71.96612
532.46        72.18311
532.90         72.4225
533.34        72.63911
533.78        72.84129
534.22        72.97321
534.66        72.96099
535.09        72.79155
535.53        72.51899
535.97        72.20985
536.41        71.99393
536.85        71.91236
537.28        71.93657
537.72        72.02197
538.16        72.10533
538.60         72.1591
539.04        72.14115
539.47         72.0645
539.91        72.14187
540.35        72.30022
540.79        72.23183
541.22        71.96284
541.66         71.8306
542.10        71.84492
542.54        71.80978
542.97        71.75233
543.41        71.82491
543.85        72.01662
544.29        72.30818
544.72        72.54788
545.16        72.52399
545.60        72.19998
546.04        71.65813
546.47        71.13922
546.91        71.00827
547.35        71.34784
547.79        72.12252
548.22        72.97227
548.66         73.2957
549.10        72.95179
549.53        72.06602
549.97        71.04716
550.41        70.54244
550.84        70.69254
551.28        71.24848
551.72        71.97891
552.15        72.45526
552.59        72.53884
553.03        72.49275
553.46        72.42863
553.90         71.9678
554.34        72.20398
554.77        72.07566
555.21         71.8951
555.65        72.07474
556.08        72.56694
556.52        72.01244
556.96        72.11229
557.39        71.88442
557.83        71.87013
558.27        71.79031
558.70        71.70961
559.14        71.82159
559.57        72.09375
560.01        72.45554
560.45        72.78979
560.88        72.93105
561.32        72.84721
561.75        72.56625
562.19        72.21738
562.63        71.73722
563.06        71.29837
563.50        71.42545
563.93        71.97198
564.37        72.25233
564.80        72.17927
565.24        72.16395
565.68        72.22084
566.11         72.2123
566.55        72.19473
566.98        72.16482
567.42        72.18287
567.85        72.24652
568.29        72.73256
568.72        72.73787
569.16        72.58627
569.60        72.98952
570.03        73.52637
570.47         73.5323
570.90        73.24014
571.34         71.4954
571.77        72.32565
572.21        72.37949
572.64        71.92478
573.08        71.36946
573.51        67.72497
573.95        70.47568
574.38        75.29431
574.82         73.0855
575.25        72.95873
575.69        70.39445
576.12        69.35417
576.56        68.75925
576.99        69.77322
577.42        73.61854
577.86        73.45551
578.29        72.60542
578.73        76.79561
579.16        70.52425
579.60        64.35098
580.03        67.17381
580.47        71.68224
580.90        72.96806
581.33        72.03406
581.77         70.8754
582.20        78.27665
582.64        78.06823
583.07        66.84718
583.51        65.42892
583.94        63.76239
584.37        66.64586
584.81        69.93501
585.24        73.95898
585.68        75.66357
586.11        74.60672
586.54        69.28237
586.98        66.95841
587.41        67.80028
587.85        71.54357
588.28        74.15499
588.71        70.34074
589.15        67.98651
589.58        69.60503
590.01        69.66267
590.45        70.56595
590.88         71.4865
591.31        70.74654
591.75        70.19894
592.18        70.18136
592.61        71.72237
593.05        72.40635
593.48        75.11483
593.91        76.70458
594.35        70.19828
594.78        68.80568
595.21        68.31347
595.65        71.33865
596.08         74.1783
596.51        71.19933
596.94        69.13615
597.38        69.74686
597.81        72.50985
598.24        74.33763
598.68        72.83469
599.11        71.65701
599.54        74.60052
599.97        76.50635
600.41        70.66079
600.84        70.79539
601.27          72.453
601.70        71.31017
602.14         71.4941
602.57        70.35744
603.00        70.74535
603.43        72.49234
603.87        73.92433
604.30        73.70541
604.73        71.94328
605.16        70.23107
605.60        71.03512
606.03        71.95947
606.46         73.0258
606.89        72.84638
607.32        70.57267
607.76        70.62158
608.19        72.84894
608.62        71.94297
609.05        70.76614
609.48        71.25795
609.92        70.96938
610.35        71.18948
610.78         72.7387
611.21        73.72315
611.64        70.32059
612.07        71.09622
612.50        71.51233
612.94        71.90052
613.37        71.17455
613.80        71.66172
614.23        71.93505
614.66        71.90449
615.09        72.14853
615.52        72.14465
615.96        72.03616
616.39        72.08886
616.82        71.09341
617.25        70.96416
617.68        71.72126
618.11        72.29911
618.54        72.53687
618.97        72.03226
619.40        71.21867
619.84        70.96092
620.27        72.12071
620.70        72.75899
621.13        72.91517
621.56        72.14581
621.99        70.87045
622.42        71.62603
622.85        73.84805
623.28        73.70885
623.71         72.6925
624.14        72.79304
624.57        72.58765
625.00        72.19107
625.43        72.58333
625.86        71.78784
626.29        71.57127
626.72        72.67538
627.15          71.996
627.58        72.38422
628.01        72.67966
628.44        72.82353
628.87        72.74979
629.30        72.62174
629.73        73.02016
630.16        73.14852
630.59        72.87168
631.02        72.51599
631.45        72.10629
631.88        71.83368
632.31        71.73272
632.74        71.70992
633.17        71.73786
633.60        71.80418
634.03        71.88528
634.46         71.9879
634.89        72.09303
635.32        72.11951
635.75        72.04924
636.18        71.98551
636.61        72.00918
637.04        71.73593
637.47        72.01284
637.89         72.1554
638.32         72.3121
638.75        72.34507
639.18          72.232
639.61         72.0134
640.04        71.75352
640.47        71.57433
640.90        71.51154
641.33        71.52512
641.76         71.5667
642.18        71.65944
642.61        71.78101
643.04        71.76569
643.47        71.56936
643.90        72.05254
644.33        71.72669
644.76        71.78336
645.18        71.77531
645.61        71.71976
646.04        71.60934
646.47        71.44852
646.90        71.30916
647.33        71.27657
647.75        71.39411
648.18        71.60106
648.61        71.75804
649.04        71.85262
649.47        71.76031
649.89        70.96543
650.32        69.92437
650.75        69.85754
651.18        70.73343
651.61        71.63994
652.03        72.11433
652.46        71.96497
652.89        71.67278
653.32        70.98891
653.74        70.19751
654.17        72.24633
654.60        73.03091
655.03        69.59778
655.46        71.03101
655.88        75.28056
656.31        81.29509
656.74        184.5432
657.16        119.5541
657.59        42.19288
658.02        31.60608
658.45        54.12224
658.87        69.48293
659.30        72.62401
659.73        71.34509
660.15        68.99865
660.58        71.29659
661.01        73.05572
661.44        70.67707
661.86        69.94491
662.29         70.0328
662.72        70.96232
663.14        72.42228
663.57         72.3345
664.00        70.99329
664.42        70.66566
664.85        71.43803
665.27         71.8513
665.70        71.71385
666.13        71.54591
666.55        71.33536
666.98        70.92275
667.41        70.46977
667.83        70.30145
668.26        70.48125
668.69        70.87955
669.11        71.26688
669.54        71.63333
669.96        71.25264
670.39        70.72675
670.82        70.08345
671.24        69.86372
671.67        70.19937
672.09        70.38783
672.52        71.01742
672.94        71.47135
673.37        70.77856
673.80        70.55291
674.22        70.52728
674.65        70.49383
675.07        70.43997
675.50        70.37437
675.92        70.34525
676.35        70.43811
676.77        70.65126
677.20        70.93095
677.62        71.22633
678.05        71.19972
678.47         71.2271
678.90        71.03156
679.32        70.83515
679.75        70.64098
680.17        70.75416
680.60        70.94268
681.02          71.172
681.45        71.09776
681.87         70.7351
682.30        70.49872
682.72        70.44438
683.15        70.21851
683.57        69.97257
684.00        70.25798
684.42        71.06665
684.85        71.43009
685.27        71.29822
685.70        71.09198
686.12        70.90172
686.54        70.77499
686.97        70.74641
687.39        70.80369
687.82        70.88722
688.24        70.96004
688.66        70.98215
689.09        70.97368
689.51        70.96131
689.94        70.95694
690.36        70.97795
690.78        71.01247
691.21        71.04782
691.63        71.07666
692.06        71.09297
692.48        71.09779
692.90        71.13126
693.33        71.19091
693.75        71.27533
694.17        71.48911
694.60        71.78135
695.02        71.57533
695.44        71.62926
695.87        71.39915
696.29        71.26456
696.71        71.11781
697.14        71.07954
697.56        71.75035
697.98        72.81641
698.41        72.66543
698.83        72.02805
699.25         71.5109
699.68        71.43199
700.10        71.27751
700.52        71.09354
700.94        71.21552
701.37        71.55965
701.79        71.88339
702.21        72.09125
702.64        72.26474
703.06        72.35545
703.48         72.2697
703.90        72.02049
704.33        71.63766
704.75        71.21702
705.17         71.0062
705.59        71.07176
706.01         71.2335
706.44        71.39414
706.86        72.01188
707.28        72.07716
707.70         72.3488
708.12         72.5103
708.55        72.52858
708.97        72.38395
709.39        72.09852
709.81        71.78303
710.23        71.62001
710.66         71.6624
711.08         71.8925
711.50        72.16727
711.92        72.26866
712.34        72.14579
712.76        71.85393
713.19        71.53893
713.61         71.4666
714.03         71.6795
714.45        72.09301
714.87        72.51797
715.29        72.65776
715.71        72.45114
716.13        72.00128
716.56        71.49127
716.98        71.24443
717.40        71.33783
717.82        71.67073
718.24         72.1001
718.66        72.38364
719.08        72.44407
719.50        72.35566
719.92        72.18378
720.34        72.05152
720.76          72.005
721.19        71.88616
721.61        71.91759
722.03        71.96115
722.45        72.07056
722.87        72.23473
723.29        72.42316
723.71        72.57116
724.13        72.65438
724.55        72.68803
724.97        72.66886
725.39        72.60022
725.81        72.49496
726.23        72.35601
726.65        72.23109
727.07        72.19286
727.49        72.25947
727.91        72.42306
728.33        72.62448
728.75        72.75871
729.17        72.79169
729.59        72.73811
730.01        72.67363
730.43        72.71331
730.85        72.88548
731.27         73.1823
731.69        73.47937
732.10        73.55627
732.52        73.36958
732.94        73.02666
733.36        72.73095
733.78         72.6693
734.20        72.88936
734.62        73.63662
735.04        74.60909
735.46        74.58711
735.88        73.80019
736.30        73.91283
736.72        74.91904
737.13        75.35614
737.55        74.96339
737.97         74.7995
738.39        74.92609
738.81        74.24258
739.23        73.18447
739.65        74.06417
740.06        76.33833
740.48        76.56054
740.90         74.8227
741.32        73.96078
741.74        74.28036
742.16        74.46956
742.57        74.59657
742.99        75.41871
743.41        76.65627
743.83         77.3965
744.25        77.46721
744.67        77.10463
745.08        76.57569
745.50        76.31597
745.92        76.46705
746.34        76.87743
746.75        77.37154
747.17        77.65607
747.59        77.67944
748.01        77.55057
748.42        77.44418
748.84        77.64787
749.26        78.23111
749.68        78.94467
750.09         79.6384
750.51        80.36977
750.93        80.92469
751.35        80.64603
751.76        79.76967
752.18        79.43479
752.60        79.66532
753.01        79.62205
753.43        79.33033
753.85        79.41573
754.27        79.90704
754.68        80.55067
755.10        81.17352
755.52         81.6513
755.93        81.89342
756.35        81.86958
756.77        81.74872
757.18        81.69166
757.60        81.74654
758.02        82.22411
758.43        82.77594
758.85        82.22962
759.26        80.61137
759.68        80.37656
760.10        81.34377
760.51        81.87837
760.93        81.62942
761.34        80.99001
761.76        80.29936
762.18        79.86794
762.59        79.87793
763.01        80.15578
763.42        80.72437
763.84        81.29828
764.26        81.81411
764.67        82.38918
765.09        82.80923
765.50        82.62231
765.92        81.86655
766.33        80.61372
766.75        79.34516
767.16        78.88216
767.58        79.36712
768.00         80.7226
768.41        82.57417
768.83        83.69606
769.24        83.68224
769.66         83.0909
770.07        82.27872
770.49        80.98708
770.90        79.62928
771.32        80.27045
771.73        82.30677
772.15        81.68917
772.56        78.93333
772.97        78.45195
773.39        80.11546
773.80        80.86076
774.22        80.10504
774.63        80.09887
775.05        80.68858
775.46        80.97463
775.88          80.853
776.29        80.58112
776.70        80.27553
777.12        80.15225
777.53        80.27725
777.95        80.52161
778.36        80.74713
778.77        80.71272
779.19        80.41919
779.60        79.96029
780.02        79.51823
780.43        79.49864
780.84        80.03274
781.26         80.4228
781.67        80.68104
782.09         82.0646
782.50        83.88618
782.91        82.99225
783.33        80.14374
783.74        79.18937
784.15           80.32
784.57        81.09992
784.98          81.159
785.39        81.08044
785.81        80.81088
786.22        80.18295
786.63        79.55173
787.04         79.4577
787.46        79.97315
787.87        80.97283
788.28        82.08351
788.70        82.62373
789.11         82.4335
789.52         81.7453
789.93        80.90695
790.35        80.40168
790.76        80.37296
791.17        80.73382
791.58        81.27003
792.00        81.57749
792.41        81.53304
792.82        81.25048
793.23         81.0175
793.65        80.92648
794.06        81.14958
794.47        82.46414
794.88        84.05177
795.29        83.50317
795.71        81.06857
796.12          78.661
796.53        77.05406
796.94        76.63944
797.35        77.49736
797.76        78.96777
798.18        80.37306
798.59        81.33176
799.00        81.46668
799.41        80.52617
799.82        79.02946
800.23        78.14402
800.64        78.11553
801.06         78.5068
801.47        79.15893
801.88        79.70303
802.29        79.98408
802.70        80.17135
803.11        80.26236
803.52        80.20736
803.93        80.03266
804.34        79.69959
804.75        79.37328
805.17        79.38455
805.58        79.82452
805.99        80.46224
806.40        81.03523
806.81        81.44253
807.22        81.40226
807.63        80.25864
808.04        78.53801
808.45         77.7367
808.86          78.046
809.27        78.80806
809.68        79.64709
810.09        80.10787
810.50        79.98643
810.91        79.44702
811.32        78.75999
811.73        78.35544
812.14        78.35261
812.55        78.57343
812.96         78.9321
813.37        79.27634
813.78        79.52115
814.19        79.76899
814.60        79.86875
815.01        79.57203
815.42        78.87397
815.83        77.80497
816.24        76.77142
816.65        76.49449
817.05        77.17462
817.46        78.57537
817.87        80.11776
818.28        80.75148
818.69        80.20184
819.10        78.73878
819.51        77.03835
819.92        76.25279
820.33        76.68282
820.74        77.96908
821.14        79.49967
821.55        80.17703
821.96        79.74944
822.37        78.60011
822.78        77.22298
823.19        76.33551
823.60        76.14618
824.00        76.46918
824.41         77.0214
824.82        77.46608
825.23        77.63635
825.64        77.67235
826.04        77.64351
826.45        77.62991
826.86        77.65622
827.27        77.64083
827.68        77.59148
828.08        77.58295
828.49        77.56577
828.90        77.60017
829.31         77.6057
829.72        77.42345
830.12        77.06998
830.53        76.59357
830.94        76.21786
831.35        76.23692
831.75        76.73508
832.16        77.55316
832.57        78.50967
832.97        79.20612
833.38         79.4221
833.79        79.26276
834.20        78.88557
834.60        78.53618
835.01        78.32321
835.42        78.17165
835.82        78.01839
836.23        77.68449
836.64        77.19279
837.04        76.65182
837.45        76.20351
837.86        76.06221
838.26        76.27246
838.67        76.70453
839.08        77.25203
839.48        77.71278
839.89        77.96132
840.29        78.06624
840.70        77.97904
841.11        77.61777
841.51        77.02218
841.92        76.20631
842.33        75.42965
842.73        75.12973
843.14        75.36626
843.54        76.06592
843.95        76.88215
844.35        77.28445
844.76        77.11457
845.17        76.54057
845.57        75.84212
845.98        75.46442
846.38        75.51707
846.79        75.82803
847.19        76.24363
847.60        76.40998
848.00        76.26487
848.41        75.92314
848.81        75.52901
849.22        75.20157
849.62        75.04511
850.03        75.02224
850.43        75.18053
850.84        75.52454
851.24        76.06776
851.65        76.61366
852.05        77.24698
852.46        77.92552
852.86        78.60256
853.27         79.3019
853.67        79.54896
854.07        78.75266
854.48        76.98423
854.88        74.48074
855.29        72.11284
855.69        71.13476
856.10        71.78534
856.50        73.91081
856.90        76.73378
857.31        78.43286
857.71        78.41101
858.12         77.1134
858.52        75.36452
858.92        74.25845
859.33        74.04724
859.73        74.43861
860.13         75.2211
860.54        75.96353
860.94        76.53457
861.34        77.03098
861.75         77.4874
862.15        78.03587
862.55        78.65453
862.96         79.2515
863.36         79.7114
863.76        79.83153
864.17        79.59264
864.57        79.14319
864.97        78.70837
865.38        78.61537
865.78        78.97724
866.18        79.60952
866.58        80.37245
866.99        81.00652
867.39        81.46192
867.79        81.84669
868.19        81.97726
868.60        81.51999
869.00        80.48224
869.40        78.96046
869.80        77.67476
870.21        77.74477
870.61        79.45566
871.01        82.47031
871.41        85.79485
871.81        87.70863
872.22        87.74252
872.62        86.38922
873.02        84.56254
873.42        83.86084
873.82        84.49922
874.22         85.7016
874.63        87.05558
875.03        87.71917
875.43        87.26363
875.83        86.83352
876.23        85.29194
876.63        84.69163
877.03        85.02691
877.44        86.45861
877.84        103.2448
878.24         93.2888
878.64        93.60262
879.04        93.30737
879.44        89.73614
879.84        87.78039
880.24        90.91042
880.64        92.48688
881.04        93.05307
881.44        93.15035
881.84        92.39845
882.24         91.0243
882.65        89.88139
883.05        89.76846
883.45        90.82691
883.85        93.03963
884.25        95.63278
884.65        97.01769
885.05        96.71713
885.45        95.25045
885.85        93.51344
886.25        92.74491
886.65        93.20736
887.05        94.50764
887.45        96.10565
887.85        97.04043
888.25        96.97837
888.65        96.25653
889.04        95.24592
889.44        94.55133
889.84        94.33208
890.24         94.3593
890.64        94.48211
891.04        94.50288
891.44        94.34837
891.84        94.13325
892.24        93.86655
892.64        93.51894
893.04        93.17152
893.44        92.90471
893.83        92.80653
894.23        93.03751
894.63        93.59249
895.03        94.33015
895.43         95.3089
895.83        96.60266
896.23        98.08256
896.63         99.6683
897.02        100.7453
897.42        100.3533
897.82        98.44267
898.22         95.4568
898.62        92.39261
899.01        90.68546
899.41        90.67547
899.81        91.88924
900.21        93.73646
900.61        95.23033
901.00        95.99958
901.40        96.31878
901.80        96.31356
902.20        96.18755
902.59        96.03757
902.99        95.73006
903.39        95.30733
903.79        94.90357
904.18        94.58134
904.58        94.42107
904.98        94.41312
905.38        94.50352
905.77        94.64031
906.17        94.79242
906.57        94.97591
906.96        95.26373
907.36        95.58179
907.76        95.92598
908.15        96.09351
908.55        95.65115
908.95         94.6146
909.34        93.10681
909.74        91.64627
910.14        90.86922
910.53        90.95387
910.93        91.76393
911.33        92.96687
911.72        93.93965
912.12        94.37649
912.52        94.41946
912.91        94.30592
913.31        94.35007
913.70        94.66764
914.10         95.1449
914.49        95.56201
914.89        95.35239
915.29        94.41493
915.68        92.97334
916.08        91.73266
916.47        91.23669
916.87        91.54709
917.26        92.49213
917.66        93.49573
918.05        93.67896
918.45        92.83818
918.84        91.29003
919.24        89.73967
919.64        89.19684
920.03        89.90864
920.42         91.5699
920.82        93.54929
921.21        94.87447
921.61        95.07086
922.00        94.48681
922.40        93.48346
922.79        92.57155
923.19        91.96958
923.58        91.42981
923.98        90.84458
924.37        90.38077
924.77        90.26497
925.16          88.548
925.55        89.25299
925.95        89.74896
926.34        91.21647
926.74        93.13534
927.13        95.08199
927.52        96.08861
927.92        96.00482
928.31        95.15051
928.70        93.76144
929.10        92.27135
929.49        90.84454
929.89        89.41007
930.28        88.39443
930.67        88.51855
931.07        89.75208
931.46         91.9636
931.85        94.19495
932.24        94.98852
932.64        94.05264
933.03        91.64175
933.42        88.50091
933.82        86.32694
934.21        85.65289
934.60        86.05443
934.99        86.78812
935.39        87.07015
935.78        86.77887
936.17        85.76464
936.56        83.93234
936.96        84.83978
937.35        83.99361
937.74        84.80867
938.13        85.64173
938.53        86.63815
938.92        87.83706
939.31        89.38573
939.70        90.85085
940.09        90.98686
940.49         89.5258
940.88        87.06701
941.27        84.65741
941.66        83.50795
942.05        83.74936
942.44        84.98212
942.84        86.77549
943.23        88.41658
943.62        89.48047
944.01        90.13215
944.40         90.3436
944.79        90.08945
945.18        89.38719
945.57        88.11974
945.97        86.46306
946.36        85.05506
946.75        84.33292
947.14        84.25872
947.53        84.55789
947.92        84.86007
948.31        85.08315
948.70        85.30955
949.09        85.59731
949.48        86.01899
949.87         86.5322
950.26        87.01946
950.65        87.31831
951.04        87.24286
951.43        86.78421
951.82        86.02942
952.21        85.14256
952.60        84.43238
952.99        83.97585
953.38        83.62164
953.77        83.37392
954.16        83.20559
954.55         83.0825
954.94        83.13425
955.33         83.0107
955.72        82.10059
956.11        80.36501
956.50        77.95195
956.89        75.82282
957.28        75.73696
957.66        78.15331
958.05        82.25124
958.44        86.64944
958.83        89.28935
959.22        89.64552
959.61        88.24347
960.00         85.8791
960.39        83.89374
960.78        82.77853
961.16        82.23047
961.55        81.89938
961.94        81.21937
962.33         80.1041
962.72        78.90814
963.11         78.0598
963.49        78.04758
963.88        78.92602
964.27        80.55529
964.66        82.44317
965.04        83.55181
965.43        83.36576
965.82        82.22352
966.21        80.83134
966.60        80.12942
966.98         80.3121
967.37        81.08516
967.76        81.99857
968.15        82.19859
968.53        81.45537
968.92        80.06252
969.31        78.59951
969.69        77.78484
970.08        77.75526
970.47        78.32807
970.86        79.00714
971.24        78.92771
971.63        77.85818
972.02        76.04752
972.40        74.24001
972.79        73.75135
973.17        75.07607
973.56         77.7486
973.95         80.9268
974.33        82.94181
974.72        83.11221
975.11        81.91339
975.49        80.18204
975.88        79.11166
976.26        78.90057
976.65        79.21983
977.04        79.47542
977.42         78.4062
977.81        75.79681
978.19        72.43225
978.58        69.75643
978.96        69.00913
979.35        70.32781
979.74        73.40585
980.12        77.78912
980.51        81.26892
980.89        82.99902
981.28        83.27238
981.66        82.55879
982.05        81.56768
982.43         80.5809
982.82        79.44204
983.20        78.55112
983.59         78.5811
983.97        79.72887
984.35        81.97326
984.74        84.64129
985.12        86.34759
985.51        86.16509
985.89        84.33459
986.28        81.55127
986.66        78.95128
987.04        77.26038
987.43        76.28997
987.81        75.71192
988.20        75.06149
988.58         74.0724
988.96        72.57572
989.35        70.88727
989.73        70.61614
990.12        72.56979
990.50        76.16505
990.88        78.91946
991.27        78.95702
991.65        76.69784
992.03        72.61517
992.42        68.62655
992.80        68.00471
993.18        71.34547
993.56        76.60927
993.95        81.65262
994.33         84.5576
994.71        85.03464
995.10        84.12421
995.48        82.23521
995.86        79.79657
996.24        77.03579
996.63        73.47382
997.01        69.97588
997.39        69.22131
997.77        72.18619
998.15        78.30579
998.54        84.40294
998.92        86.18096
999.30         82.4356
999.68        74.14321
1000.06        63.65784
1000.45        56.74947
1000.83        55.65372
1001.21        58.46639
1001.59        62.98661
1001.97        66.91496
1002.35        69.73274
1002.73        72.39983
1003.12        74.33327
1003.50        73.73077
1003.88        70.12001
1004.26        64.68238
1004.64          59.404
1005.02        55.66288
1005.40        53.26681
1005.78        51.62181
1006.16        52.05689
1006.54        57.31881
1006.92         65.2942
1007.30        72.27692
1007.69        76.52579
1008.07         78.2971
1008.45        78.16565
1008.83        75.40617
1009.21        65.98417
1009.59        37.82472
1009.97        -29.6098
1010.35       -109.9808
1010.73       -82.30493
1011.11       -24.46024
1011.49        13.57785
1011.86        39.76039
1012.24        54.25552
1012.62        60.06815
1013.00        60.55718
1013.38        56.85099
1013.76        50.68972
1014.14        49.06076
1014.52        57.99987
1014.90        79.18641
1015.28        106.3756
1015.66        119.5346
1016.04         107.182
1016.41        74.83366
1016.79        41.42886
1017.17        25.84264
1017.55        26.04802
1017.93        31.77958
1018.31        38.72184
1018.69         45.5008
1019.06        52.76432
1019.44        62.29608
1019.82        76.25559
1020.20        93.99264
1020.58        113.2385
1020.95        131.4551
1021.33        144.7674
1021.71       -24.56225
1022.09        108.0161
1022.46        116.5788
1022.84        121.2574
1023.22        129.0325
1023.60        149.1908
1023.97        338.9896
1024.35        18.31361
1024.73        53.75923
