SpectraSmart Spectrum 2.9.0.0
--------- Device Information -----------
Spectrum Name :  反射率_0
Saving Time :  2024/04/26 01:26:32
Spectro-Module Model Name : SE2030-DUVN
Spectro-Module Serial Number : OS361AC55029948
Wavelength Start : 200
Wavelength End : 1025
Wavelength Unit : Wavelength(nm)
Spectrum Unit : Reflectance(%)
-----------Spectrum Setting ------------
Integration Time : 20ms
Average : 10
Boxcar : 0
Background removal :  enabled
linearity correction :  enabled
SC :  disabled
Intensity correction :  disabled
DWT denoise :  enabled
savitzky-golay :  disabled
FFT :  disabled
Running average :  disabled
Kalman :  disabled
High pass :  disabled
---------------BEGIN--------------------
Wavelength(nm)             Reflectance(%)
200.29               0
200.75        92.84776
201.21         83.1531
201.67        72.50877
202.13        66.95449
202.58        67.13322
203.04        71.52396
203.50        77.62885
203.96        81.03475
204.42        80.62895
204.88        78.20908
205.34         75.7366
205.80        75.18264
206.26        77.33219
206.72        83.38704
207.18        95.87434
207.64        107.5437
208.10        101.3669
208.55        86.98042
209.01        77.88883
209.47         75.2645
209.93        76.53453
210.39        80.46371
210.85        84.74287
211.31        84.54782
211.77        78.63202
212.23        68.94916
212.69        59.82613
213.14        57.88791
213.60        64.05521
214.06         76.4201
214.52        90.20428
214.98        98.04807
215.44        98.10894
215.90        92.75025
216.36        85.37782
216.81        80.71744
217.27        80.09181
217.73        81.76234
218.19        83.30835
218.65        81.54809
219.11        75.24653
219.57        63.73766
220.02        48.52409
220.48        38.76761
220.94        40.01266
221.40        50.12106
221.86        60.26323
222.32        61.02299
222.77        53.38296
223.23         42.5029
223.69        33.48269
224.15        31.49772
224.61        35.90677
225.06         43.9528
225.52        51.98206
225.98        55.39627
226.44        53.35793
226.90        47.88468
227.36        41.41716
227.81        37.19681
228.27        36.28535
228.73        37.38543
229.19        39.44864
229.65        40.98651
230.10        41.52126
230.56        41.57095
231.02        41.48254
231.48        41.55823
231.93        41.83436
232.39        42.18885
232.85        42.35831
233.31          42.027
233.77        41.16376
234.22        39.86299
234.68        38.64098
235.14        38.39364
235.60        39.37103
236.05        41.31371
236.51        43.54369
236.97        45.10384
237.43        45.85674
237.88        46.11533
238.34        46.33612
238.80        47.77411
239.26        50.85765
239.71        55.10008
240.17        59.54343
240.63        63.13332
241.08        65.49454
241.54        66.82531
242.00        67.34318
242.46        67.33976
242.91        67.12983
243.37        66.02768
243.83        65.13071
244.28        78.94876
244.74        125.4213
245.20        138.3092
245.66        132.4411
246.11        132.6499
246.57        140.7115
247.03        164.2154
247.48        227.6551
247.94         185.345
248.40        115.6557
248.85        95.35132
249.31        89.72657
249.77        89.22392
250.22         91.4996
250.68        96.61706
251.14        104.4796
251.59        110.0572
252.05         108.206
252.51        101.1171
252.96        92.84946
253.42        87.81496
253.88        85.64355
254.33        84.72875
254.79        85.45974
255.25        87.78608
255.70        90.82876
256.16        94.37453
256.62        96.56686
257.07        95.47932
257.53        91.97459
257.99        86.70837
258.44        81.33926
258.90         78.7975
259.35        78.13273
259.81        78.27702
260.27        77.51278
260.72        74.18455
261.18        69.07701
261.63        62.96144
262.09        57.25224
262.55        52.88061
263.00        49.90868
263.46        48.01735
263.91        46.57905
264.37        45.20213
264.83        43.63633
265.28        41.87992
265.74        40.24157
266.19        38.93249
266.65        38.12366
267.11        37.63912
267.56        37.14815
268.02        36.23276
268.47         34.7947
268.93        32.97842
269.38         31.0727
269.84        29.81266
270.30        29.38888
270.75        29.60771
271.21        30.04887
271.66        30.07588
272.12        29.51822
272.57        28.56271
273.03        27.54413
273.48        26.89105
273.94        26.71839
274.39        26.82173
274.85         26.9452
275.31         26.7177
275.76        26.06026
276.22        25.14723
276.67        24.17989
277.13        23.52484
277.58        23.21286
278.04         23.1554
278.49        23.13471
278.95        22.90049
279.40        22.38465
279.86        21.72748
280.31        21.06347
280.77        20.69252
281.22        20.61975
281.68        20.75448
282.13        20.92584
282.59        20.92699
283.04        20.71453
283.50        20.39606
283.95         20.0461
284.41        19.79205
284.86        19.66314
285.32        19.61657
285.77        19.65224
286.22        19.82951
286.68        20.11345
287.13        20.46638
287.59        20.75566
288.04        20.77702
288.50        20.52824
288.95        20.06398
289.41        19.56261
289.86        19.19671
290.32        19.06699
290.77        19.11127
291.22        19.30131
291.68        19.55051
292.13         19.8418
292.59        20.21261
293.04        20.69168
293.50        21.31814
293.95         22.0819
294.40         22.9346
294.86        23.83014
295.31        24.71575
295.77        25.58603
296.22        26.46664
296.68        27.36358
297.13        28.25321
297.58        29.15329
298.04        30.07966
298.49        31.10185
298.95        32.37506
299.40        33.90978
299.85         35.6576
300.31        37.47425
300.76        39.12724
301.21        40.53354
301.67        41.78102
302.12        42.93024
302.58        44.16568
303.03        45.51113
303.48        46.93461
303.94        48.46075
304.39        50.07167
304.84        51.76286
305.30        53.53866
305.75          55.283
306.20         56.8367
306.66        58.18876
307.11        59.33527
307.57        60.42852
308.02         61.5957
308.47        62.91857
308.93        64.35864
309.38        65.81919
309.83        67.19405
310.29        68.43344
310.74        69.53371
311.19        70.54459
311.65        71.54462
312.10        72.54341
312.55        73.53165
313.00        74.41116
313.46         75.0299
313.91        75.35654
314.36        75.46812
314.82        75.56634
315.27        75.91222
315.72        76.59365
316.18         77.5301
316.63        78.56275
317.08        79.38531
317.53        79.89738
317.99        80.16295
318.44         80.3371
318.89        80.68203
319.35        81.24168
319.80        81.96081
320.25        82.62491
320.70        82.88808
321.16         82.6896
321.61        82.15813
322.06        81.57311
322.51         81.3659
322.97        81.61633
323.42        82.22849
323.87        82.95646
324.32        83.37659
324.78         83.3559
325.23        83.05449
325.68        82.64346
326.13         82.4299
326.59        82.48623
327.04        82.74003
327.49        83.08944
327.94        83.39648
328.39        83.60885
328.85        83.76631
329.30        83.92947
329.75        84.04518
330.20        84.13715
330.66        84.19876
331.11        84.35958
331.56        84.76164
332.01        85.44139
332.46        86.33828
332.92        87.32202
333.37        88.31715
333.82        89.17312
334.27        89.90186
334.72        90.42063
335.17        90.62028
335.63         90.5119
336.08        90.18325
336.53        89.81326
336.98           89.73
337.43        90.02078
337.88        90.59829
338.34        91.34268
338.79        92.12728
339.24        92.84174
339.69        93.54756
340.14        94.13476
340.59        94.41549
341.05        94.38435
341.50        94.08186
341.95        93.77627
342.40        93.89651
342.85        94.52286
343.30         95.5372
343.75        96.65914
344.20         97.3831
344.66         97.5677
345.11        97.34443
345.56        96.93871
346.01        96.69534
346.46        96.71959
346.91         96.9093
347.36        97.16109
347.81        97.32169
348.26        97.35522
348.72        97.34654
349.17        97.34486
349.62        97.46878
350.07        97.73176
350.52        98.06393
350.97        98.38536
351.42        98.58971
351.87        98.64674
352.32        98.59602
352.77        98.45405
353.22        98.24752
353.67        98.00262
354.13        97.72988
354.58        97.45479
355.03        97.27535
355.48        97.19813
355.93        97.19018
356.38        97.17424
356.83        97.02249
357.28        96.70016
357.73        96.24766
358.18        95.70487
358.63        95.13731
359.08        94.58222
359.53        94.03455
359.98        93.51028
360.43        93.03453
360.88        92.59909
361.33        92.17968
361.78        91.76984
362.23        91.35543
362.68        90.92641
363.13        90.50188
363.58        90.00883
364.03        89.32985
364.48        88.46934
364.93        87.47499
365.38        86.52522
365.83        85.90987
366.28        85.67585
366.73        85.71126
367.18        85.82346
367.63        85.69381
368.08        85.23312
368.53         84.5582
368.98        83.74554
369.43        82.90633
369.88        82.10267
370.33        81.30249
370.78         80.5983
371.23        80.15283
371.68        79.98737
372.13        80.05878
372.58        80.22217
373.03        80.21428
373.48        79.95813
373.93         79.5285
374.38        79.00303
374.83        78.50874
375.28         78.0891
375.72        77.68586
376.17        77.33586
376.62        77.07808
377.07        76.90298
377.52        76.79482
377.97        76.67191
378.42        76.39599
378.87        75.94817
379.32        75.38942
379.77        74.78265
380.22        74.21646
380.67        73.71101
381.11        73.23054
381.56        72.79305
382.01        72.43603
382.46        72.16854
382.91        72.00923
383.36        71.85903
383.81        71.55564
384.26        71.07999
384.71        70.46847
385.15        69.88421
385.60        69.63977
386.05         69.7302
386.50        70.04662
386.95        70.33914
387.40        70.19162
387.85        69.55961
388.29        68.61627
388.74        67.70029
389.19         67.0246
389.64        66.62805
390.09        66.37926
390.54        66.29587
390.98        66.40973
391.43        66.68169
391.88        67.08463
392.33        67.37025
392.78        67.16447
393.23        66.47227
393.67        65.42879
394.12        64.44852
394.57        63.90825
395.02        63.88924
395.47        64.24967
395.91        64.84478
396.36        65.31037
396.81        65.51593
397.26        65.52415
397.71        65.35824
398.15        64.96813
398.60        64.47231
399.05        63.99374
399.50        63.55457
399.95        62.81279
400.39        62.17754
400.84        61.88361
401.29        61.99297
401.74        62.17305
402.18        62.32004
402.63        62.30749
403.08        62.21423
403.53        62.33467
403.97        62.66441
404.42        62.96926
404.87        63.12901
405.32         63.0006
405.76        62.54561
406.21        62.02733
406.66        61.55782
407.11        60.96353
407.55        60.47952
408.00        60.80586
408.45        61.76014
408.90        62.27468
409.34        62.10448
409.79        61.58835
410.24         60.9628
410.68         60.5854
411.13        60.54799
411.58        60.61971
412.03        60.77075
412.47        61.06044
412.92          61.406
413.37        61.80186
413.81        62.13039
414.26        62.25505
414.71        62.13552
415.15        61.79915
415.60        61.36794
416.05        61.06703
416.49        60.96645
416.94        61.03144
417.39         61.1374
417.83        61.05294
418.28        60.74975
418.73        60.31875
419.17        59.95152
419.62        59.95259
420.07        60.33845
420.51         60.9883
420.96         61.6792
421.41        61.99349
421.85        61.80457
422.30        61.46507
422.74        61.05517
423.19         60.4854
423.64        59.93422
424.08          60.076
424.53        60.77657
424.98        61.16581
425.42        61.13944
425.87        61.30177
426.31        61.64519
426.76        61.60933
427.21        61.36472
427.65        61.66194
428.10        62.42513
428.54        63.12131
428.99        63.69972
429.44        63.98845
429.88        64.01067
430.33        64.72424
430.77        65.54263
431.22        64.47291
431.66        62.06422
432.11        60.76321
432.56        60.87416
433.00        61.68225
433.45        62.98468
433.89        64.61736
434.34        65.38596
434.78        66.52898
435.23        63.29502
435.67        61.98812
436.12        63.82411
436.57        64.86724
437.01        65.47752
437.46        65.66302
437.90         65.5472
438.35        65.57742
438.79        65.72094
439.24        65.67668
439.68        65.47915
440.13        65.03053
440.57        64.71934
441.02        65.70776
441.46          67.576
441.91        68.64786
442.35        68.60036
442.80        67.78161
443.24        66.64325
443.69         66.9992
444.13        68.48589
444.58        68.59917
445.02        66.72842
445.47        66.51525
445.91        67.61964
446.36        68.02706
446.80        67.65455
447.24        67.55801
447.69        67.81931
448.13        68.11449
448.58        68.44652
449.02        68.83744
449.47        69.21408
449.91        69.47952
450.36        69.60779
450.80        69.60727
451.25        69.50686
451.69        69.32891
452.13        69.11617
452.58        68.87126
453.02        68.65758
453.47        68.60897
453.91        68.72556
454.36        68.98106
454.80        69.26699
455.24        69.29693
455.69        69.03611
456.13        68.70697
456.58        68.48229
457.02        67.98925
457.46        67.90067
457.91        68.24065
458.35        68.93898
458.79        69.26071
459.24        69.14248
459.68        68.88648
460.13        68.58196
460.57        68.23129
461.01        67.95311
461.46        67.61634
461.90        67.12177
462.34        67.44644
462.79        66.83588
463.23        66.70967
463.68        67.72802
464.12        68.28056
464.56        68.57335
465.01        68.68753
465.45        68.52982
465.89        68.33688
466.34          68.034
466.78        66.90044
467.22        65.51656
467.67        65.01881
468.11        66.42838
468.55        67.23237
468.99        67.37228
469.44        67.11367
469.88        66.63373
470.32        66.54271
470.77        66.80331
471.21        66.71812
471.65        66.27589
472.10        66.05823
472.54         66.1079
472.98        66.18805
473.42        66.29244
473.87        66.58893
474.31        66.89703
474.75        66.82909
475.20        66.51437
475.64        66.03094
476.08        66.36934
476.52        66.32533
476.97        66.15808
477.41        66.40366
477.85        66.89593
478.29         66.6201
478.74        66.84847
479.18        66.80511
479.62        66.08483
480.06         66.6513
480.50        66.86655
480.95        67.14831
481.39        67.06563
481.83          66.453
482.27        66.66269
482.72        66.30808
483.16         65.3942
483.60        65.71915
484.04         67.1391
484.48        67.57355
484.93        67.47479
485.37        68.76728
485.81        69.25152
486.25        68.17597
486.69         93.5396
487.14          75.763
487.58        46.43861
488.02        57.37691
488.46        65.19185
488.90        65.05725
489.34        66.46154
489.79        65.37837
490.23        67.66206
490.67        68.45029
491.11         67.4336
491.55        67.34425
491.99        67.80013
492.43        67.64379
492.88        66.96882
493.32        67.00409
493.76        67.24901
494.20        67.55105
494.64        67.66721
495.08        67.81938
495.52        68.03923
495.96        68.03502
496.41         67.7997
496.85        68.18415
497.29        68.94521
497.73        67.89202
498.17        65.97107
498.61         66.2931
499.05        68.83177
499.49        69.27225
499.93        69.13087
500.37        69.00109
500.82        68.72996
501.26        68.69316
501.70        68.72808
502.14        68.92451
502.58        69.10825
503.02        69.06646
503.46        68.77691
503.90        68.32464
504.34        67.88423
504.78        67.70287
505.22        67.83382
505.66        68.20743
506.10        68.65998
506.54         68.8595
506.98        68.71696
507.42         68.4333
507.86        68.19914
508.30        67.76884
508.74        68.06704
509.18        68.31417
509.62        68.64771
510.06         68.8587
510.50        68.89704
510.94        68.82021
511.38        68.69241
511.82        68.63078
512.26        68.66588
512.70        68.75358
513.14        68.85691
513.58        68.92455
514.02        68.93276
514.46        68.89739
514.90        68.83699
515.34        68.75864
515.78        68.66197
516.22        68.61733
516.66        68.61426
517.10        68.45639
517.54        68.14426
517.98        68.33919
518.42         68.1719
518.86        68.36283
519.30        68.63209
519.74        69.02407
520.18        69.42077
520.62        69.61221
521.06        69.57223
521.50        69.38663
521.93        69.13568
522.37        68.93085
522.81        68.82574
523.25        68.79493
523.69        68.84138
524.13        68.96068
524.57        69.13467
525.01        69.36479
525.45         69.5813
525.89        69.66684
526.32        69.59018
526.76        69.38046
527.20         69.1123
527.64        68.92767
528.08         68.8812
528.52        68.88181
528.96        68.85182
529.40        68.86098
529.83        68.92429
530.27        68.32493
530.71        68.47694
531.15        68.39072
531.59        68.48925
532.03        68.69493
532.46        68.97247
532.90        69.23463
533.34        69.42903
533.78        69.57363
534.22        69.65354
534.66        69.65532
535.09        69.57311
535.53        69.43881
535.97        69.26107
536.41        69.07798
536.85        68.91286
537.28        68.76759
537.72        68.66288
538.16         68.6397
538.60        68.69852
539.04        68.76974
539.47        68.81225
539.91        68.94796
540.35        69.08765
540.79        68.96245
541.22        68.63935
541.66        68.50411
542.10         68.5806
542.54        68.65857
542.97        68.72189
543.41        68.85537
543.85        69.03484
544.29        69.25904
544.72        69.42548
545.16        69.40443
545.60        69.17632
546.04        68.77655
546.47        68.38644
546.91        68.33598
547.35        68.66605
547.79        69.23872
548.22        69.79873
548.66        70.04872
549.10        69.86327
549.53        69.16775
549.97        68.30157
550.41        67.89823
550.84        68.05899
551.28        68.56642
551.72        69.23041
552.15        69.61251
552.59        69.56954
553.03        69.87263
553.46        69.43607
553.90        69.36163
554.34        69.35686
554.77        69.32636
555.21        69.24355
555.65        69.29662
556.08        69.56105
556.52         69.0976
556.96        69.52265
557.39        69.48616
557.83        69.48621
558.27        69.50138
558.70        69.55555
559.14        69.62399
559.57        69.70081
560.01        69.87467
560.45        70.08273
560.88        70.18446
561.32        70.14301
561.75         69.9159
562.19        69.61234
562.63         69.2147
563.06        68.86959
563.50        69.01536
563.93        69.51128
564.37        69.75153
564.80        69.65914
565.24        69.60028
565.68        69.60389
566.11        69.59264
566.55        69.62997
566.98        69.66407
567.42        69.71824
567.85        69.92986
568.29        70.32972
568.72        70.32273
569.16        70.16822
569.60        70.54878
570.03        71.12376
570.47        71.25475
570.90        71.18127
571.34        69.39981
571.77         70.2055
572.21        70.36984
572.64        69.95918
573.08        69.15827
573.51        65.80803
573.95        68.44135
574.38        73.04585
574.82        71.09496
575.25        70.64693
575.69        68.29893
576.12        67.20295
576.56        66.78403
576.99        68.04567
577.42        71.58389
577.86        71.24497
578.29        70.70569
578.73        74.38201
579.16        68.51746
579.60        62.68556
580.03        64.98028
580.47        69.39622
580.90        71.37538
581.33        70.12862
581.77        69.10805
582.20        76.15066
582.64        76.19651
583.07        64.53664
583.51         63.2444
583.94        62.12328
584.37        64.87439
584.81        67.98689
585.24        71.55408
585.68        73.26839
586.11        72.19803
586.54        67.17487
586.98         64.9708
587.41        65.57724
587.85        69.15707
588.28        71.81048
588.71        68.41255
589.15        66.05354
589.58        67.36343
590.01        67.33678
590.45        68.56403
590.88        69.34502
591.31        68.72761
591.75        68.15768
592.18        68.16525
592.61        69.79392
593.05        69.83623
593.48        72.91601
593.91        74.02888
594.35        68.46577
594.78        66.90963
595.21        66.23281
595.65        69.00996
596.08        71.80114
596.51        69.11544
596.94        67.10396
597.38        67.74571
597.81        70.42495
598.24        72.16792
598.68        70.83421
599.11        69.49635
599.54        72.40021
599.97        74.17447
600.41        68.82506
600.84        69.05247
601.27         70.6409
601.70        69.66871
602.14        69.77394
602.57        68.76006
603.00        69.25481
603.43         70.7777
603.87        72.25186
604.30        71.83904
604.73        69.83849
605.16        68.63388
605.60        69.18723
606.03        70.36597
606.46        71.66652
606.89        71.36505
607.32        69.23016
607.76        68.94509
608.19        71.45226
608.62        70.59772
609.05        69.40104
609.48        69.91382
609.92        69.81571
610.35        69.41744
610.78        71.60566
611.21        72.27392
611.64        68.98121
612.07        69.71622
612.50        70.21696
612.94        70.74141
613.37        70.22288
613.80        70.35226
614.23        71.11407
614.66        70.80397
615.09        70.61107
615.52        70.63657
615.96        70.97691
616.39        71.20643
616.82        70.08515
617.25        69.81254
617.68        70.53342
618.11        71.17553
618.54        71.57399
618.97        71.05132
619.40         70.0171
619.84        69.88587
620.27        70.82678
620.70        71.55441
621.13        71.86521
621.56        71.15986
621.99        69.82217
622.42          70.713
622.85        72.68587
623.28        72.65443
623.71        71.89723
624.14        71.78584
624.57        71.48051
625.00         71.3626
625.43        71.50025
625.86        70.95211
626.29        71.16525
626.72         71.5572
627.15        71.28677
627.58        71.31036
628.01        71.26269
628.44        71.40179
628.87        71.80197
629.30         71.5764
629.73        72.20512
630.16        72.39678
630.59        71.87875
631.02        71.36177
631.45         70.8164
631.88        70.55688
632.31        70.49255
632.74        70.68752
633.17        70.98895
633.60        71.18842
634.03        71.21898
634.46        71.14761
634.89        71.01443
635.32        70.88128
635.75        70.77941
636.18        70.67863
636.61        70.60085
637.04        70.59197
637.47        70.65245
637.89        70.78309
638.32        70.91108
638.75        70.95699
639.18        70.89675
639.61         70.7569
640.04        70.57273
640.47        70.40285
640.90        70.27432
641.33        70.17077
641.76        70.07459
642.18        70.05786
642.61        70.11833
643.04        70.08191
643.47        69.90504
643.90         70.4249
644.33        70.17952
644.76        70.33526
645.18        70.43153
645.61        70.44484
646.04        70.35887
646.47        70.18565
646.90        70.01871
647.33        69.98364
647.75        70.12815
648.18        70.37578
648.61         70.5769
649.04        70.67419
649.47        70.54065
649.89        69.75768
650.32         68.7532
650.75        68.56454
651.18        69.22278
651.61        70.10607
652.03        70.78393
652.46        70.81515
652.89        70.52194
653.32         69.9013
653.74        69.28082
654.17         70.6694
654.60        71.59055
655.03        69.21196
655.46        70.08427
655.88        74.17465
656.31        79.13981
656.74        181.6274
657.16        118.1015
657.59        41.46637
658.02        30.87764
658.45        53.20092
658.87        68.16537
659.30        71.00919
659.73        70.75441
660.15        67.82653
660.58        70.56128
661.01        72.36126
661.44        70.23631
661.86        69.45154
662.29        69.24123
662.72        69.89581
663.14        71.19252
663.57        71.26218
664.00        70.28739
664.42        70.09062
664.85        70.72119
665.27        71.00964
665.70        70.84986
666.13        70.52489
666.55        70.45108
666.98        70.14004
667.41        69.82142
667.83        69.72523
668.26        69.89619
668.69         70.2261
669.11        70.52906
669.54        70.86097
669.96        70.50715
670.39         70.0923
670.82        69.61419
671.24        69.39861
671.67        69.55373
672.09        69.99702
672.52        70.44791
672.94        70.92867
673.37        70.21957
673.80        69.98282
674.22        69.94576
674.65        69.88474
675.07         69.7985
675.50        69.70245
675.92        69.63528
676.35        69.68953
676.77        69.86868
677.20         70.0645
677.62        70.25134
678.05        70.39309
678.47        70.46375
678.90         70.4884
679.32        70.48499
679.75        70.35435
680.17        70.38356
680.60         70.3427
681.02        70.29768
681.45         70.1802
681.87        69.99727
682.30        69.82459
682.72        69.71384
683.15        69.62687
683.57        69.65618
684.00        69.98178
684.42        70.62011
684.85        70.93044
685.27        70.88173
685.70        70.71604
686.12        70.51951
686.54        70.40124
686.97        70.39559
687.39        70.48828
687.82         70.5957
688.24        70.63486
688.66        70.56367
689.09        70.41822
689.51        70.28846
689.94        70.28864
690.36        70.44878
690.78        70.71549
691.21          70.991
691.63        71.13013
692.06         71.0967
692.48        70.93972
692.90        70.74272
693.33         70.6285
693.75        70.63533
694.17         70.7314
694.60        70.87773
695.02        70.99786
695.44        71.03144
695.87        71.15963
696.29        71.39088
696.71        71.20638
697.14        70.78607
697.56        71.27837
697.98        72.41264
698.41        72.21504
698.83        71.43168
699.25        70.91285
699.68        70.94611
700.10        70.84607
700.52        70.63633
700.94        70.69718
701.37        70.98621
701.79        71.32602
702.21         71.6336
702.64        71.96355
703.06        72.19828
703.48        72.14275
703.90        71.79372
704.33          71.215
704.75        70.59444
705.17        70.32568
705.59         70.5068
706.01        70.91167
706.44        71.35077
706.86        72.12579
707.28        72.18065
707.70        72.32537
708.12        72.31066
708.55        72.20383
708.97        72.01395
709.39        71.73074
709.81        71.43954
710.23        71.28201
710.66        71.29807
711.08        71.49411
711.50        71.74297
711.92        71.82534
712.34        71.69127
712.76        71.42503
713.19         71.1832
713.61        71.05392
714.03        71.38973
714.45        71.84863
714.87        72.31974
715.29        72.47514
715.71        72.25021
716.13        71.75124
716.56        71.17264
716.98         70.8648
717.40        70.91558
717.82        71.22557
718.24        71.64656
718.66        71.92518
719.08        71.98213
719.50         71.8926
719.92        71.73968
720.34        71.67371
720.76        71.73911
721.19        71.76383
721.61        71.92598
722.03        72.01785
722.45        72.07775
722.87         72.1159
723.29        72.14991
723.71        72.19592
724.13        72.25542
724.55         72.3242
724.97         72.3699
725.39         72.3453
725.81        72.24751
726.23        72.09628
726.65        71.95544
727.07         71.9211
727.49        72.01734
727.91        72.22485
728.33        72.47106
728.75        72.63203
729.17        72.66775
729.59        72.59946
730.01        72.51494
730.43        72.54714
730.85         72.7301
731.27        73.05283
731.69        73.37987
732.10        73.47271
732.52        73.28269
732.94        72.92281
733.36         72.6134
733.78        72.55896
734.20        72.81448
734.62         73.6419
735.04         74.7075
735.46        74.70061
735.88        73.85747
736.30        73.90761
736.72        74.97873
737.13        75.40054
737.55        74.95225
737.97        74.96363
738.39        75.38015
738.81        74.49274
739.23        72.85424
739.65        73.59669
740.06        76.19583
740.48        76.56061
740.90        74.76006
741.32        74.02185
741.74        74.60666
742.16         74.9146
742.57        74.97745
742.99        75.63931
743.41        76.68278
743.83        77.30109
744.25        77.36018
744.67        77.05971
745.08        76.63563
745.50        76.47769
745.92        76.70596
746.34        77.17966
746.75        77.72725
747.17        78.06159
747.59        78.12952
748.01        78.02741
748.42        77.91986
748.84         78.0848
749.26        78.59026
749.68        79.19764
750.09        79.77335
750.51        80.38763
750.93        80.84682
751.35        80.53071
751.76        79.66305
752.18        79.31859
752.60        79.50842
753.01        79.46103
753.43        79.21495
753.85        79.30399
754.27        79.73363
754.68        80.64841
755.10        81.18709
755.52        81.82312
755.93        82.25217
756.35        82.45412
756.77        82.51493
757.18        82.48471
757.60        82.40302
758.02        82.61087
758.43        82.86815
758.85        82.24662
759.26        80.56644
759.68        80.65834
760.10        82.12138
760.51         82.7052
760.93        81.96445
761.34        81.22916
761.76        80.75381
762.18        80.14355
762.59        79.68976
763.01        80.08186
763.42         81.2468
763.84         82.0168
764.26        82.24178
764.67        82.42179
765.09        82.50994
765.50        82.31774
765.92         81.8397
766.33        80.68486
766.75        79.31523
767.16        78.95896
767.58         79.7251
768.00        81.10145
768.41        82.76898
768.83           83.98
769.24        84.26196
769.66        83.83836
770.07        83.00993
770.49        81.32445
770.90        79.43184
771.32        80.29498
771.73        83.15623
772.15        82.75425
772.56        79.52503
772.97        78.63615
773.39        80.08599
773.80        80.54437
774.22        79.83955
774.63        79.95152
775.05        80.75822
775.46        81.22489
775.88        81.19862
776.29        80.95879
776.70        80.62556
777.12        80.43509
777.53        80.46902
777.95        80.59559
778.36        80.69335
778.77        80.55538
779.19        80.18755
779.60         79.6805
780.02        79.23689
780.43        79.22054
780.84        79.75157
781.26        80.32312
781.67         80.8482
782.09         82.0033
782.50        83.25023
782.91        82.34748
783.33        79.97322
783.74        79.13968
784.15        80.01205
784.57        80.60837
784.98        80.63277
785.39        80.62156
785.81        80.50283
786.22        79.98157
786.63        79.39713
787.04        79.40247
787.46        80.06142
787.87        81.15701
788.28         82.3238
788.70        82.93661
789.11        82.83389
789.52        82.23807
789.93        81.46336
790.35        80.91684
790.76        80.74314
791.17         80.9352
791.58        81.31693
792.00        81.45309
792.41          81.239
792.82        80.93355
793.23        80.76768
793.65        80.49477
794.06        80.37633
794.47        81.70176
794.88        83.64325
795.29         83.3166
795.71        80.93263
796.12        78.77077
796.53        77.52787
796.94        77.05722
797.35        77.52054
797.76        78.97971
798.18        80.73663
798.59        81.75143
799.00        81.61843
799.41        80.47616
799.82        78.92572
800.23         78.0695
800.64        78.16367
801.06        78.78756
801.47        79.68845
801.88        80.33318
802.29        80.52374
802.70        80.46721
803.11        80.25936
803.52         80.0265
803.93        79.84872
804.34        79.63577
804.75         79.4811
805.17        79.62013
805.58        80.11296
805.99        80.69505
806.40        81.14596
806.81        81.60903
807.22        81.74052
807.63        80.46384
808.04        78.39014
808.45        77.48951
808.86        77.98051
809.27        78.96013
809.68        79.97085
810.09        80.51683
810.50         80.3567
810.91        79.67259
811.32         78.7949
811.73        78.25196
812.14        78.19535
812.55        78.41795
812.96        78.83105
813.37        79.27196
813.78        79.63541
814.19        80.02566
814.60        80.24495
815.01         79.9696
815.42        79.18977
815.83        77.96508
816.24        76.75555
816.65        76.38098
817.05        77.07774
817.46        78.57893
817.87        80.29665
818.28        81.16376
818.69        80.87394
819.10        79.68208
819.51        78.20045
819.92        77.47718
820.33        77.79696
820.74        78.84767
821.14         80.0651
821.55        80.44023
821.96        79.77298
822.37        78.42956
822.78        76.97147
823.19        76.21275
823.60        76.36267
824.00        77.21743
824.41        78.33009
824.82        79.04182
825.23        79.08369
825.64        78.67525
826.04        78.08762
826.45        77.72078
826.86         77.6809
827.27        77.80197
827.68        77.96626
828.08        78.02831
828.49        77.87086
828.90        77.63176
829.31        77.32606
829.72        76.96133
830.12        76.60822
830.53         76.2442
830.94        76.02393
831.35        76.15085
831.75        76.68237
832.16        77.49867
832.57        78.41935
832.97        79.04496
833.38         79.1704
833.79        78.89611
834.20        78.43965
834.60        78.13986
835.01        78.11888
835.42        78.28411
835.82        78.47842
836.23        78.35571
836.64        77.88969
837.04        77.22105
837.45        76.60439
837.86        76.43858
838.26        76.81062
838.67        77.54363
839.08        78.39444
839.48        78.92297
839.89        78.95103
840.29        78.63603
840.70        78.11086
841.11         77.5603
841.51        77.08228
841.92         76.6075
842.33        76.24284
842.73        76.17818
843.14        76.39748
843.54        76.89303
843.95        77.43314
844.35        77.68139
844.76        77.53199
845.17        77.08934
845.57        76.52612
845.98        76.12707
846.38        75.97569
846.79        75.97015
847.19        76.06629
847.60        76.09846
848.00        76.05479
848.41        75.96584
848.81        75.89874
849.22        75.86613
849.62        75.92947
850.03        76.08683
850.43        76.33858
850.84        76.60075
851.24        76.88811
851.65         77.0307
852.05        77.25611
852.46         77.7668
852.86        78.56549
853.27        79.58875
853.67        80.23392
854.07        79.70606
854.48        78.01628
854.88        75.47076
855.29        72.95497
855.69        71.73939
856.10        72.08069
856.50        73.79957
856.90          76.218
857.31        77.74777
857.71        77.87431
858.12        76.99309
858.52        75.73711
858.92        74.94481
859.33        74.81786
859.73        75.10138
860.13        75.71546
860.54        76.49736
860.94        77.39212
861.34        78.41169
861.75        79.34756
862.15        79.95742
862.55        80.14204
862.96         79.9222
863.36        79.49239
863.76        79.17597
864.17        79.09937
864.57        79.25564
864.97        79.56075
865.38         79.8634
865.78        80.15943
866.18        80.40723
866.58        80.69618
866.99        81.15387
867.39        81.84263
867.79        82.74039
868.19        83.47083
868.60        83.35434
869.00        82.27884
869.40        80.46047
869.80        78.75971
870.21        78.51288
870.61        80.09049
871.01        83.08818
871.41        86.49666
871.81        88.57553
872.22        88.81606
872.62        87.70467
873.02        86.10471
873.42        85.51601
873.82        86.15395
874.22        87.31308
874.63        88.53968
875.03        88.95296
875.43        88.16145
875.83        87.31878
876.23        85.49395
876.63        84.79313
877.03         85.2507
877.44        87.12936
877.84        102.8362
878.24        94.54227
878.64        94.36896
879.04        93.38504
879.44        89.30644
879.84        87.36932
880.24        91.12983
880.64        93.54292
881.04         95.3204
881.44        96.33392
881.84        95.66927
882.24        93.76664
882.65        91.79894
883.05        90.99721
883.45        91.58237
883.85        93.39866
884.25        95.70571
884.65        96.98126
885.05        96.75306
885.45         95.5528
885.85        94.15617
886.25        93.61938
886.65        94.15762
887.05        95.38046
887.45        96.83592
887.85        97.73453
888.25        97.79288
888.65        97.32738
889.04        96.54168
889.44        95.78223
889.84         95.1868
890.24         94.6144
890.64        94.22517
891.04         94.2872
891.44          94.794
891.84        95.70967
892.24        96.63079
892.64        96.79807
893.04        96.10354
893.44        94.87547
893.83        93.63286
894.23        93.14187
894.63        93.53755
895.03        94.51596
895.43        95.90788
895.83        97.36863
896.23         98.6488
896.63        99.84127
897.02         100.539
897.42        100.1057
897.82        98.55412
898.22        96.13293
898.62        93.70319
899.01        92.53458
899.41        92.89046
899.81        94.36434
900.21        96.25285
900.61        97.38408
901.00         97.4169
901.40        96.71651
901.80         95.7215
902.20        95.11979
902.59        95.11402
902.99        95.45378
903.39        95.89924
903.79        96.06556
904.18        95.84672
904.58        95.46413
904.98         95.1032
905.38        95.02617
905.77        95.26682
906.17        95.67163
906.57        96.15167
906.96        96.64276
907.36        97.03347
907.76        97.37846
908.15        97.52557
908.55        97.10788
908.95        96.15658
909.34        94.75752
909.74        93.38667
910.14        92.62199
910.53        92.62792
910.93        93.29474
911.33        94.31526
911.72        95.11414
912.12         95.4182
912.52         95.3635
912.91        95.19036
913.31        95.21558
913.70        95.54229
914.10        96.04629
914.49        96.48754
914.89        96.24759
915.29        95.21284
915.68        93.63912
916.08        92.24168
916.47        91.55764
916.87        91.65924
917.26        92.38622
917.66        93.22397
918.05        93.40061
918.45        92.73485
918.84        91.50034
919.24        90.32642
919.64        90.11466
920.03        91.06824
920.42        92.88255
920.82        94.93066
921.21        96.26295
921.61        96.41369
922.00        95.73787
922.40        94.58047
922.79        93.40787
923.19        92.45575
923.58        91.52823
923.98        90.60638
924.37        90.06101
924.77        90.15855
925.16        88.83728
925.55        90.00054
925.95        90.98762
926.34        92.86122
926.74         95.1465
927.13        97.22189
927.52        97.83747
927.92        96.87397
928.31        94.77161
928.70        92.21284
929.10        90.35718
929.49        89.52286
929.89         89.4142
930.28        90.01302
930.67        91.27034
931.07        92.88995
931.46        94.92311
931.85        96.65427
932.24        97.02279
932.64        95.87619
933.03         93.3643
933.42        90.14138
933.82        87.77352
934.21         86.7915
934.60        86.88181
934.99        87.44408
935.39        87.83131
935.78        87.93619
936.17        87.63692
936.56        86.76699
936.96        87.79795
937.35         86.9035
937.74        87.02148
938.13        87.15827
938.53        87.71162
938.92        88.71693
939.31        90.22703
939.70         91.7906
940.09        92.12064
940.49        90.89374
940.88        88.70651
941.27        86.55807
941.66        85.61467
942.05        86.00698
942.44        87.32697
942.84        89.13663
943.23        90.73753
943.62        91.70013
944.01        92.17549
944.40        92.16455
944.79        91.66808
945.18        90.71777
945.57        89.24216
945.97        87.36806
946.36        85.66341
946.75        84.61002
947.14        84.20717
947.53        84.38265
947.92        84.98881
948.31        85.94884
948.70        87.34347
949.09        88.91151
949.48        89.95184
949.87        90.11202
950.26        89.44389
950.65        88.43285
951.04        87.90315
951.43        88.05465
951.82        88.69423
952.21        89.32446
952.60        89.13744
952.99        87.97107
953.38        86.11199
953.77        84.21914
954.16        83.21297
954.55        83.27981
954.94        84.22604
955.33        85.31197
955.72        85.29372
956.11        83.90705
956.50        81.48936
956.89        79.13995
957.28        78.86978
957.66         81.2354
958.05        85.27451
958.44        89.58655
958.83         92.1176
959.22        92.33434
959.61        90.82307
960.00        88.31552
960.39        86.01118
960.78        84.40285
961.16        83.23578
961.55        82.35907
961.94         81.5664
962.33        80.82809
962.72        80.33636
963.11        80.26135
963.49        80.75674
963.88        81.80336
964.27        83.35571
964.66        84.96511
965.04         85.7254
965.43        85.22028
965.82        83.75771
966.21        82.13229
966.60        81.39253
966.98        81.72476
967.37        82.82885
967.76        84.11341
968.15        84.42667
968.53         83.4781
968.92        81.68967
969.31        79.82227
969.69         78.8463
970.08        78.96041
970.47        79.89579
970.86        81.11206
971.24        81.67056
971.63        81.25195
972.02        80.07082
972.40        78.77523
972.79        78.50854
973.17        79.70196
973.56        81.90858
973.95        84.26505
974.33        85.14546
974.72        84.05408
975.11        81.62714
975.49        78.96098
975.88        77.47797
976.26        77.40149
976.65        78.41277
977.04        79.80361
977.42        79.89122
977.81        78.12119
978.19        75.18597
978.58        72.76888
978.96        72.55664
979.35        74.79353
979.74        79.12251
980.12        84.58307
980.51        87.83849
980.89        87.85826
981.28         85.5467
981.66        82.48306
982.05        80.68252
982.43        80.48495
982.82        81.19231
983.20        82.47189
983.59        83.95744
983.97        85.53642
984.35        87.40746
984.74        89.06783
985.12        89.68452
985.51        88.66563
985.89        86.15828
986.28         82.7746
986.66        79.52209
987.04        77.15649
987.43        75.66796
987.81        74.88689
988.20        74.48579
988.58        74.28059
988.96        74.27637
989.35        74.75954
989.73        76.33125
990.12        78.56622
990.50        80.88699
990.88        82.01851
991.27        81.28958
991.65        79.12595
992.03         75.7704
992.42         72.4018
992.80        71.00924
993.18        72.21004
993.56        74.74306
993.95        77.60106
994.33        80.15113
994.71        82.03662
995.10        83.70403
995.48        84.65988
995.86         83.9287
996.24        81.32932
996.63         76.7196
997.01         71.3394
997.39        68.94776
997.77        71.20799
998.15        77.26498
998.54        83.91636
998.92        86.78941
999.30        84.58782
999.68        78.51011
1000.06        70.31612
1000.45        64.35657
1000.83        62.44276
1001.21        63.06335
1001.59        65.22717
1001.97        67.99789
1002.35        71.08076
1002.73        75.43751
1003.12        79.67537
1003.50        79.49827
1003.88        73.46606
1004.26        63.91329
1004.64        55.34767
1005.02        51.55323
1005.40        52.77834
1005.78        58.98457
1006.16        70.73275
1006.54        81.81683
1006.92        85.00694
1007.30        82.73471
1007.69        79.12903
1008.07        76.89899
1008.45        75.93431
1008.83        74.96001
1009.21         72.2466
1009.59        60.64817
1009.97        22.93843
1010.35        -32.1553
1010.73       -26.09431
1011.11          5.1794
1011.49        27.98434
1011.86        44.53801
1012.24         54.2202
1012.62        59.50741
1013.00        62.59206
1013.38        64.60502
1013.76        66.91444
1014.14        72.32402
1014.52        82.52618
1014.90        97.45248
1015.28        112.8576
1015.66        119.0919
1016.04        110.6304
1016.41        89.49974
1016.79        67.05621
1017.17         54.3358
1017.55        51.24875
1017.93        52.40074
1018.31        55.16508
1018.69        58.52753
1019.06        62.72461
1019.44        68.54191
1019.82        77.25182
1020.20        88.12956
1020.58        99.42815
1020.95        109.4334
1021.33         115.089
1021.71        36.30731
1022.09        96.16509
1022.46        100.2933
1022.84        101.8831
1023.22        104.2434
1023.60        110.2031
1023.97        163.1604
1024.35        74.17944
1024.73        84.52949
