SpectraSmart Spectrum 2.9.0.0
--------- Device Information -----------
Spectrum Name :  反射率_0
Saving Time :  2024/04/26 01:48:57
Spectro-Module Model Name : SE2030-DUVN
Spectro-Module Serial Number : OS361AC55029948
Wavelength Start : 200
Wavelength End : 1025
Wavelength Unit : Wavelength(nm)
Spectrum Unit : Reflectance(%)
-----------Spectrum Setting ------------
Integration Time : 20ms
Average : 10
Boxcar : 0
Background removal :  enabled
linearity correction :  enabled
SC :  disabled
Intensity correction :  disabled
DWT denoise :  enabled
savitzky-golay :  disabled
FFT :  disabled
Running average :  disabled
Kalman :  disabled
High pass :  disabled
---------------BEGIN--------------------
Wavelength(nm)             Reflectance(%)
200.29               0
200.75        97.06737
201.21        90.19334
201.67        82.10223
202.13        77.33804
202.58        76.50957
203.04        78.79361
203.50        82.43006
203.96        84.34192
204.42        83.81763
204.88         82.0263
205.34        80.57165
205.80        81.27381
206.26        85.11628
206.72        94.20509
207.18        111.9915
207.64        127.3437
208.10        116.5019
208.55        94.61675
209.01         80.6938
209.47         75.5506
209.93        75.25322
210.39        77.94582
210.85        80.94662
211.31         79.0473
211.77        71.15914
212.23        59.59388
212.69        48.93119
213.14        46.11469
213.60        52.19289
214.06        65.15061
214.52        80.42057
214.98        90.91304
215.44        94.42406
215.90        92.86491
216.36        88.70042
216.81         85.2892
217.27          84.008
217.73        83.92549
218.19        83.44395
218.65        80.37851
219.11        73.73952
219.57         62.5237
220.02        48.76446
220.48         42.3493
220.94        48.20543
221.40         63.2019
221.86        76.14444
222.32        75.74753
222.77        64.06442
223.23        47.93983
223.69        34.38214
224.15        30.46466
224.61         35.3871
225.06        45.44806
225.52        56.04536
225.98        61.21439
226.44         59.7954
226.90        54.30095
227.36        47.60603
227.81        43.56799
228.27        43.36482
228.73        45.33833
229.19        48.23676
229.65        50.31545
230.10        51.04208
230.56        51.19416
231.02        51.07638
231.48        50.91935
231.93        50.81176
232.39        50.64043
232.85        50.47464
233.31        50.54577
233.77        50.88797
234.22        51.48409
234.68        52.22435
235.14        52.77191
235.60        53.03047
236.05        53.12513
236.51        53.20363
236.97        53.49702
237.43        54.13759
237.88         55.1686
238.34        56.68032
238.80        58.89674
239.26        61.67048
239.71        65.00928
240.17        68.02118
240.63         69.8393
241.08        70.39969
241.54        69.79078
242.00        69.07968
242.46        69.97216
242.91        73.93398
243.37        83.97692
243.83        113.1854
244.28         195.537
244.74        265.4712
245.20        198.5568
245.66        150.6609
246.11         137.169
246.57          141.63
247.03        168.2564
247.48         253.513
247.94        221.1546
248.40        132.1905
248.85        104.0042
249.31         95.3834
249.77        93.84405
250.22        95.98631
250.68        101.2443
251.14        109.3982
251.59        115.1826
252.05        113.2285
252.51        106.1935
252.96         98.0359
253.42        92.98098
253.88        90.78595
254.33        89.86713
254.79        91.27087
255.25         95.7261
255.70        101.8729
256.16        108.7792
256.62        113.6753
257.07        113.8005
257.53        110.3149
257.99        104.3662
258.44        98.12061
258.90         95.1852
259.35        94.55044
259.81        94.97977
260.27        94.52024
260.72        91.30034
261.18        86.21567
261.63        80.06042
262.09         74.3379
262.55        69.95558
263.00        66.91189
263.46        64.89307
263.91        63.27067
264.37        61.79809
264.83         60.1627
265.28        58.34508
265.74        56.48982
266.19        54.51004
266.65        52.71783
267.11        51.13661
267.56        49.71874
268.02        48.39689
268.47        47.03448
268.93         45.6425
269.38        44.31736
269.84        43.44521
270.30        43.07777
270.75        43.09946
271.21        43.16448
271.66           42.75
272.12        41.75031
272.57        40.32787
273.03        38.84311
273.48        37.75119
273.94        37.20132
274.39        37.00201
274.85        36.94773
275.31        36.70401
275.76         36.1735
276.22        35.50158
276.67        34.78802
277.13        34.28712
277.58        33.97893
278.04         33.8033
278.49        33.59082
278.95        33.19856
279.40        32.56615
279.86         31.8329
280.31        31.05211
280.77        30.43036
281.22        29.96938
281.68        29.64212
282.13        29.40698
282.59        29.25711
283.04         29.1551
283.50        29.14541
283.95        29.12992
284.41        28.98792
284.86        28.69793
285.32        28.31249
285.77        27.97847
286.22        27.99207
286.68        28.36295
287.13        28.94791
287.59        29.51022
288.04        29.67866
288.50        29.41542
288.95         28.8335
289.41        28.15076
289.86        27.57438
290.32        27.24127
290.77        27.07462
291.22        27.09308
291.68        27.28014
292.13        27.62624
292.59        28.16129
293.04        28.85359
293.50        29.64415
293.95        30.49367
294.40        31.37185
294.86        32.28921
295.31        33.28324
295.77        34.36233
296.22        35.51305
296.68        36.66566
297.13        37.67734
297.58        38.54067
298.04        39.31924
298.49        40.15534
298.95        41.32111
299.40        42.85536
299.85        44.67268
300.31        46.59109
300.76        48.31374
301.21        49.73465
301.67         50.9694
302.12        52.07182
302.58        53.23087
303.03        54.46953
303.48        55.75811
303.94        57.14466
304.39        58.64385
304.84          60.257
305.30        61.97337
305.75        63.64986
306.20         65.0932
306.66        66.28445
307.11        67.22752
307.57        68.08749
308.02        68.99185
308.47        70.03903
308.93        71.20634
309.38        72.40816
309.83        73.56145
310.29        74.62856
310.74        75.59523
311.19        76.53194
311.65        77.54528
312.10        78.63239
312.55        79.76484
313.00        80.77179
313.46        81.38735
313.91        81.55591
314.36        81.38908
314.82         81.1671
315.27        81.26785
315.72        81.81413
316.18        82.69867
316.63        83.72163
317.08        84.50392
317.53        84.92895
317.99        85.09141
318.44        85.18358
318.89        85.52328
319.35         86.1613
319.80        87.01196
320.25        87.82615
320.70        88.20351
321.16         88.0631
321.61        87.55396
322.06        86.95301
322.51        86.69115
322.97        86.85546
323.42        87.34673
323.87        87.97305
324.32        88.40112
324.78        88.51912
325.23        88.48074
325.68         88.3604
326.13        88.30427
326.59        88.34891
327.04        88.45716
327.49        88.66393
327.94        89.06792
328.39        89.66427
328.85        90.41409
329.30        91.19167
329.75        91.61154
330.20        91.60865
330.66         91.2811
331.11        90.94469
331.56         91.0387
332.01        91.69236
332.46        92.76051
332.92        94.02126
333.37        95.24329
333.82        96.20034
334.27        96.96178
334.72        97.45547
335.17        97.58156
335.63        97.37324
336.08        96.91518
336.53        96.42635
336.98        96.31248
337.43         96.6782
337.88        97.41494
338.34        98.37687
338.79        99.39371
339.24        100.3211
339.69        101.2145
340.14        101.9217
340.59        102.1911
341.05        102.0109
341.50        101.4476
341.95        100.8191
342.40         100.623
342.85         100.967
343.30        101.7292
343.75        102.6506
344.20        103.2574
344.66        103.4165
345.11        103.2522
345.56        102.9508
346.01        102.7949
346.46        102.8649
346.91        103.0576
347.36        103.2848
347.81        103.4243
348.26        103.4458
348.72        103.4254
349.17        103.3822
349.62         103.388
350.07        103.4586
350.52        103.5525
350.97        103.6549
351.42        103.7529
351.87        103.8313
352.32        103.8952
352.77         103.897
353.22        103.7624
353.67        103.4841
354.13        103.0939
354.58        102.6489
355.03        102.3022
355.48        102.0782
355.93        101.9312
356.38        101.7602
356.83        101.4036
357.28        100.8247
357.73        100.0815
358.18        99.26318
358.63        98.50537
359.08        97.85886
359.53        97.30132
359.98        96.78339
360.43        96.22655
360.88        95.60358
361.33        94.92143
361.78        94.25367
362.23        93.71626
362.68        93.32629
363.13         93.0563
363.58         92.7464
364.03        92.14703
364.48        91.22501
364.93        90.06103
365.38        88.89853
365.83        88.13197
366.28        87.83893
366.73         87.8832
367.18        88.00994
367.63        87.80094
368.08        87.15285
368.53        86.22285
368.98        85.17841
369.43        84.26596
369.88        83.56704
370.33        82.99624
370.78        82.54508
371.23        82.21046
371.68        81.96744
372.13        81.82712
372.58         81.7142
373.03        81.48653
373.48        81.11744
373.93        80.64945
374.38        80.15331
374.83         79.7441
375.28        79.45017
375.72        79.21728
376.17        79.04627
376.62        78.91416
377.07        78.78807
377.52        78.65052
377.97         78.4471
378.42        78.09213
378.87        77.58523
379.32        76.98611
379.77        76.32352
380.22        75.63239
380.67        74.93025
381.11        74.19961
381.56        73.53876
382.01        73.11256
382.46        72.95354
382.91         73.0439
383.36        73.16449
383.81        72.95918
384.26        72.37128
384.71        71.50016
385.15        70.64164
385.60        70.30765
386.05        70.52977
386.50        71.12782
386.95        71.74046
387.40        71.75991
387.85        71.08945
388.29        69.98029
388.74        68.85455
389.19        68.01666
389.64        67.53331
390.09        67.24968
390.54        67.17079
390.98        67.31011
391.43        67.61156
391.88        68.05017
392.33        68.39439
392.78        68.24506
393.23        67.59418
393.67        66.70029
394.12        65.90997
394.57        65.22443
395.02        64.86041
395.47        65.34444
395.91        66.47423
396.36        67.17594
396.81         67.2569
397.26        67.18173
397.71        67.03209
398.15        66.63995
398.60        66.13114
399.05        65.73352
399.50        65.41495
399.95        64.55569
400.39        63.65152
400.84        63.41573
401.29        63.86971
401.74        64.08817
402.18        63.99047
402.63         64.0144
403.08        64.21484
403.53        64.45039
403.97        64.70276
404.42        64.96149
404.87        65.09287
405.32        64.88329
405.76        64.31406
406.21        63.56545
406.66         62.8436
407.11        62.37549
407.55        62.29993
408.00        62.66544
408.45        63.29465
408.90        63.80186
409.34         63.9209
409.79        63.38607
410.24        62.50739
410.68        62.11797
411.13        62.32415
411.58         62.6836
412.03        63.07893
412.47        63.48066
412.92        63.76155
413.37        63.96257
413.81        64.02827
414.26         63.9112
414.71        63.60984
415.15         63.1362
415.60        62.62954
416.05        62.33749
416.49        62.32526
416.94        62.55222
417.39        62.84552
417.83        62.88473
418.28        62.61179
418.73        62.13236
419.17        61.66696
419.62          61.572
420.07        61.87645
420.51        62.44646
420.96        63.05729
421.41        63.27076
421.85        62.96543
422.30         62.5736
422.74        62.16779
423.19        61.51923
423.64        60.86499
424.08        61.15803
424.53        62.22925
424.98        62.87199
425.42        62.93539
425.87        63.20566
426.31        63.67304
426.76        63.68841
427.21        63.41982
427.65        63.64923
428.10        64.32896
428.54        64.91402
428.99        65.36687
429.44        65.65827
429.88        65.73075
430.33        66.19208
430.77        66.59737
431.22        65.44102
431.66        63.25671
432.11        62.28335
432.56        62.68953
433.00        63.47525
433.45        64.53783
433.89        66.11057
434.34        66.88623
434.78        68.51717
435.23         65.0667
435.67        62.81749
436.12        65.53254
436.57        66.55241
437.01        67.03044
437.46        67.23205
437.90        67.35332
438.35        66.84837
438.79        67.22314
439.24        67.12651
439.68        67.05965
440.13        66.79131
440.57        66.61314
441.02         67.7397
441.46        69.63759
441.91        70.11913
442.35        69.22177
442.80        68.39598
443.24         67.9301
443.69         68.5652
444.13        69.91882
444.58        69.78291
445.02        68.38744
445.47        68.23983
445.91        69.24872
446.36        69.56232
446.80        69.12093
447.24        68.93542
447.69        69.09628
448.13         69.3123
448.58        69.59267
449.02        69.96274
449.47        70.35344
449.91        70.65967
450.36        70.84749
450.80        70.92879
451.25        70.89732
451.69        70.71758
452.13        70.43025
452.58        70.06214
453.02         69.7299
453.47        69.65113
453.91         69.8397
454.36        70.23714
454.80         70.6917
455.24        70.84472
455.69        70.63474
456.13        70.33032
456.58        70.08141
457.02        69.58614
457.46         69.1337
457.91        69.58316
458.35        70.63701
458.79        71.05764
459.24        70.76561
459.68        70.36984
460.13        69.99805
460.57        69.61243
461.01        69.33268
461.46        68.94604
461.90        68.43061
462.34        68.97182
462.79        68.66558
463.23        68.98253
463.68        69.27652
464.12        69.52867
464.56        69.67484
465.01        69.74316
465.45        69.60925
465.89        69.48988
466.34        69.33015
466.78         68.3422
467.22        67.03693
467.67         67.0794
468.11        68.41752
468.55        69.17765
468.99         69.0757
469.44        68.72416
469.88        68.34148
470.32        68.42055
470.77        68.86744
471.21        68.89109
471.65        68.44337
472.10        68.14632
472.54        68.09949
472.98        68.09381
473.42        68.12021
473.87        68.50063
474.31        68.99601
474.75        68.69459
475.20        67.82543
475.64        67.72775
476.08        68.38637
476.52        68.50904
476.97        68.02695
477.41        68.33208
477.85        68.51301
478.29        68.19666
478.74        68.49632
479.18        68.35258
479.62        67.36378
480.06         67.8625
480.50        68.19767
480.95        68.54531
481.39         68.4111
481.83        67.96153
482.27        68.15799
482.72        67.53542
483.16        66.68098
483.60        66.83711
484.04        68.35983
484.48        68.83147
484.93        68.82031
485.37        70.14462
485.81        70.07941
486.25        69.29873
486.69        92.49641
487.14        74.59873
487.58        46.89468
488.02        58.08359
488.46        65.81899
488.90        65.91276
489.34        67.19183
489.79        66.38701
490.23        68.55225
490.67        69.30426
491.11        68.19675
491.55        68.16131
491.99        68.79453
492.43        68.72477
492.88        68.02197
493.32        68.01215
493.76         68.2003
494.20        68.42189
494.64        68.44704
495.08        68.52061
495.52        68.67003
495.96        68.60355
496.41        68.33888
496.85        68.68594
497.29        69.43226
497.73         68.6096
498.17        67.04717
498.61        67.35248
499.05         69.5154
499.49        69.80028
499.93        69.77294
500.37        69.46934
500.82        68.82831
501.26        68.86018
501.70        69.31501
502.14        69.61411
502.58        69.57169
503.02        69.45966
503.46        69.26084
503.90        68.77122
504.34        68.19717
504.78        67.97511
505.22        68.17272
505.66        68.67516
506.10        69.28552
506.54        69.54737
506.98        69.33623
507.42        69.01032
507.86         68.8394
508.30        68.05457
508.74        68.62172
509.18        68.91805
509.62        69.34046
510.06        69.58237
510.50        69.58224
510.94        69.41189
511.38         69.1688
511.82        69.04813
512.26        69.09783
512.70        69.25661
513.14        69.45222
513.58        69.57396
514.02        69.58427
514.46        69.51773
514.90        69.43211
515.34        69.39737
515.78        69.42001
516.22        69.53519
516.66        69.68622
517.10        69.61052
517.54        69.28902
517.98        69.39146
518.42         69.0974
518.86        69.13172
519.30        69.24625
519.74         69.4792
520.18        69.75714
520.62        69.95216
521.06        70.03831
521.50        70.04796
521.93        70.00743
522.37        69.95828
522.81        69.92557
523.25          69.897
523.69        69.89194
524.13        69.94381
524.57        70.05351
525.01        70.20947
525.45        70.37791
525.89        70.50127
526.32        70.55175
526.76        70.53991
527.20        70.47319
527.64        70.38406
528.08        70.30399
528.52        70.17407
528.96         69.9747
529.40        69.87283
529.83        69.91131
530.27        69.33514
530.71        69.54793
531.15        69.49728
531.59        69.59771
532.03         69.7878
532.46        70.04755
532.90        70.30981
533.34        70.52784
533.78        70.71051
534.22        70.82553
534.66        70.83825
535.09        70.73693
535.53        70.55602
535.97        70.32898
536.41        70.13164
536.85        69.99523
537.28        69.91763
537.72        69.87469
538.16        69.83545
538.60        69.79232
539.04        69.69894
539.47        69.59202
539.91        69.71214
540.35        69.98486
540.79        70.09548
541.22        70.01657
541.66        69.99149
542.10        70.01189
542.54        69.91439
542.97        69.76226
543.41        69.76644
543.85        69.93745
544.29        70.23354
544.72        70.50746
545.16        70.56055
545.60        70.34775
546.04        69.92803
546.47        69.49976
546.91        69.40259
547.35        69.68789
547.79        70.24656
548.22        70.79895
548.66        70.95718
549.10        70.61446
549.53        69.81295
549.97        68.91489
550.41        68.48705
550.84        68.64397
551.28        69.21307
551.72        69.97582
552.15        70.31781
552.59        70.53439
553.03         70.4362
553.46        70.19594
553.90        70.05942
554.34        70.06275
554.77        70.05123
555.21        69.98928
555.65        70.03204
556.08        70.19781
556.52        69.70484
556.96        70.14291
557.39        69.87059
557.83        69.51367
558.27        69.57392
558.70        70.01383
559.14        70.29245
559.57         70.3413
560.01         70.4492
560.45         70.5918
560.88        70.65867
561.32        70.62985
561.75        70.39816
562.19         70.0757
562.63        69.71983
563.06        69.45116
563.50        69.60753
563.93        70.05664
564.37        70.26759
564.80        70.16753
565.24        70.14656
565.68        70.09854
566.11        70.05739
566.55        70.05364
566.98        69.97253
567.42        69.88886
567.85        70.17419
568.29        70.74796
568.72        70.80386
569.16          70.531
569.60        70.81179
570.03         71.2751
570.47        71.14233
570.90        70.59101
571.34        68.98491
571.77        69.77991
572.21        69.84167
572.64        69.17624
573.08        68.38588
573.51        65.55637
573.95        68.16757
574.38        72.40187
574.82         70.1491
575.25        69.49803
575.69        67.57852
576.12         66.6402
576.56        65.78356
576.99        67.37312
577.42        70.23521
577.86        70.29383
578.29        69.33336
578.73        73.14187
579.16        67.32736
579.60        61.77744
580.03        64.67229
580.47        68.90688
580.90        70.45171
581.33        69.18858
581.77        68.38889
582.20        74.52401
582.64        74.00779
583.07         63.2867
583.51        62.32218
583.94        61.51745
584.37        64.56422
584.81        67.89587
585.24        71.34873
585.68        72.77262
586.11        71.34524
586.54        66.21023
586.98        64.52841
587.41        65.12408
587.85        68.77531
588.28        70.82637
588.71        67.77668
589.15         65.6347
589.58        67.06218
590.01        67.50578
590.45        68.69729
590.88        69.40984
591.31        68.74046
591.75        68.30285
592.18        68.37651
592.61        69.84521
593.05        70.16886
593.48        73.00237
593.91        73.33846
594.35        67.53927
594.78        66.23594
595.21        66.05106
595.65         69.0089
596.08        71.49537
596.51        68.78983
596.94        67.02386
597.38        67.77318
597.81        70.42266
598.24         72.3035
598.68        70.87196
599.11        69.60346
599.54        72.27579
599.97        73.46895
600.41          68.591
600.84        68.72965
601.27        70.13744
601.70         68.9613
602.14        68.99178
602.57        68.09779
603.00        68.83727
603.43        70.47379
603.87        72.05343
604.30        71.38148
604.73        68.99661
605.16         67.8373
605.60        68.87183
606.03        70.07088
606.46        71.01379
606.89        70.33813
607.32        68.63007
607.76        68.61378
608.19        70.45675
608.62        70.03804
609.05        68.43438
609.48        69.09058
609.92        69.20618
610.35        68.63027
610.78        71.25591
611.21        71.51658
611.64         68.7096
612.07        69.39322
612.50        69.75772
612.94        70.20848
613.37         69.7128
613.80         69.7368
614.23        70.30282
614.66        70.16683
615.09        70.33018
615.52        70.31634
615.96        70.27991
616.39        70.35847
616.82        69.33565
617.25        69.40434
617.68         70.0601
618.11        70.68502
618.54        70.98071
618.97        70.47537
619.40        69.54671
619.84        69.54955
620.27        70.45181
620.70        71.03543
621.13        71.12927
621.56        70.55466
621.99        69.71436
622.42        70.49765
622.85         72.3596
623.28        72.19087
623.71        71.50654
624.14        71.22926
624.57        71.01407
625.00        70.93153
625.43        71.01697
625.86          70.539
626.29        70.88162
626.72        71.27158
627.15          71.097
627.58        71.13423
628.01        71.08922
628.44        71.33434
628.87        71.57947
629.30        71.63096
629.73          71.975
630.16        72.44756
630.59        71.96938
631.02        71.62746
631.45        71.19788
631.88        70.91966
632.31        70.83746
632.74        70.90189
633.17        71.04367
633.60        71.12151
634.03        71.09712
634.46        71.01563
634.89        70.92811
635.32        70.91483
635.75        70.99449
636.18        71.12579
636.61        71.26939
637.04        71.37392
637.47         71.4199
637.89        71.43465
638.32        71.40339
638.75        71.34822
639.18        71.27904
639.61        71.20842
640.04        71.11902
640.47        71.03678
640.90        70.96444
641.33        70.90229
641.76        70.83932
642.18        70.85632
642.61        70.95353
643.04        70.94767
643.47        70.78742
643.90        71.31377
644.33        71.04779
644.76        71.17583
645.18        71.24641
645.61         71.2597
646.04        71.20042
646.47        71.06758
646.90        70.94351
647.33        70.92912
647.75         71.0699
648.18        71.32101
648.61        71.51703
649.04        71.56198
649.47        71.35559
649.89        70.48796
650.32        69.42796
650.75        69.37711
651.18        70.28446
651.61        71.14878
652.03        71.52808
652.46        71.38488
652.89         71.1293
653.32        70.40605
653.74        69.57175
654.17         71.3821
654.60         72.2333
655.03        69.56332
655.46        70.57854
655.88        74.16077
656.31        78.72876
656.74        171.6918
657.16        110.9845
657.59        39.03546
658.02        30.21431
658.45        52.98854
658.87        68.40416
659.30        71.60019
659.73        70.44581
660.15         68.3128
660.58        71.05138
661.01        72.93369
661.44        70.38784
661.86        69.54315
662.29        69.60337
662.72        70.23972
663.14        71.27251
663.57        71.30485
664.00        70.51856
664.42        70.42481
664.85        71.07304
665.27        71.41286
665.70         71.2892
666.13        71.08695
666.55        70.80978
666.98        70.34036
667.41        69.84951
667.83        69.67439
668.26        69.87946
668.69        70.32771
669.11        70.78543
669.54        71.21278
669.96        70.86348
670.39        70.41508
670.82        69.88474
671.24        69.57739
671.67        69.64237
672.09        70.10651
672.52        70.66229
672.94        71.18622
673.37        70.44374
673.80        70.18681
674.22        70.15165
674.65        70.09496
675.07        70.01649
675.50        69.92774
675.92        69.87109
676.35        69.94757
676.77        70.15868
677.20        70.39495
677.62        70.60201
678.05        70.69792
678.47        70.65291
678.90        70.51146
679.32        70.34399
679.75        70.14382
680.17        70.21735
680.60        70.31229
681.02         70.4323
681.45         70.4271
681.87        70.27977
682.30        70.02802
682.72        69.78698
683.15        69.75838
683.57        69.99101
684.00         70.3259
684.42        70.77387
684.85        70.97306
685.27        70.90578
685.70        70.65536
686.12        70.33236
686.54        70.15994
686.97        70.18359
687.39        70.34364
687.82        70.53336
688.24        70.66795
688.66        70.69713
689.09        70.51326
689.51        70.46194
689.94        70.45298
690.36        70.59432
690.78        70.81442
691.21        71.03291
691.63        71.14274
692.06        71.11266
692.48         70.9792
692.90        70.82265
693.33         70.7581
693.75        70.81973
694.17        70.98216
694.60        71.17094
695.02        71.27588
695.44         71.2403
695.87        71.17644
696.29        71.16296
696.71         71.0093
697.14        70.84636
697.56        71.24387
697.98        72.23001
698.41        71.98223
698.83        71.33002
699.25        70.89636
699.68        70.95393
700.10        70.88747
700.52        70.71441
700.94        70.80076
701.37        71.09817
701.79        71.42305
702.21        71.69504
702.64        71.97128
703.06        72.16776
703.48        72.13955
703.90        71.88686
704.33        71.45624
704.75        70.97414
705.17        70.73568
705.59        70.81647
706.01         71.0191
706.44        71.21917
706.86        71.82039
707.28        71.80535
707.70        71.98071
708.12        72.04865
708.55        71.94141
708.97        71.67686
709.39        71.39729
709.81        71.19654
710.23        71.10944
710.66        71.17108
711.08        71.44531
711.50        71.78336
711.92         71.9222
712.34        71.80729
712.76        71.49888
713.19        71.15737
713.61        71.07587
714.03        71.30341
714.45        71.74962
714.87        72.20231
715.29        72.32794
715.71        72.05962
716.13        71.51263
716.56        70.90511
716.98          70.616
717.40        70.73509
717.82        71.14615
718.24        71.66646
718.66        71.98647
719.08        72.01145
719.50        71.83617
719.92        71.56503
720.34        71.38239
720.76        71.34819
721.19        71.28397
721.61        71.38062
722.03        71.45224
722.45        71.54027
722.87        71.65625
723.29        71.78751
723.71        71.89734
724.13        71.97217
724.55         72.0126
724.97        72.02489
725.39        72.02853
725.81        72.03124
726.23        72.03088
726.65        72.03055
727.07         72.0323
727.49        72.04223
727.91        72.07013
728.33          72.116
728.75        72.17815
729.17         72.2486
729.59        72.31139
730.01        72.38213
730.43        72.47839
730.85        72.60322
731.27        72.78143
731.69        72.93418
732.10        72.91203
732.52        72.69696
732.94         72.3794
733.36        72.13664
733.78        72.11516
734.20        72.34876
734.62        73.08977
735.04        74.06716
735.46        74.10765
735.88        73.43845
736.30        73.71831
736.72        74.89079
737.13        75.35159
737.55         74.8486
737.97        74.57867
738.39        74.63372
738.81          73.924
739.23        72.86334
739.65        73.63755
740.06        75.75473
740.48        75.99142
740.90         74.4463
741.32        73.82498
741.74        74.35993
742.16        74.65438
742.57        74.74323
742.99        75.41388
743.41        76.45614
743.83        77.08002
744.25        77.15416
744.67        76.87875
745.08        76.49944
745.50        76.41127
745.92        76.73185
746.34          77.323
746.75        77.97147
747.17        78.32104
747.59        78.30143
748.01        78.02499
748.42        77.72762
748.84        77.76577
749.26        78.22701
749.68        78.97099
750.09        79.77155
750.51        80.25831
750.93         80.3457
751.35        80.09364
751.76        79.66277
752.18        79.49876
752.60        79.59539
753.01        79.50172
753.43        79.27615
753.85        79.41647
754.27        79.95362
754.68        80.65727
755.10        81.35164
755.52         81.9054
755.93         82.2238
756.35        82.28898
756.77        82.23651
757.18        82.13348
757.60        82.01125
758.02        82.29432
758.43        82.74189
758.85        81.95293
759.26        80.45682
759.68        80.64577
760.10        82.22385
760.51        82.82813
760.93        82.20752
761.34         80.5946
761.76        80.37296
762.18        79.78709
762.59        79.64452
763.01        80.14595
763.42        81.21609
763.84        82.05836
764.26        82.50173
764.67        82.80008
765.09        82.87755
765.50         82.6428
765.92        82.08601
766.33        80.79382
766.75        79.29134
767.16        78.83183
767.58        79.58862
768.00        81.26163
768.41        83.36642
768.83        84.65963
769.24         84.6562
769.66        83.68341
770.07        82.33443
770.49        81.02864
770.90        80.11767
771.32        81.02462
771.73        83.06927
772.15         82.4971
772.56        79.79397
772.97        79.22162
773.39        80.71606
773.80        81.22272
774.22        80.55288
774.63        80.62128
775.05        81.32178
775.46        81.64796
775.88        81.47224
776.29        81.09259
776.70        80.68259
777.12        80.54471
777.53        80.76951
777.95        81.20736
778.36        81.65453
778.77        81.76076
779.19        81.48209
779.60        80.92686
780.02         80.3615
780.43        80.25806
780.84        80.75492
781.26        81.32761
781.67        81.84866
782.09        82.85227
782.50        83.85043
782.91        82.86568
783.33        80.58102
783.74        79.80299
784.15        80.68925
784.57        81.37618
784.98        81.54161
785.39        81.61415
785.81        81.49963
786.22        80.92309
786.63         80.2467
787.04        80.15968
787.46         80.7423
787.87        81.77825
788.28        82.88802
788.70        83.43189
789.11        83.25174
789.52        82.56076
789.93        81.73239
790.35        81.29298
790.76        81.38815
791.17        81.91567
791.58        82.59778
792.00        82.94498
792.41        82.81683
792.82        82.28651
793.23        81.72475
793.65        81.53505
794.06        81.84377
794.47        83.00548
794.88        84.26353
795.29        83.64703
795.71        81.41838
796.12        79.25092
796.53        77.86242
796.94         77.6413
797.35         78.6327
797.76        80.15791
798.18        81.55838
798.59        82.51118
799.00        82.65588
799.41        81.71914
799.82        80.21867
800.23        79.32413
800.64        79.28206
801.06        79.66446
801.47        80.31278
801.88         80.8496
802.29        81.12007
802.70        81.29636
803.11        81.38077
803.52        81.33375
803.93        81.18055
804.34        80.86995
804.75         80.5617
805.17         80.5857
805.58        81.02915
805.99        81.64659
806.40        82.15812
806.81        82.47897
807.22        82.31596
807.63        80.93953
808.04        78.95187
808.45         78.0478
808.86        78.44081
809.27        79.37869
809.68         80.4443
810.09         81.1288
810.50        81.18433
810.91        80.78397
811.32        80.16429
811.73        79.70831
812.14        79.53909
812.55        79.48914
812.96        79.56314
813.37        79.77927
813.78        80.09859
814.19         80.5743
814.60         80.9604
815.01        80.85709
815.42        80.21959
815.83        79.12663
816.24         78.0123
816.65        77.64927
817.05        78.26256
817.46        79.58479
817.87        81.06723
818.28        81.71718
818.69        81.26122
819.10         79.9588
819.51        78.40276
819.92        77.59853
820.33         77.8214
820.74        78.76655
821.14        79.92476
821.55        80.37143
821.96        79.90987
822.37        78.87202
822.78        77.69865
823.19        77.02744
823.60        77.03182
824.00        77.54286
824.41        78.25862
824.82        78.80486
825.23        78.99886
825.64         78.9808
826.04        78.83485
826.45        78.67255
826.86        78.54005
827.27        78.36553
827.68        78.18774
828.08        78.12738
828.49        78.14653
828.90        78.29213
829.31        78.46243
829.72        78.45135
830.12        78.23766
830.53        77.86087
830.94        77.51809
831.35        77.47176
831.75        77.81016
832.16         78.3925
832.57        79.07314
832.97        79.53085
833.38        79.59358
833.79        79.36331
834.20        79.02012
834.60        78.83224
835.01        78.89611
835.42        79.12093
835.82        79.36556
836.23        79.31569
836.64        78.94202
837.04        78.36432
837.45         77.7879
837.86        77.53807
838.26        77.69912
838.67        78.13527
839.08        78.68082
839.48        79.02806
839.89         79.0463
840.29        78.85176
840.70        78.54092
841.11        78.24464
841.51        78.01687
841.92        77.77586
842.33        77.58208
842.73        77.55032
843.14        77.65511
843.54        77.93149
843.95        78.16508
844.35        78.06094
844.76        77.56226
845.17        76.77884
845.57        76.00536
845.98        75.70005
846.38        75.95623
846.79        76.62151
847.19        77.43784
847.60        77.84492
848.00        77.72148
848.41        77.21085
848.81         76.6004
849.22        76.24943
849.62        76.30904
850.03        76.67178
850.43        77.22852
850.84        77.69188
851.24        77.99355
851.65        78.03593
852.05        78.08085
852.46        78.37325
852.86        78.96024
853.27        79.78023
853.67        80.26695
854.07        79.68709
854.48        78.06108
854.88        75.67071
855.29        73.39448
855.69        72.49641
856.10        73.21945
856.50        75.38494
856.90        78.22175
857.31        79.93774
857.71        79.94197
858.12        78.68011
858.52        76.93713
858.92        75.74718
859.33        75.35434
859.73        75.47953
860.13         75.9813
860.54        76.57839
860.94        77.19814
861.34        77.90407
861.75        78.62496
862.15        79.31653
862.55        79.91174
862.96        80.36533
863.36        80.65081
863.76        80.72457
864.17        80.59967
864.57        80.34443
864.97        80.11545
865.38        80.13918
865.78         80.5026
866.18        81.08328
866.58        81.71783
866.99        82.10264
867.39        82.20187
867.79        82.11452
868.19        81.83817
868.60         81.3677
869.00        80.78383
869.40        80.10881
869.80        79.72871
870.21        80.21246
870.61        81.72503
871.01        84.08034
871.41        86.63796
871.81        88.29177
872.22        88.72005
872.62        88.18169
873.02        87.28795
873.42        87.17352
873.82        87.96523
874.22        89.14076
874.63        90.29668
875.03        90.62163
875.43        89.78825
875.83        88.84463
876.23        87.08112
876.63         86.4769
877.03        87.11546
877.44        89.27021
877.84         102.056
878.24        97.04189
878.64        97.06683
879.04        95.90271
879.44        92.61231
879.84        90.84534
880.24        93.41836
880.64        95.09753
881.04        96.31708
881.44        96.99937
881.84         96.4945
882.24        95.15792
882.65        93.84361
883.05        93.42434
883.45        94.06694
883.85        95.65194
884.25        97.59785
884.65        98.73016
885.05        98.67313
885.45        97.82762
885.85        96.79795
886.25        96.41625
886.65        96.86036
887.05        97.82957
887.45        98.98972
887.85        99.75245
888.25         99.8936
888.65        99.64457
889.04        99.12531
889.44        98.55618
889.84        98.03329
890.24        97.47049
890.64        97.01607
891.04        96.91839
891.44        97.17901
891.84        97.74455
892.24        98.33101
892.64        98.39038
893.04        97.86252
893.44         97.0414
893.83          96.222
894.23        95.84636
894.63        95.99879
895.03        96.44003
895.43        97.29678
895.83        98.76659
896.23        100.7254
896.63        103.0906
897.02         104.997
897.42        105.0478
897.82        103.0869
898.22        99.63792
898.62        96.00988
899.01        94.13147
899.41        94.42884
899.81        96.27193
900.21        98.74766
900.61        100.3521
901.00        100.6216
901.40        100.0416
901.80         99.0699
902.20        98.40909
902.59        98.28567
902.99          98.409
903.39        98.61022
903.79        98.65515
904.18        98.47131
904.58         98.2522
904.98         98.0823
905.38        98.04907
905.77        98.15426
906.17        98.31274
906.57        98.52425
906.96        98.85706
907.36        99.23087
907.76        99.64571
908.15        99.90675
908.55        99.58181
908.95        98.67065
909.34        97.27835
909.74        95.87419
910.14        95.01949
910.53         94.8922
910.93         95.4025
911.33         96.2766
911.72        97.00351
912.12        97.33395
912.52        97.37347
912.91        97.37794
913.31         97.7074
913.70        98.48238
914.10        99.60666
914.49        100.7361
914.89        100.9058
915.29        99.85223
915.68        97.91354
916.08          96.092
916.47        95.26514
916.87        95.54918
917.26        96.67975
917.66        97.95098
918.05        98.25663
918.45        97.33282
918.84         95.5799
919.24        93.82761
919.64        93.27236
920.03        94.19418
920.42        96.19904
920.82        98.53006
921.21        100.0043
921.61        100.0824
922.00        99.21428
922.40        97.83381
922.79        96.50326
923.19        95.47066
923.58        94.52672
923.98        93.67249
924.37        93.17847
924.77        93.26848
925.16        92.56752
925.55        93.69302
925.95        94.82172
926.34        96.61914
926.74        98.65707
927.13         100.509
927.52        101.2667
927.92        100.8426
928.31        99.52772
928.70        97.69146
929.10        95.98063
929.49        94.61121
929.89        93.48666
930.28        92.87063
930.67        93.18796
931.07        94.32918
931.46        96.23022
931.85        98.13192
932.24        98.88919
932.64        98.28914
933.03        96.53715
933.42        94.13387
933.82        92.29642
934.21        91.42627
934.60        91.25722
934.99        91.46661
935.39         91.7235
935.78        91.98196
936.17        92.22332
936.56        92.19112
936.96        92.79058
937.35        91.65514
937.74        90.80395
938.13        90.16942
938.53        90.44322
938.92        91.63103
939.31        93.66845
939.70        95.92053
940.09        96.65896
940.49        95.33494
940.88        92.69013
941.27        89.93888
941.66        88.48526
942.05        88.51281
942.44        89.56734
942.84        91.15311
943.23         92.4901
943.62        93.16892
944.01        93.41279
944.40        93.36324
944.79        93.24206
945.18        93.12225
945.57        92.84107
945.97        92.31698
946.36        91.56216
946.75        90.73372
947.14        90.03738
947.53        89.54922
947.92        89.21954
948.31        89.01448
948.70        88.94624
949.09        89.04592
949.48        89.37225
949.87        89.89141
950.26        90.48089
950.65        91.08543
951.04        91.67252
951.43         92.2013
951.82        92.66188
952.21        92.81396
952.60        92.32336
952.99        91.17909
953.38        89.50101
953.77         87.8045
954.16        86.81873
954.55        86.69359
954.94        87.33861
955.33        88.13551
955.72        88.01317
956.11         86.7461
956.50        84.59586
956.89        82.55471
957.28        82.43284
957.66        84.73418
958.05        88.61127
958.44        92.69252
958.83        94.96072
959.22        94.92268
959.61        93.11206
960.00        90.46111
960.39        88.51345
960.78        87.76707
961.16        87.83945
961.55        88.09061
961.94        87.46224
962.33        85.75578
962.72        83.51229
963.11        81.45856
963.49        80.45081
963.88        80.62905
964.27        81.77625
964.66        83.36179
965.04        84.28214
965.43         84.0306
965.82        83.00661
966.21         81.9452
966.60        81.83777
966.98        82.85659
967.37        84.61407
967.76        86.53724
968.15        87.51285
968.53         87.1797
968.92        85.93571
969.31        84.34748
969.69        83.11796
970.08        82.45996
970.47        82.19975
970.86        82.16926
971.24        82.09644
971.63        81.88377
972.02         81.6395
972.40        81.60862
972.79        82.13889
973.17        83.38404
973.56        85.05122
973.95        86.65675
974.33        87.30083
974.72        86.65755
975.11        85.02979
975.49        83.12283
975.88        81.92143
976.26        81.55586
976.65        81.82653
977.04        82.16696
977.42        81.30192
977.81        78.98443
978.19        75.88969
978.58        73.53973
978.96        73.37621
979.35        75.56776
979.74        79.77582
980.12        85.25443
980.51         89.0489
980.89        90.10864
981.28        89.08481
981.66        86.95062
982.05        85.02547
982.43        83.68251
982.82        82.55701
983.20        81.93961
983.59        82.36797
983.97        83.96895
984.35        86.79701
984.74        89.99656
985.12        91.77564
985.51        91.02074
985.89        88.05508
986.28        83.94667
986.66        80.52252
987.04        78.73203
987.43        78.24478
987.81        78.42282
988.20         78.4773
988.58        78.14571
988.96        77.40992
989.35        76.90325
989.73        78.70635
990.12        83.07167
990.50        88.50175
990.88        91.88512
991.27        91.28658
991.65        87.28212
992.03        80.55566
992.42        73.40765
992.80        70.16251
993.18        72.01698
993.56        76.62908
993.95        81.73799
994.33        85.27665
994.71         86.7599
995.10        87.24169
995.48        86.67729
995.86        84.74269
996.24        81.48232
996.63        76.46071
997.01        71.00833
997.39        69.12824
997.77        72.46278
998.15        80.12785
998.54        88.28635
998.92        91.63684
999.30        88.69292
999.68        80.75989
1000.06        70.16409
1000.45        62.66479
1000.83        60.67929
1001.21        62.31929
1001.59        65.84818
1001.97        69.50545
1002.35        72.82517
1002.73        76.83331
1003.12        80.56654
1003.50        80.81948
1003.88        76.41534
1004.26        69.12025
1004.64        62.05126
1005.02        57.65436
1005.40        55.86332
1005.78         55.9949
1006.16        59.36383
1006.54         66.8399
1006.92        74.74942
1007.30        80.57549
1007.69        83.58256
1008.07        84.39032
1008.45        83.42653
1008.83         79.2049
1009.21        67.24873
1009.59        37.32241
1009.97       -21.77753
1010.35       -71.80918
1010.73       -33.36045
1011.11        8.692832
1011.49        30.47211
1011.86        44.81307
1012.24        52.73878
1012.62        56.87048
1013.00        59.23945
1013.38        60.28205
1013.76        61.86857
1014.14        69.03185
1014.52         85.2151
1014.90        111.1668
1015.28        139.9621
1015.66        153.8413
1016.04        142.0034
1016.41          107.56
1016.79        68.15163
1017.17        43.34718
1017.55        34.68705
1017.93        33.83084
1018.31        36.27549
1018.69        39.99037
1019.06        44.79762
1019.44        51.52405
1019.82        61.98855
1020.20        76.47764
1020.58        94.43685
1020.95        116.9838
1021.33        143.9654
1021.71       -105.7461
1022.09         102.399
1022.46        118.0374
1022.84        126.1884
1023.22        135.6969
1023.60        157.0727
1023.97        357.5077
1024.35        21.31716
1024.73        62.57974
